Time (s),Filtered Signal
0.0,0.038179931358921844
0.033370165745856356,-0.023284672346067004
0.06674033149171271,-0.09393310380654415
0.10011049723756907,-0.17331367146576668
0.13348066298342542,-0.24809409422340967
0.16685082872928178,-0.2965054900476369
0.20022099447513814,-0.29858387135571973
0.2335911602209945,-0.24675406578931008
0.26696132596685085,-0.1511573297776253
0.30033149171270723,-0.03697463029794626
0.33370165745856356,0.06488239854243581
0.3670718232044199,0.1292037211317495
0.4004419889502763,0.14488885208673852
0.43381215469613266,0.11709486724946364
0.467182320441989,0.06308086360703996
0.5005524861878453,0.004430457856050605
0.5339226519337017,-0.04063874934097234
0.5672928176795581,-0.062002067070439565
0.6006629834254145,-0.05842333982807224
0.6340331491712707,-0.03530689237051049
0.6674033149171271,-0.0012536155801365378
0.7007734806629835,0.034881425666228295
0.7341436464088398,0.06563100328645032
0.7675138121546962,0.08546016191296076
0.8008839779005525,0.09094762519676594
0.8342541436464089,0.08117307361685007
0.8676243093922653,0.05823452606657373
0.9009944751381216,0.027224595710934562
0.934364640883978,-0.005048288977836708
0.9677348066298344,-0.03266137410953753
1.0011049723756906,-0.05358298982468191
1.0344751381215471,-0.07147491578846366
1.0678453038674034,-0.0948380630089975
1.1012154696132597,-0.13314447314330558
1.1345856353591162,-0.19118900648607748
1.1679558011049724,-0.2641715881223082
1.201325966850829,-0.33622728830265347
1.2346961325966852,-0.3839580913082174
1.2680662983425415,-0.3843577814102184
1.301436464088398,-0.3242951290593286
1.3348066298342542,-0.20752806339699598
1.3681767955801105,-0.05578357258753063
1.401546961325967,0.09731254415382545
1.4349171270718233,0.21763073770423125
1.4682872928176796,0.2829404265289596
1.501657458563536,0.29123423795585324
1.5350276243093923,0.2613058336919838
1.5683977900552488,0.22503448294150938
1.601767955801105,0.21436646535997886
1.6351381215469614,0.24834642158115516
1.6685082872928179,0.3255681568113817
1.7018784530386741,0.4249795185948903
1.7352486187845306,0.5142390587925312
1.768618784530387,0.5616551202551734
1.8019889502762432,0.5466859259206368
1.8353591160220997,0.46534455404496855
1.868729281767956,0.32957568192722647
1.9020994475138122,0.16211978941194552
1.9354696132596687,-0.010544903377825997
1.968839779005525,-0.16488117358464177
2.0022099447513813,-0.2851461931622551
2.0355801104972375,-0.36565782503005007
2.0689502762430942,-0.4101265455327114
2.1023204419889505,-0.4282453737675776
2.135690607734807,-0.4306460840892756
2.169060773480663,-0.42427052052413106
2.2024309392265193,-0.4103948833462471
2.235801104972376,-0.3864500206200039
2.2691712707182323,-0.3506967633611597
2.3025414364640886,-0.30686612443266664
2.335911602209945,-0.2653815935411414
2.369281767955801,-0.23938792483302038
2.402651933701658,-0.2369173276835637
2.436022099447514,-0.25343526417000517
2.4693922651933704,-0.26981424100236506
2.5027624309392267,-0.25853974298447086
2.536132596685083,-0.1964618459757846
2.5695027624309392,-0.07803553744259532
2.602872928176796,0.07853782700609144
2.636243093922652,0.23709951333625442
2.6696132596685085,0.3599553331310988
2.7029834254143648,0.4272121415168061
2.736353591160221,0.44833012180994897
2.7697237569060777,0.45793617537756237
2.803093922651934,0.49572944528602836
2.8364640883977903,0.5794777039707911
2.8698342541436466,0.6856700112519853
2.903204419889503,0.7506398513829173
2.936574585635359,0.6957096350847064
2.969944751381216,0.46712581412291376
3.003314917127072,0.07186328305642195
3.0366850828729284,-0.41035030631263664
3.0700552486187846,-0.8485799326485607
3.103425414364641,-1.1093123421439886
3.1367955801104976,-1.1112473140063308
3.170165745856354,-0.8606945384588959
3.20353591160221,-0.4502526404567661
3.2369060773480665,-0.020725775922777658
3.2702762430939227,0.2962321052629895
3.3036464088397794,0.42845772069063737
3.3370165745856357,0.3845843771498923
3.370386740331492,0.23905557011103615
3.4037569060773483,0.09094561542832627
3.4371270718232045,0.017839051525362876
3.4704972375690613,0.04597847348368264
3.5038674033149175,0.1478097597851918
3.537237569060774,0.26401422241466965
3.57060773480663,0.3363720347570362
3.6039779005524863,0.33493211761784014
3.6373480662983426,0.2680659436931134
3.6707182320441993,0.1734308060230898
3.7040883977900556,0.09669589588013011
3.737458563535912,0.06927338789098862
3.770828729281768,0.095045065141441
3.8041988950276244,0.15066079838591867
3.837569060773481,0.19746883019350653
3.8709392265193374,0.1985469013073399
3.9043093922651937,0.1332734319871621
3.93767955801105,0.004154422752308668
3.9710497237569062,-0.16544345652720382
4.0044198895027625,-0.3403813915166737
4.037790055248619,-0.48541856170203174
4.071160220994475,-0.5752360116533546
4.104530386740332,-0.6000579326801807
4.1379005524861885,-0.5661156364568654
4.171270718232044,-0.49185706061836726
4.204640883977901,-0.40164942484771304
4.238011049723757,-0.31880689121176964
4.271381215469614,-0.25948999446793136
4.30475138121547,-0.2287318101396205
4.338121546961326,-0.21959307182048762
4.371491712707183,-0.2159757264134298
4.404861878453039,-0.1986760208645822
4.438232044198895,-0.15295057425021252
4.471602209944752,-0.07481070127439969
4.504972375690608,0.02674804574586849
4.538342541436465,0.13293299637779188
4.5717127071823205,0.22268534696629488
4.605082872928177,0.2813049204051491
4.638453038674034,0.30626496023866173
4.67182320441989,0.30764033977600896
4.7051933701657465,0.30317067030900313
4.738563535911602,0.3104253037934026
4.771933701657459,0.33960176425902233
4.805303867403316,0.38983358033942533
4.8386740331491715,0.4500978139105902
4.872044198895028,0.5038954533177142
4.905414364640884,0.5356168669392055
4.938784530386741,0.5361730700921044
4.972154696132597,0.5059293088777891
5.005524861878453,0.45394150902634023
5.03889502762431,0.39372915923453705
5.072265193370166,0.3370868021847475
5.105635359116023,0.28839513975873876
5.1390055248618784,0.2420879345923368
5.172375690607735,0.18500672897628612
5.205745856353592,0.103379702927182
5.239116022099448,-0.008255057311948194
5.272486187845304,-0.14054314035543353
5.30585635359116,-0.269363163768928
5.339226519337017,-0.36399748176307284
5.372596685082874,-0.40089638272853123
5.4059668508287295,-0.3768798742932606
5.439337016574586,-0.3146501119319385
5.472707182320442,-0.2562533004676209
5.506077348066299,-0.24574578052149396
5.5394475138121555,-0.30816974302339784
5.572817679558011,-0.4349621568481925
5.606187845303868,-0.5841833576071694
5.639558011049724,-0.6977264734148952
5.672928176795581,-0.7294281443689871
5.706298342541437,-0.6714750730656472
5.739668508287293,-0.5651529706551731
5.77303867403315,-0.48740459049840973
5.806408839779006,-0.5154585016217342
5.839779005524862,-0.6835788342040244
5.873149171270718,-0.9528740653140043
5.906519337016575,-1.212390908247329
5.939889502762432,-1.3167890873610582
5.9732596685082875,-1.1476545626431998
6.006629834254144,-0.6710188155411069
6.04,0.038221339277897656
6.073370165745857,0.8203177567250359
6.1067403314917135,1.4943115950569847
6.140110497237569,1.9309208136056608
6.173480662983426,2.098136669909664
6.206850828729282,2.0569950815364977
6.240220994475139,1.9120037664771308
6.273591160220995,1.745430863119362
6.306961325966851,1.5728135018590017
6.340331491712708,1.3440064760254562
6.373701657458564,0.9875598022894219
6.40707182320442,0.47147289421063165
6.440441988950277,-0.1556858537590413
6.473812154696133,-0.7680176277154476
6.50718232044199,-1.2098383071262953
6.5405524861878455,-1.3633003530341132
6.573922651933702,-1.201420924606234
6.607292817679559,-0.8001284119001483
6.640662983425415,-0.3045589868085709
6.674033149171271,0.13231476333201753
6.707403314917127,0.4083914751379572
6.740773480662984,0.5018686326185844
6.774143646408841,0.4611972465738935
6.8075138121546965,0.36519256220988494
6.840883977900553,0.27614039642554267
6.874254143646409,0.20962637078714222
6.907624309392266,0.13418116277065095
6.9409944751381225,-0.002156904149114801
6.974364640883978,-0.2345012831846564
7.007734806629835,-0.5534553204415193
7.041104972375691,-0.9014517448916249
7.074475138121548,-1.1944470491430161
7.107845303867403,-1.3573672685484546
7.14121546961326,-1.3553277523444485
7.174585635359117,-1.2057651547624995
7.207955801104973,-0.967039431399211
7.241325966850829,-0.7108925923936978
7.274696132596685,-0.49318353118013064
7.308066298342542,-0.336421534003971
7.341436464088399,-0.23014376216486224
7.3748066298342545,-0.14574484985443967
7.408176795580111,-0.056004038595730395
7.441546961325967,0.05099444391648352
7.474917127071824,0.16924035046800676
7.5082872928176805,0.2825579792123101
7.541657458563536,0.3768341319264422
7.575027624309393,0.44956214650077986
7.608397790055249,0.5119767643212225
7.641767955801106,0.5833189339002648
7.675138121546962,0.6805509818893484
7.708508287292818,0.808517214971302
7.741878453038675,0.9548009220041994
7.775248618784531,1.091217187457587
7.808618784530387,1.1813028933496803
7.841988950276244,1.1912901904743096
7.8753591160221,1.1011740396724496
7.908729281767957,0.9124642352047524
7.9420994475138125,0.6499189827960782
7.975469613259669,0.3560525237051802
8.008839779005525,0.0794621604864259
8.042209944751383,-0.13951797965492005
8.075580110497238,-0.2807586697631202
8.108950276243094,-0.3491906520218192
8.14232044198895,-0.37047631895491767
8.175690607734808,-0.3791753222692173
8.209060773480664,-0.4042798975201568
8.24243093922652,-0.4580829789593879
8.275801104972377,-0.5328273785712115
8.309171270718233,-0.6061853998756802
8.342541436464089,-0.6528288248815958
8.375911602209946,-0.6567671340821941
8.409281767955802,-0.6188491571657454
8.442651933701658,-0.5560117511697664
8.476022099447514,-0.49264248673483446
8.509392265193371,-0.44814778049023135
8.542762430939227,-0.42672783663930175
8.576132596685083,-0.41444675079534465
8.60950276243094,-0.3852759678243854
8.642872928176796,-0.31348191129077546
8.676243093922652,-0.1866379704512108
8.709613259668508,-0.013205125616730925
8.742983425414366,0.17880998702354575
8.776353591160222,0.35146307338241145
8.809723756906077,0.4704217274084767
8.843093922651935,0.5166588538148608
8.87646408839779,0.4917263107371091
8.909834254143647,0.4151398194800094
8.943204419889504,0.31574274736164776
8.97657458563536,0.22102422421047846
9.009944751381216,0.1485919534147044
9.043314917127072,0.1025906356619446
9.07668508287293,0.07561295658951392
9.110055248618785,0.05450467666543262
9.143425414364641,0.0271966867115341
9.176795580110499,-0.012280456023197174
9.210165745856354,-0.062241039581720156
9.24353591160221,-0.11513438505526558
9.276906077348068,-0.1611275762516365
9.310276243093924,-0.1914706836691845
9.34364640883978,-0.20028351280387907
9.377016574585635,-0.18468051726133083
9.410386740331493,-0.14424337751886332
9.443756906077349,-0.08106589871803158
9.477127071823205,-0.0007783815557484015
9.510497237569062,0.08635929137175413
9.543867403314918,0.16605013814144928
9.577237569060774,0.22352723929563162
9.610607734806631,0.24955721205187667
9.643977900552487,0.24613318464568873
9.677348066298343,0.22808345559196722
9.710718232044199,0.2181065329575585
9.744088397790057,0.23610839906254547
9.777458563535912,0.2874372851968814
9.810828729281768,0.3563541407812647
9.844198895027626,0.4093590345421627
9.877569060773482,0.40827809504528406
9.910939226519337,0.3276828009822468
9.944309392265193,0.1682959194989699
9.97767955801105,-0.04057390368188362
10.011049723756907,-0.2513107442017579
10.044419889502763,-0.41638136642348095
10.07779005524862,-0.506198266313605
10.111160220994476,-0.5182745079598406
10.144530386740332,-0.4741065528818933
10.17790055248619,-0.40638159981244565
10.211270718232045,-0.3434853234406351
10.244640883977901,-0.29876131032968445
10.278011049723757,-0.2686988399351958
10.311381215469615,-0.23932635791672702
10.34475138121547,-0.19629002726498654
10.378121546961326,-0.1331746944670603
10.411491712707184,-0.05455908663720835
10.44486187845304,0.026455772863868885
10.478232044198895,0.0939097625371513
10.511602209944753,0.1347527078666573
10.544972375690609,0.14261135851996729
10.578342541436465,0.11907062651504312
10.61171270718232,0.07308886125081895
10.645082872928178,0.01926354647499165
10.678453038674034,-0.02487025484779371
10.71182320441989,-0.042682005843280676
10.745193370165747,-0.023214785345719094
10.778563535911603,0.03432671893392357
10.811933701657459,0.11841079388247178
10.845303867403315,0.20718600460937914
10.878674033149172,0.274995546995006
10.912044198895028,0.30148483687140665
10.945414364640884,0.27963545727450434
10.978784530386742,0.21894737705740672
11.012154696132598,0.14185198664082838
11.045524861878453,0.07449855340683639
11.078895027624311,0.03580308407807125
11.112265193370167,0.0296376069716053
11.145635359116023,0.043691916155185216
11.179005524861878,0.05548173445774277
11.212375690607736,0.04271337359838406
11.245745856353592,-0.006661527865581209
11.279116022099448,-0.08900920115482581
11.312486187845305,-0.18621438273071778
11.345856353591161,-0.2725496471016764
11.379226519337017,-0.324009700011726
11.412596685082875,-0.326336277637286
11.44596685082873,-0.27902707939605853
11.479337016574586,-0.1945344636013498
11.512707182320442,-0.09362101311826156
11.5460773480663,0.0011917834586358726
11.579447513812156,0.0720437979625235
11.612817679558011,0.11042658919017631
11.646187845303869,0.11912898323384381
11.679558011049725,0.11095513430520222
11.71292817679558,0.10428293028966328
11.746298342541436,0.11628655031472995
11.779668508287294,0.15562720493168122
11.81303867403315,0.21725511941312536
11.846408839779006,0.28198853074305774
11.879779005524863,0.32219254309584766
11.91314917127072,0.312316036097603
11.946519337016575,0.24034063553560148
11.979889502762433,0.11494109640352886
12.013259668508288,-0.035544506601645647
12.046629834254144,-0.1726687468585873
12.08,-0.26219131202620366
12.113370165745858,-0.28699466377001004
12.146740331491714,-0.2530439941344542
12.18011049723757,-0.18606819395279042
12.213480662983427,-0.12073863003639686
12.246850828729283,-0.08709359958886385
12.280220994475139,-0.09962855353370496
12.313591160220996,-0.15290128204308426
12.346961325966852,-0.22466624604561541
12.380331491712708,-0.28472654780359313
12.413701657458564,-0.30588492308201437
12.447071823204421,-0.27304606661856784
12.480441988950277,-0.18756789965358556
12.513812154696133,-0.06586185309466762
12.54718232044199,0.06672119797877162
12.580552486187846,0.18421402373519308
12.613922651933702,0.2676080554831451
12.64729281767956,0.30932245572698497
12.680662983425416,0.31350045084765576
12.714033149171271,0.292514785261785
12.747403314917127,0.26121993844787006
12.780773480662985,0.23109989627411703
12.81414364640884,0.20642163002536768
12.847513812154697,0.18378844790085758
12.880883977900554,0.15519751772866225
12.91425414364641,0.11320919068849146
12.947624309392266,0.05577178157457608
12.980994475138122,-0.011741192956553133
13.01436464088398,-0.07842870364214384
13.047734806629835,-0.1327920062208609
13.081104972375691,-0.16808639664145167
13.114475138121549,-0.18517104649663657
13.147845303867404,-0.19131289879562519
13.18121546961326,-0.19572947494298853
13.214585635359118,-0.20452821238085322
13.247955801104974,-0.21792649276815862
13.28132596685083,-0.23105417386919255
13.314696132596685,-0.23729013881783267
13.348066298342543,-0.2315591761593479
13.381436464088399,-0.2113661486745413
13.414806629834255,-0.17530408768013694
13.448176795580112,-0.12090264778596263
13.481546961325968,-0.044382395300366334
13.514917127071824,0.056457616180436744
13.548287292817681,0.17751406629115263
13.581657458563537,0.3050604046656936
13.615027624309393,0.4169764896360262
13.648397790055249,0.48932423239347783
13.681767955801106,0.5057774423009317
13.715138121546962,0.46519888207871274
13.748508287292818,0.3830130960211604
13.781878453038676,0.28497336050253624
13.815248618784532,0.19594255435149754
13.848618784530387,0.12916936930900344
13.881988950276245,0.08155604169964178
13.9153591160221,0.03741941573772152
13.948729281767957,-0.02122123873024756
13.982099447513813,-0.10329117793914051
14.01546961325967,-0.2022501616249748
14.048839779005526,-0.29792552019833185
14.082209944751382,-0.36549730279212045
14.11558011049724,-0.38694927446265814
14.148950276243095,-0.35936834408366286
14.182320441988951,-0.29642790623228993
14.215690607734807,-0.22287164674110577
14.249060773480664,-0.16488705000059622
14.28243093922652,-0.14056297917093155
14.315801104972376,-0.15397092479965216
14.349171270718234,-0.19455703531622734
14.38254143646409,-0.24151002440321792
14.415911602209945,-0.2712728709567445
14.449281767955803,-0.2656068310353807
14.482651933701659,-0.21756263163940348
14.516022099447515,-0.1333507563350799
14.54939226519337,-0.029426981834985953
14.582762430939228,0.07411295087047115
14.616132596685084,0.16113666612459104
14.64950276243094,0.2247993379575648
14.682872928176797,0.2682550692031244
14.716243093922653,0.30060727948623944
14.749613259668509,0.3303034191324443
14.782983425414367,0.35942948265449276
14.816353591160222,0.3818255106645691
14.849723756906078,0.38594751857560405
14.883093922651934,0.3610290277627044
14.916464088397792,0.30352262848899986
14.949834254143648,0.2206911266481413
14.983204419889503,0.1295062373380876
15.016574585635361,0.05106990136740122
15.049944751381217,0.002721425654544979
15.083314917127073,-0.008957858417613065
15.116685082872928,0.008697153151286009
15.150055248618786,0.036572614115828836
15.183425414364642,0.05058026210720006
15.216795580110498,0.030648141218994934
15.250165745856355,-0.031479411345343926
15.283535911602211,-0.12861355849649245
15.316906077348067,-0.24010250929914162
15.350276243093925,-0.338730216746101
15.38364640883978,-0.39993219071860997
15.417016574585636,-0.40983895896480754
15.450386740331492,-0.36921062502519936
15.48375690607735,-0.29209552368582015
15.517127071823205,-0.20019848052918293
15.550497237569061,-0.11546904842974834
15.583867403314919,-0.0536963835426535
15.617237569060775,-0.021006890437104124
15.65060773480663,-0.013749335570237312
15.683977900552488,-0.021073851906952958
15.717348066298344,-0.028983727819020182
15.7507182320442,-0.024687598714889798
15.784088397790056,-0.0003323289874164999
15.817458563535913,0.04464704133292371
15.85082872928177,0.10324114965935001
15.884198895027625,0.16303440756649196
15.917569060773483,0.2105032894590135
15.950939226519338,0.2361283208070188
15.984309392265194,0.2382566337557489
16.01767955801105,0.22375137154355335
16.051049723756908,0.20465912086150687
16.084419889502765,0.1920346908222806
16.11779005524862,0.1897449388053508
16.151160220994477,0.1914971084300862
16.18453038674033,0.18301735007243594
16.21790055248619,0.14873497169202532
16.251270718232046,0.07984832029473692
16.2846408839779,-0.020279250920624887
16.318011049723758,-0.13616744610321416
16.351381215469615,-0.24566391179444974
16.38475138121547,-0.3280023038960876
16.418121546961327,-0.370603254602094
16.451491712707185,-0.37180680914771985
16.48486187845304,-0.33910233471991275
16.518232044198896,-0.28461270833374086
16.551602209944754,-0.2204232118690002
16.584972375690608,-0.15564019346785485
16.618342541436466,-0.09556352104635132
16.651712707182323,-0.04212396205843049
16.685082872928177,0.005529795773311827
16.718453038674035,0.05074457255393846
16.751823204419892,0.0988920796322357
16.785193370165747,0.15583860989872295
16.818563535911604,0.22503378516290692
16.851933701657458,0.3040866111206652
16.885303867403316,0.38267326779877336
16.918674033149173,0.4435663667962231
16.952044198895027,0.46729251004470124
16.985414364640885,0.4390319180796732
17.018784530386743,0.3549526618600233
17.052154696132597,0.2250935317719845
17.085524861878454,0.0712873675566361
17.118895027624312,-0.07924323510114738
17.152265193370166,-0.2021398903692438
17.185635359116024,-0.28281496137285883
17.21900552486188,-0.31947560612458537
