Frequency (Hz),Amplitude
0.0,10.293186668935826
0.019823788546255508,10.289326088713493
0.039647577092511016,10.277750859317463
0.059471365638766524,10.258480528085702
0.07929515418502203,10.231547719228795
0.09911894273127755,10.196998202612317
0.11894273127753305,10.154890991686367
0.13876651982378857,10.10529847222376
0.15859030837004406,10.048306564042736
0.17841409691629956,9.9840149184323
0.1982378854625551,9.91253715457737
0.2180616740088106,9.834001138900808
0.2378854625550661,9.748549311905382
0.25770925110132165,9.656339067815926
0.27753303964757714,9.5575431930922
0.29735682819383263,9.4523503707056
0.31718061674008813,9.340965757943238
0.3370044052863437,9.223611646412694
0.3568281938325991,9.10052821384749
0.37665198237885467,8.971974378229431
0.3964757709251102,8.838228765598572
0.41629955947136565,8.6995908036455
0.4361233480176212,8.556381953666492
0.4559471365638767,8.40894709356639
0.4757709251101322,8.2576560641069
0.49559471365638774,8.102905389239215
0.5154185022026433,7.945120178745278
0.5352422907488987,7.784756217033864
0.5550660792951543,7.6223022351293555
0.5748898678414097,7.458282352801174
0.5947136563876653,7.293258663346191
0.6145374449339208,7.127833913470303
0.6343612334801763,6.962654203538622
0.6541850220264318,6.7984115975834385
0.6740088105726874,6.635846486359904
0.6938325991189428,6.475749489317127
0.7136563876651982,6.318962612483815
0.7334801762114539,6.166379300641696
0.7533039647577093,6.018942938439855
0.7731277533039648,5.877643275331388
0.7929515418502204,5.7435101882522295
0.8127753303964759,5.617604175453673
0.8325991189427313,5.501003022898739
0.8524229074889869,5.394784232702472
0.8722466960352424,5.30000307968691
0.8920704845814978,5.217666581651581
0.9118942731277534,5.148704217822467
0.931718061674009,5.093936853452244
0.9515418502202644,5.054045925765138
0.9713656387665199,5.029545380792266
0.9911894273127755,5.020758980618549
1.0110132158590308,5.0278053259035085
1.0308370044052866,5.050592246054166
1.0506607929515421,5.088821196244338
1.0704845814977975,5.142001158027562
1.090308370044053,5.209470499953257
1.1101321585903086,5.290424516091389
1.1299559471365639,5.38394603387366
1.1497797356828194,5.48903656770561
1.1696035242290752,5.6046458994457815
1.1894273127753305,5.729698551945925
1.209251101321586,5.863116248236471
1.2290748898678416,6.003836010473634
1.248898678414097,6.150823989224687
1.2687224669603525,6.30308540711003
1.288546255506608,6.459671163048522
1.3083700440528636,6.619681701770103
1.3281938325991192,6.782268739478265
1.3480176211453747,6.946635379243588
1.36784140969163,7.11203507135566
1.3876651982378856,7.277769790092571
1.4074889867841411,7.443187718854553
1.4273127753303965,7.607680665463497
1.4471365638766522,7.770681370634734
1.4669603524229078,7.931660825227038
1.4867841409691631,8.09012567485277
1.5066079295154187,8.245615762296216
1.5264317180616742,8.39770183735044
1.5462555066079295,8.54598344864145
1.5660792951541853,8.690087021455225
1.5859030837004409,8.829664118426567
1.6057268722466962,8.964389875313866
1.6255506607929517,9.09396160128448
1.6453744493392073,9.218097531644467
1.6651982378854626,9.336535720369469
1.6850220264317182,9.449033059835411
1.7048458149779737,9.555364415595083
1.7246696035242293,9.65532186474614
1.7444933920704848,9.748714027277428
1.7643171806167404,9.835365480690863
1.7841409691629957,9.915116249122725
1.8039647577092512,9.987821359099584
1.8237885462555068,10.053350454939535
1.8436123348017623,10.111587467637463
1.863436123348018,10.162430331849169
1.8832599118942732,10.205790746311948
1.9030837004405288,10.241593973711716
1.9229074889867843,10.26977867663129
1.9427312775330399,10.290296786797926
1.9625550660792954,10.303113405395436
1.982378854625551,10.308206732723045
2.002202643171806,10.305568025977307
2.0220264317180616,10.29520158440992
2.041850220264317,10.277124761580566
2.061674008810573,10.2513680048869
2.0814977973568287,10.217974923017685
2.1013215859030843,10.177002382450572
2.1211453744493394,10.128520634604591
2.140969162995595,10.072613475770222
2.1607929515418505,10.00937844248005
2.180616740088106,9.938927045558705
2.2004405286343616,9.861385046706781
2.220264317180617,9.776892782136418
2.2400881057268722,9.685605538488675
2.2599118942731278,9.587693987029096
2.2797356828193833,9.483344682936583
2.299559471365639,9.3727606373696
2.319383259911895,9.256161970900676
2.3392070484581504,9.133786657840695
2.3590308370044055,9.005891371896084
2.378854625550661,8.872752444470148
2.3986784140969166,8.734666947665906
2.418502202643172,8.59195391457135
2.4383259911894277,8.444955709566807
2.4581497797356833,8.294039560989768
2.4779735682819384,8.139599267251558
2.497797356828194,7.982057085051497
2.5176211453744495,7.821865804185154
2.537444933920705,7.659511006945397
2.5572687224669606,7.49551350043872
2.577092511013216,7.330431896242732
2.5969162995594717,7.164865292453574
2.6167400881057272,6.999455986848205
2.6365638766519828,6.834892115028349
2.6563876651982383,6.671910062474876
2.676211453744494,6.511296443248002
2.6960352422907494,6.353889370338589
2.715859030837005,6.200578664837256
2.73568281938326,6.052304567390094
2.7555066079295156,5.910054434321401
2.775330396475771,5.774856836460848
2.7951541850220267,5.647772451986033
2.8149779735682823,5.529881182919363
2.834801762114538,5.422265059777034
2.854625550660793,5.325986759617684
2.874449339207049,5.242063966184786
2.8942731277533045,5.171440337430434
2.91409691629956,5.114954466044602
2.9339207048458156,5.073308826896902
2.953744493392071,5.047041167739157
2.9735682819383262,5.0365009727325365
2.993392070484582,5.041833404400061
3.0132158590308373,5.062972482990041
3.033039647577093,5.099644277052773
3.0528634361233484,5.151379737961573
3.072687224669604,5.217535744794858
3.092511013215859,5.297322141855493
3.1123348017621146,5.389832172182783
3.1321585903083706,5.494073749258078
3.151982378854626,5.608999382614699
3.1718061674008817,5.733533144969401
3.1916299559471373,5.866593697324817
3.2114537444933924,6.007112962891418
3.231277533039648,6.154050494719203
3.2511013215859035,6.306403893080705
3.270925110132159,6.463215805881159
3.2907488986784146,6.623578114907806
3.31057268722467,6.786633904165986
3.3303964757709252,6.951577753196422
3.350220264317181,7.117654821447414
3.3700440528634363,7.284159105954985
3.389867841409692,7.450431174103676
3.4096916299559474,7.615855601699566
3.4295154185022034,7.779858286286231
3.4493392070484585,7.9419037568036455
3.469162995594714,8.101492562407262
3.4889867841409696,8.258158794075568
3.508810572687225,8.411467770943773
3.5286343612334807,8.561013907592061
3.5484581497797363,8.706418767449545
3.5682819383259914,8.847329299934323
3.588105726872247,8.983416254031384
3.6079295154185025,9.114372758006011
3.627753303964758,9.23991305331498
3.6475770925110136,9.359771370100438
3.667400881057269,9.473700931627253
3.6872246696035247,9.581473075429027
3.7070484581497802,9.68287647960188
3.726872246696036,9.777716483513375
3.7466960352422913,9.865814493098979
3.7665198237885464,9.94700746184543
3.7863436123348024,10.021147439476158
3.8061674008810575,10.088101181234874
3.8259911894273135,10.14774981149916
3.8458149779735686,10.199988536239642
3.8656387665198246,10.244726399570647
3.8854625550660797,10.281886080318356
3.905286343612335,10.31140372516342
3.925110132158591,10.333228815505707
3.9449339207048464,10.347324065750184
3.964757709251102,10.353665351236344
3.9845814977973575,10.352241664530396
4.004405286343612,10.34305509928034
4.024229074889869,10.326120861303082
4.044052863436123,10.30146730703684
4.06387665198238,10.26913600995924
4.083700440528634,10.229181856045754
4.103524229074891,10.181673169833628
4.123348017621146,10.126691873168005
4.143171806167401,10.064333679246584
4.162995594713657,9.99470832515312
4.182819383259912,9.917939846685238
4.2026431718061685,9.834166899941815
4.222466960352423,9.743543134846217
4.242290748898679,9.64623762654582
4.262114537444934,9.542435371445357
4.28193832599119,9.432337855499116
4.301762114537445,9.316163703296402
4.321585903083701,9.194149417407056
4.3414096916299565,9.06655021838425
4.361233480176212,8.933640996702607
4.381057268722468,8.795717388678197
4.400881057268723,8.653096988973825
4.420704845814979,8.50612071250305
4.440528634361234,8.355154318215268
4.46035242290749,8.200590106108121
4.4801762114537445,8.042848796511366
4.500000000000001,7.882381596738447
4.5198237885462555,7.719672453976277
4.539647577092512,7.555240483969066
4.559471365638767,7.3896425516267605
4.579295154185023,7.223475960911644
4.599118942731278,7.057381185777117
4.618942731277533,6.892044539963483
4.63876651982379,6.728200639527672
4.658590308370044,6.566634456853754
4.678414096916301,6.408182698139892
4.6982378854625555,6.253734159174585
4.718061674008811,6.10422863048127
4.737885462555067,5.960653840568286
4.757709251101322,5.8240398585510365
4.777533039647578,5.695450344965528
4.797356828193833,5.575970069029699
4.817180616740089,5.466688233288977
4.837004405286344,5.368677392664119
4.856828193832599,5.282968143369504
4.876651982378855,5.210520282187846
4.896475770925111,5.152191753742112
4.9162995594713665,5.108707321866731
4.936123348017622,5.080629390055326
4.955947136563877,5.068333610421526
4.975770925110133,5.071991745643591
4.995594713656388,5.09156364679076
5.015418502202644,5.12679925300798
5.035242290748899,5.177250380400065
5.055066079295155,5.242290976395288
5.07488986784141,5.321143686836649
5.094713656387666,5.412910151646239
5.114537444933921,5.516602436787884
5.134361233480177,5.63117335157257
5.154185022026432,5.7555439581697145
5.174008810572688,5.8886272110290685
5.193832599118943,6.02934725128092
5.213656387665199,6.176654353317179
5.2334801762114544,6.32953585033818
5.25330396475771,6.487023558631288
5.2731277533039655,6.6481983016285735
5.292951541850221,6.812192135893583
5.312775330396477,6.978188832048569
5.332599118942731,7.145423088478501
5.352422907488988,7.3131788717734425
5.372246696035242,7.480787196348594
5.392070484581499,7.647623582632702
5.4118942731277535,7.813105371282929
5.43171806167401,7.976689020502127
5.451541850220265,8.13786747388192
5.47136563876652,8.29616765585629
5.491189427312777,8.451148129231063
5.511013215859031,8.602396932813663
5.530837004405288,8.749529605541218
5.550660792951542,8.892187395542413
5.570484581497798,9.030035647341094
5.5903083700440535,9.162762357180862
5.610132158590309,9.290076884657429
5.6299559471365646,9.411708808059846
5.64977973568282,9.527406910724537
5.669603524229076,9.636938286065812
5.689427312775331,9.74008754959262
5.709251101321586,9.836656147037047
5.729074889867842,9.926461748619559
5.748898678414098,10.009337720405385
5.768722466960353,10.085132664627132
5.788546255506609,10.153710021737696
5.808370044052864,10.214947727802462
5.82819383259912,10.268737921632503
5.848017621145375,10.314986696800883
5.867841409691631,10.353613894372895
5.887665198237886,10.384552932821029
5.907488986784142,10.407750672193618
5.927312775330397,10.423167310164983
5.9471365638766525,10.430776308124347
5.966960352422908,10.4305643459635
5.986784140969164,10.42253130470908
6.00660792951542,10.406690276618113
6.026431718061675,10.383067602823886
6.04625550660793,10.351702939088462
6.066079295154186,10.312649350695658
6.085903083700441,10.265973438009878
6.105726872246697,10.21175549473961
6.125550660792952,10.150089701484447
6.145374449339208,10.081084357719874
6.1651982378854635,10.004862155988132
6.185022026431718,9.921560502724592
6.204845814977975,9.831331890859413
6.224669603524229,9.734344330098617
6.244493392070486,9.630781841606973
6.264317180616741,9.520845024683688
6.284140969162996,9.404751703934673
6.303964757709252,9.282737666383415
6.323788546255507,9.155057498900911
6.3436123348017635,9.021985537231753
6.363436123348018,8.883816938681795
6.3832599118942746,8.740868891123089
6.403083700440529,8.593481971226737
6.422907488986785,8.442021664569573
6.44273127753304,8.286880059216445
6.462555066079296,8.128477722204325
6.482378854625551,7.967265764581038
6.502202643171807,7.803728094657184
6.5220264317180625,7.6383838501236765
6.541850220264318,7.471789986660951
6.561674008810574,7.304543982395565
6.581497797356829,7.137286592605916
6.601321585903085,6.970704555853015
6.62114537444934,6.805533109623724
6.640969162995596,6.642558119316292
6.6607929515418505,6.482617558430335
6.680616740088107,6.326602001123219
6.700440528634362,6.175453704412448
6.720264317180618,6.030163773719359
6.740088105726873,5.891766835051201
6.759911894273129,5.761332599420085
6.779735682819384,5.639953726433575
6.799559471365639,5.528729505611253
6.819383259911895,5.428745106751634
6.83920704845815,5.341046525514519
6.859030837004407,5.266611864920664
6.8788546255506615,5.206320207873149
6.898678414096917,5.160919963924674
6.918502202643173,5.130999087313974
6.938325991189428,5.11695981680521
6.958149779735684,5.1190004596271175
6.977973568281939,5.1371061836110785
6.997797356828195,5.171049852332413
7.01762114537445,5.220402802238339
7.037444933920705,5.284554345878138
7.0572687224669615,5.362737912333444
7.077092511013216,5.454061252483859
7.096916299559473,5.557538081519249
7.116740088105728,5.672118839749904
7.136563876651983,5.796718796006807
7.156387665198239,5.930242350546913
7.176211453744494,6.071602994842773
7.19603524229075,6.219738876304058
7.215859030837005,6.373624264595601
7.235682819383261,6.532277425560049
7.255506607929516,6.694765502296873
7.275330396475772,6.860207012087235
7.295154185022027,7.02777252313935
7.314977973568283,7.196684001677166
7.334801762114538,7.366213235943918
7.354625550660794,7.535679661045037
7.374449339207049,7.704447833883326
7.394273127753305,7.871924743750737
7.4140969162995605,8.03755709208711
7.433920704845816,8.200828633786562
7.453744493392072,8.36125764085348
7.473568281938327,8.51839452558561
7.493392070484583,8.671819643232585
7.513215859030838,8.821141281844717
7.533039647577093,8.965993838610846
7.552863436123348,9.106036176420165
7.572687224669605,9.240950150914625
7.59251101321586,9.370439296334702
7.612334801762115,9.494227657560206
7.6321585903083715,9.61205875557281
7.651982378854627,9.723694673878935
7.671806167400882,9.828915254049996
7.691629955947137,9.927517389338385
7.711453744493394,10.019314406224632
7.731277533039649,10.1041355246828
7.751101321585904,10.181825388879005
7.7709251101321595,10.252243660917205
7.790748898678416,10.315264671100817
7.81057268722467,10.370777118984655
7.830396475770926,10.418683820242158
7.850220264317182,10.458901495072514
7.870044052863436,10.49136059452379
7.889867841409693,10.516005161714013
7.909691629955948,10.532792725502054
7.929515418502204,10.541694224695402
7.9493392070484585,10.54269396139356
7.969162995594715,10.535789582557292
7.9889867841409705,10.520992089372681
8.008810572687224,10.49832587445269
8.02863436123348,10.467828787392527
8.048458149779737,10.429552229676867
8.068281938325994,10.383561280432053
8.088105726872246,10.329934855032825
8.107929515418503,10.268765899116598
8.12775330396476,10.20016162113548
8.147577092511014,10.124243767193631
8.167400881057269,10.041148942580337
8.187224669603525,9.951028985122777
8.207048458149782,9.85405139624903
8.226872246696036,9.750399836474006
8.246696035242293,9.640274692894124
8.266519823788547,9.523893727194922
8.286343612334802,9.401492813622239
8.306167400881058,9.27332677731797
8.325991189427315,9.13967034433272
8.345814977973568,9.000819215439137
8.365638766519824,8.857091276489813
8.38546255506608,8.708827958361642
8.405286343612337,8.556395759321777
8.42511013215859,8.4001879416862
8.444933920704846,8.240626412574708
8.464757709251103,8.078163794936815
8.484581497797357,7.9132856892218495
8.504405286343614,7.746513117310928
8.524229074889869,7.578405127624134
8.544052863436125,7.40956152245185
8.56387665198238,7.2406256440987535
8.583700440528636,7.072287123784084
8.60352422907489,6.9052844547950025
8.623348017621145,6.740407197779349
8.643171806167402,6.578497560637798
8.662995594713658,6.420451019023686
8.682819383259913,6.267215559246208
8.702643171806168,6.119789040475628
8.722466960352424,5.9792140999498145
8.74229074889868,5.846569982344911
8.762114537444935,5.722960688495874
8.78193832599119,5.6094989404131725
8.801762114537446,5.507285680568134
8.821585903083701,5.417385186406714
8.841409691629957,5.340796386721436
8.861233480176212,5.27842157920405
8.881057268722468,5.2310343863324
8.900881057268723,5.199249324308547
8.92070484581498,5.18349565007815
8.940528634361234,5.183998067122972
8.960352422907489,5.200766353216791
8.980176211453745,5.233595069805424
9.000000000000002,5.282073378928164
9.019823788546258,5.345603855170716
9.039647577092511,5.423428263912702
9.059471365638768,5.514657742435464
9.079295154185024,5.618304718710511
9.099118942731279,5.733314178969698
9.118942731277533,5.858592424013061
9.13876651982379,5.9930320888490005
9.158590308370046,6.135532814185663
9.1784140969163,6.285017467971958
9.198237885462555,6.4404441833576
9.218061674008812,6.6008147056230255
9.237885462555067,6.765179646805629
9.257709251101323,6.932641264155878
9.27753303964758,7.102354338371227
9.297356828193834,7.273525655826711
9.317180616740089,7.445412514920029
9.337004405286345,7.617320592761444
9.356828193832602,7.788601432009736
9.376651982378855,7.95864974207775
9.396475770925111,8.126900655081553
9.416299559471367,8.29282703419374
9.436123348017622,8.455936899152443
9.455947136563877,8.615771008978514
9.475770925110133,8.771900623877542
9.49559471365639,8.923925455423205
9.515418502202644,9.071471805215035
9.5352422907489,9.214190886283523
9.555066079295155,9.351757317789476
9.57488986784141,9.483867781421464
9.594713656387666,9.610239826869671
9.614537444933923,9.730610813500379
9.634361233480178,9.844736975616392
9.654185022026432,9.952392599279039
9.674008810572689,10.053369299456794
9.693832599118945,10.14747538715994
9.713656387665198,10.234535317157002
9.733480176211454,10.314389207806128
9.75330396475771,10.38689242544498
9.773127753303967,10.45191522665125
9.792951541850222,10.509342452503883
9.812775330396477,10.559073269740278
9.832599118942733,10.601020954416859
9.852422907488988,10.635112714343855
9.872246696035244,10.66128954718327
9.892070484581499,10.67950613167819
9.911894273127754,10.689730750028218
9.93171806167401,10.691945239945142
9.951541850220266,10.686144975422813
9.971365638766521,10.67233887574251
9.991189427312776,10.650549442714087
10.011013215859032,10.620812826634632
10.030837004405289,10.583178921933143
10.050660792951543,10.537711493970825
10.070484581497798,10.484488338988239
10.090308370044054,10.423601479739053
10.11013215859031,10.355157399932482
10.129955947136565,10.27927732122888
10.14977973568282,10.196097527201246
10.169603524229077,10.10576973939407
10.189427312775331,10.00846155138441
10.209251101321588,9.904356927578304
10.229074889867842,9.793656774357434
10.248898678414099,9.676579592118511
10.268722466960353,9.553362217706495
10.28854625550661,9.424260667706871
10.308370044052865,9.289551093993188
10.32819383259912,9.14953086376023
10.348017621145376,9.004519776924663
10.367841409691632,8.854861434112882
10.387665198237887,8.70092476830138
10.407488986784141,8.543105752279263
10.427312775330398,8.381829292124948
10.447136563876654,8.217551313375473
10.466960352422909,8.050761040915985
10.486784140969164,7.881983465050776
10.50660792951542,7.711781973753305
10.526431718061675,7.540761113519092
10.546255506607931,7.369569417133012
10.566079295154186,7.198902204408193
10.585903083700442,7.029504219917554
10.605726872246697,6.862171918499599
10.625550660792953,6.697755144127988
10.645374449339208,6.537157871214311
10.665198237885463,6.381337592587635
10.685022026431719,6.231302852002627
10.704845814977975,6.08810834304164
10.724669603524232,5.952846949227856
10.744493392070485,5.82663810763705
10.764317180616741,5.7106119714828125
10.784140969162998,5.605889058253173
10.803964757709252,5.5135554233314465
10.823788546255507,5.43463389814115
10.843612334801763,5.370052544730371
