Time (s),Filtered Signal
0.0,0.009681776646237147
0.033370165745856356,0.06069287020212137
0.06674033149171271,0.10233400095686322
0.10011049723756907,0.12829830764521896
0.13348066298342542,0.13656499116238532
0.16685082872928178,0.12739533411401482
0.20022099447513814,0.10007330074031272
0.2335911602209945,0.051316016929159845
0.26696132596685085,-0.02257427789261864
0.30033149171270723,-0.1203073811262305
0.33370165745856356,-0.2301432660507111
0.3670718232044199,-0.32855692255218505
0.4004419889502763,-0.38556805525809945
0.43381215469613266,-0.3756638010025719
0.467182320441989,-0.28967078198342905
0.5005524861878453,-0.1415631142535661
0.5339226519337017,0.03395800928295672
0.5672928176795581,0.19298745108978418
0.6006629834254145,0.29836667594572575
0.6340331491712707,0.3329879277191765
0.6674033149171271,0.30446914279342574
0.7007734806629835,0.23932502982788015
0.7341436464088398,0.16981604700391523
0.7675138121546962,0.12005811155997104
0.8008839779005525,0.09795944190602639
0.8342541436464089,0.09616147263222406
0.8676243093922653,0.10026492408917535
0.9009944751381216,0.0989108738997587
0.934364640883978,0.08977651738416861
0.9677348066298344,0.07842556708017659
1.0011049723756906,0.07147002079514232
1.0344751381215471,0.06897158712268438
1.0678453038674034,0.0613969507128553
1.1012154696132597,0.033544350807190974
1.1345856353591162,-0.02655884579353509
1.1679558011049724,-0.11905659371581809
1.201325966850829,-0.22936119597635216
1.2346961325966852,-0.3332070394841111
1.2680662983425415,-0.40732662043950224
1.301436464088398,-0.4400509390603845
1.3348066298342542,-0.4359839312431941
1.3681767955801105,-0.41207513765457043
1.401546961325967,-0.3871270840188069
1.4349171270718233,-0.37039931244433894
1.4682872928176796,-0.3555448230828812
1.501657458563536,-0.3233676659973591
1.5350276243093923,-0.2523017397251422
1.5683977900552488,-0.13145534153308466
1.601767955801105,0.030418212443034973
1.6351381215469614,0.20485778280755573
1.6685082872928179,0.3531754344386141
1.7018784530386741,0.44156116198432166
1.7352486187845306,0.4551445065997972
1.768618784530387,0.40467823328835667
1.8019889502762432,0.3227260167635203
1.8353591160220997,0.25083499858717245
1.868729281767956,0.22308677519283812
1.9020994475138122,0.2529441274440515
1.9354696132596687,0.328815310909594
1.968839779005525,0.4199230793191948
2.0022099447513813,0.4895924148169302
2.0355801104972375,0.5099604507696356
2.0689502762430942,0.4717734248046222
2.1023204419889505,0.3854994436665718
2.135690607734807,0.27418484227952855
2.169060773480663,0.16223271845591894
2.2024309392265193,0.06574130002219884
2.235801104972376,-0.011411224548915687
2.2691712707182323,-0.07496281752020735
2.3025414364640886,-0.13378173561633913
2.335911602209945,-0.19369288696100126
2.369281767955801,-0.25484300821082856
2.402651933701658,-0.3131764977949349
2.436022099447514,-0.3640143390438275
2.4693922651933704,-0.40478914999080456
2.5027624309392267,-0.4351063981710574
2.536132596685083,-0.45455308010918727
2.5695027624309392,-0.4604599339110888
2.602872928176796,-0.44792402733629844
2.636243093922652,-0.41276063394431156
2.6696132596685085,-0.3557956820228607
2.7029834254143648,-0.2855792666379487
2.736353591160221,-0.21716155710510066
2.7697237569060777,-0.16678242791986503
2.803093922651934,-0.1448741699337448
2.8364640883977903,-0.15108233195419138
2.8698342541436466,-0.17418952268247956
2.903204419889503,-0.19724770202597325
2.936574585635359,-0.20531897025105336
2.969944751381216,-0.1916807291476295
3.003314917127072,-0.15913819627852394
3.0366850828729284,-0.1158669543200737
3.0700552486187846,-0.06845714111948635
3.103425414364641,-0.01664124202842481
3.1367955801104976,0.04665341650337618
3.170165745856354,0.12951508657959857
3.20353591160221,0.23297582189553948
3.2369060773480665,0.34624480803747854
3.2702762430939227,0.44959154093397635
3.3036464088397794,0.5248290542952218
3.3370165745856357,0.5680652345569482
3.370386740331492,0.596467346331656
3.4037569060773483,0.6425887868136437
3.4371270718232045,0.7361848667230046
3.4704972375690613,0.8813616115272243
3.5038674033149175,1.0417916699895364
3.537237569060774,1.1450071515910591
3.57060773480663,1.1081804876476595
3.6039779005524863,0.8761455332315223
3.6373480662983426,0.4539856458549088
3.6707182320441993,-0.08331006390639249
3.7040883977900556,-0.6118260030667135
3.737458563535912,-1.0031521182388716
3.770828729281768,-1.1729969281975425
3.8041988950276244,-1.1121139459430442
3.837569060773481,-0.8860404413557327
3.8709392265193374,-0.6049105948619831
3.9043093922651937,-0.378017690208337
3.93767955801105,-0.2733954843300149
3.9710497237569062,-0.2985298886111758
4.0044198895027625,-0.40741235946048227
4.037790055248619,-0.5273346091599449
4.071160220994475,-0.5915618261469809
4.104530386740332,-0.5638737270952989
4.1379005524861885,-0.4468228023225485
4.171270718232044,-0.27375839972899474
4.204640883977901,-0.091159833414305
4.238011049723757,0.05982521665341915
4.271381215469614,0.15557087274542464
4.30475138121547,0.19303957624323725
4.338121546961326,0.1851076561459343
4.371491712707183,0.15204727221284084
4.404861878453039,0.11331969009466009
4.438232044198895,0.08240704163390869
4.471602209944752,0.06541614889773696
4.504972375690608,0.06262470023199491
4.538342541436465,0.0714475764240899
4.5717127071823205,0.08935460837297794
4.605082872928177,0.11569402342702759
4.638453038674034,0.15188447121857204
4.67182320441989,0.19996714186769196
4.7051933701657465,0.26008655979937684
4.738563535911602,0.328011859485427
4.771933701657459,0.3940526626752654
4.805303867403316,0.4443654080450486
4.8386740331491715,0.46464088250576185
4.872044198895028,0.44490596212819006
4.905414364640884,0.38336990493420336
4.938784530386741,0.287481700472159
4.972154696132597,0.17164274702661655
5.005524861878453,0.052661718973983175
5.03889502762431,-0.0549191731632336
5.072265193370166,-0.1416776637222853
5.105635359116023,-0.20364823542584898
5.1390055248618784,-0.2409269549683096
5.172375690607735,-0.25606320831669543
5.205745856353592,-0.2533125435075743
5.239116022099448,-0.2386280664464542
5.272486187845304,-0.21930606529680313
5.30585635359116,-0.20229635452567485
5.339226519337017,-0.19135754206264322
5.372596685082874,-0.18462526333814772
5.4059668508287295,-0.17461598418243368
5.439337016574586,-0.1516147873816122
5.472707182320442,-0.1092750827684821
5.506077348066299,-0.04943969952481561
5.5394475138121555,0.016969502586497247
5.572817679558011,0.07424808895123051
5.606187845303868,0.10962470673005063
5.639558011049724,0.12028133454833917
5.672928176795581,0.11545277407960684
5.706298342541437,0.11181250124707942
5.739668508287293,0.12408796303700559
5.77303867403315,0.15576924336503561
5.806408839779006,0.19512467875980127
5.839779005524862,0.21918080047854419
5.873149171270718,0.2041757841667547
5.906519337016575,0.1374866656321099
5.939889502762432,0.025068928161098184
5.9732596685082875,-0.1094220413252653
6.006629834254144,-0.23353890996679555
6.04,-0.3187417880097845
6.073370165745857,-0.3509247435448947
6.1067403314917135,-0.334137198647247
6.140110497237569,-0.2864313268713361
6.173480662983426,-0.23057369813304776
6.206850828729282,-0.18442571714097059
6.240220994475139,-0.15524950621779623
6.273591160220995,-0.1396525195028736
6.306961325966851,-0.12793963033542874
6.340331491712708,-0.1098604840982715
6.373701657458564,-0.07881821410527551
6.40707182320442,-0.03314277505692202
6.440441988950277,0.025071809856280727
6.473812154696133,0.09191498361584043
6.50718232044199,0.162842206580394
6.5405524861878455,0.23260475092161698
6.573922651933702,0.2946265977674843
6.607292817679559,0.34103089492066163
6.640662983425415,0.36406141786632695
6.674033149171271,0.3586124006199492
6.707403314917127,0.32469307039936446
6.740773480662984,0.26846480321529875
6.774143646408841,0.2010727472194831
6.8075138121546965,0.13548956557475453
6.840883977900553,0.08248550174547509
6.874254143646409,0.04724987226330938
6.907624309392266,0.02797563918698213
6.9409944751381225,0.016981887787270274
6.974364640883978,0.003969866748773942
7.007734806629835,-0.019835488537218778
7.041104972375691,-0.058263628135766674
7.074475138121548,-0.10879694553822161
7.107845303867403,-0.16363425956642236
7.14121546961326,-0.21262806945418156
7.174585635359117,-0.24676287887404552
7.207955801104973,-0.2607327026091659
7.241325966850829,-0.25372597579713735
7.274696132596685,-0.22843625060729258
7.308066298342542,-0.18912173221450665
7.341436464088399,-0.13985038988160367
7.3748066298342545,-0.08377990111652693
7.408176795580111,-0.023636366876778097
7.441546961325967,0.03714125377596395
7.474917127071824,0.09347777860711266
7.5082872928176805,0.1387063134455008
7.541657458563536,0.16579675180480594
7.575027624309393,0.16934468789630186
7.608397790055249,0.1474693514985133
7.641767955801106,0.10277024283526742
7.675138121546962,0.0419297317266715
7.708508287292818,-0.02580652931892673
7.741878453038675,-0.09055872032456799
7.775248618784531,-0.14341599207976277
7.808618784530387,-0.17740686383642326
7.841988950276244,-0.1880655761157335
7.8753591160221,-0.17402146263096607
7.908729281767957,-0.13771932081062357
7.9420994475138125,-0.08580404244110339
7.975469613259669,-0.028394853845094194
8.008839779005525,0.02319542628045624
8.042209944751383,0.059868351364585314
8.075580110497238,0.07796633141923906
8.108950276243094,0.08073692738977342
8.14232044198895,0.07706844075197157
8.175690607734808,0.07776847857318085
8.209060773480664,0.09086909004888803
8.24243093922652,0.11797680849928002
8.275801104972377,0.1532624617139277
8.309171270718233,0.18553033523429122
8.342541436464089,0.2024987787653593
8.375911602209946,0.19556399648550452
8.409281767955802,0.16322114069347238
8.442651933701658,0.11191438189647687
8.476022099447514,0.05405581440896495
8.509392265193371,0.003924200666088202
8.542762430939227,-0.027146805725690528
8.576132596685083,-0.03462744563776565
8.60950276243094,-0.022317698495671712
8.642872928176796,-0.0009558141780716648
8.676243093922652,0.015590477208774461
8.709613259668508,0.015097492494478443
8.742983425414366,-0.00909646649376752
8.776353591160222,-0.056410554271446346
8.809723756906077,-0.11990584434412369
8.843093922651935,-0.18893581030133658
8.87646408839779,-0.25216250806384133
8.909834254143647,-0.29975205504238217
8.943204419889504,-0.32438293813580227
8.97657458563536,-0.3215422149092965
9.009944751381216,-0.28986964018862377
9.043314917127072,-0.2318638124638932
9.07668508287293,-0.15445552367247367
9.110055248618785,-0.06845486845788924
9.143425414364641,0.01380471453207544
9.176795580110499,0.08222860099650348
9.210165745856354,0.13255386660724708
9.24353591160221,0.1677699179359379
9.276906077348068,0.19616386438974906
9.310276243093924,0.22652115685186255
9.34364640883978,0.26271389980884446
9.377016574585635,0.30051662122589035
9.410386740331493,0.3285313571438336
9.443756906077349,0.3330364854673703
9.477127071823205,0.3045208269528188
9.510497237569062,0.2427433903241341
9.543867403314918,0.15783953706752854
9.577237569060774,0.06688191568313842
9.610607734806631,-0.012574766116783475
9.643977900552487,-0.06908574222763815
9.677348066298343,-0.10114538944530407
9.710718232044199,-0.1166021699466485
9.744088397790057,-0.1279561623960056
9.777458563535912,-0.14567399869020708
9.810828729281768,-0.17261332016819664
9.844198895027626,-0.20225672525066848
9.877569060773482,-0.2217681266939416
9.910939226519337,-0.21856828105795853
9.944309392265193,-0.18727099377801842
9.97767955801105,-0.13344672574975525
10.011049723756907,-0.07213461456193264
10.044419889502763,-0.021656909282847414
10.07779005524862,0.004293888208684958
10.111160220994476,0.002475208137635148
10.144530386740332,-0.018827584741834217
10.17790055248619,-0.04366539767468274
10.211270718232045,-0.05513317455868456
10.244640883977901,-0.04184958495345464
10.278011049723757,-0.0017327821992850119
10.311381215469615,0.0578855956808494
10.34475138121547,0.12325444174817039
10.378121546961326,0.17884525435823068
10.411491712707184,0.21197033747865152
10.44486187845304,0.21599260857540073
10.478232044198895,0.19133407736186556
10.511602209944753,0.14425672086444735
10.544972375690609,0.08415344633753069
10.578342541436465,0.020559574631805275
10.61171270718232,-0.03898173652805744
10.645082872928178,-0.0896794214262548
10.678453038674034,-0.12913641294619696
10.71182320441989,-0.15657105269117316
10.745193370165747,-0.1721815495571161
10.778563535911603,-0.17673891975226985
10.811933701657459,-0.17116859182978691
10.845303867403315,-0.1560156909886548
10.878674033149172,-0.13111092084835446
10.912044198895028,-0.095965260108923
10.945414364640884,-0.05106807530166061
10.978784530386742,0.0005046189472447282
11.012154696132598,0.052356899925598166
11.045524861878453,0.09593511608272115
11.078895027624311,0.1235958312513074
11.112265193370167,0.1322792129558311
11.145635359116023,0.12573793311245432
11.179005524861878,0.1136937416106079
11.212375690607736,0.10780628506698495
11.245745856353592,0.11614876799937088
11.279116022099448,0.13892722089378629
11.312486187845305,0.167763340187903
11.345856353591161,0.1891234048112911
11.379226519337017,0.19034224248031417
11.412596685082875,0.16533816532957954
11.44596685082873,0.1172798433282462
11.479337016574586,0.05703424303836384
11.512707182320442,-0.0016727759743245434
11.5460773480663,-0.04792290681002372
11.579447513812156,-0.07742525499446276
11.612817679558011,-0.09293050612428408
11.646187845303869,-0.10145667992321725
11.679558011049725,-0.11004138712825898
11.71292817679558,-0.12224749695939102
11.746298342541436,-0.13702786079111634
11.779668508287294,-0.15021135641719596
11.81303867403315,-0.1575159644480236
11.846408839779006,-0.1572833330835589
11.879779005524863,-0.15138315059204469
11.91314917127072,-0.1437990062681579
11.946519337016575,-0.1377214802844355
11.979889502762433,-0.1328506023231608
12.013259668508288,-0.12458254366585271
12.046629834254144,-0.10582006248422476
12.08,-0.07075976589779132
12.113370165745858,-0.018865387540609554
12.146740331491714,0.04306525529725636
12.18011049723757,0.10207912290064504
12.213480662983427,0.14333094490465145
12.246850828729283,0.1557302997802597
12.280220994475139,0.1364785941192454
12.313591160220996,0.09239866099174474
12.346961325966852,0.037403751278047535
12.380331491712708,-0.012746552146857057
12.413701657458564,-0.04600060959047715
12.447071823204421,-0.057418579655900914
12.480441988950277,-0.049151057916806226
12.513812154696133,-0.02752683629553626
12.54718232044199,0.0007713228046392005
12.580552486187846,0.031202349792309566
12.613922651933702,0.06136591553181731
12.64729281767956,0.08908327640783423
12.680662983425416,0.11044642772768948
12.714033149171271,0.1197250810003789
12.747403314917127,0.11169432779355548
12.780773480662985,0.08516386807413236
12.81414364640884,0.0454519901920922
12.847513812154697,0.003958116425754569
12.880883977900554,-0.0254168924168588
12.91425414364641,-0.03148842217710086
12.947624309392266,-0.010247420446865352
12.980994475138122,0.03341091692098086
13.01436464088398,0.08730755693095521
13.047734806629835,0.1361010892428191
13.081104972375691,0.16618866499687837
13.114475138121549,0.16963086908041458
13.147845303867404,0.14595420376857668
13.18121546961326,0.10154761615785937
13.214585635359118,0.047143560328610085
13.247955801104974,-0.005638378672244166
13.28132596685083,-0.04757459612590466
13.314696132596685,-0.07403206458148577
13.348066298342543,-0.08557958508610393
13.381436464088399,-0.08701654675327321
13.414806629834255,-0.08525098156740979
13.448176795580112,-0.0867411772855794
13.481546961325968,-0.09531739978070441
13.514917127071824,-0.11110303312832465
13.548287292817681,-0.13093724909089088
13.581657458563537,-0.15018587701239292
13.615027624309393,-0.16523607000245663
13.648397790055249,-0.17553366230531853
13.681767955801106,-0.1840025385553068
13.715138121546962,-0.19524478050499885
13.748508287292818,-0.2119773966050019
13.781878453038676,-0.2313141970344276
13.815248618784532,-0.243113080358022
13.848618784530387,-0.2321118603258306
13.881988950276245,-0.18389193485291885
13.9153591160221,-0.09250579098922984
13.948729281767957,0.033904358553420035
13.982099447513813,0.17289020511742087
14.01546961325967,0.29400552427889176
14.048839779005526,0.3695046266045188
14.082209944751382,0.38481522053281464
14.11558011049724,0.34394452987306035
14.148950276243095,0.26726273440533477
14.182320441988951,0.18273049186154822
14.215690607734807,0.11468916835053815
14.249060773480664,0.07527497880143393
14.28243093922652,0.06199276630113375
14.315801104972376,0.06189837694231797
14.349171270718234,0.05978255262296043
14.38254143646409,0.0461558699543186
14.415911602209945,0.02131805742416488
14.449281767955803,-0.006041510078883696
14.482651933701659,-0.024549909606211208
14.516022099447515,-0.02702140707920389
14.54939226519337,-0.014968987827357852
14.582762430939228,0.001468905011104591
14.616132596685084,0.008119242800634228
14.64950276243094,-0.006368106379853539
14.682872928176797,-0.04471385007535162
14.716243093922653,-0.09905085121595351
14.749613259668509,-0.15376772091937538
14.782983425414367,-0.19182060253449146
14.816353591160222,-0.2015487607886478
14.849723756906078,-0.18086063291890908
14.883093922651934,-0.13703503325902186
14.916464088397792,-0.0825918322060361
14.949834254143648,-0.02956736955630678
14.983204419889503,0.014895393107191417
15.016574585635361,0.049716654698545235
15.049944751381217,0.0778197914951029
15.083314917127073,0.10261415948036315
15.116685082872928,0.12538041210694129
15.150055248618786,0.1450321232397944
15.183425414364642,0.15996328598178017
15.216795580110498,0.17019667407225128
15.250165745856355,0.177821411261421
15.283535911602211,0.18494482461951442
15.316906077348067,0.19030279801226582
15.350276243093925,0.18698384347673155
15.38364640883978,0.16346505264484892
15.417016574585636,0.10835936880050769
15.450386740331492,0.016959924693961993
15.48375690607735,-0.10377048130865428
15.517127071823205,-0.23477164685488275
15.550497237569061,-0.3499969877851818
15.583867403314919,-0.42534486242820274
15.617237569060775,-0.4476949381897232
15.65060773480663,-0.42003504662826247
15.683977900552488,-0.3602218188987405
15.717348066298344,-0.29362172176282264
15.7507182320442,-0.2425236997459007
15.784088397790056,-0.21666909701139606
15.817458563535913,-0.2089173510218906
15.85082872928177,-0.1980882869324836
15.884198895027625,-0.1581423701674163
15.917569060773483,-0.0701695657216834
15.950939226519338,0.06775456589243398
15.984309392265194,0.2372097020251179
16.01767955801105,0.4044008950235403
16.051049723756908,0.5317511303196827
16.084419889502765,0.5914425935384847
16.11779005524862,0.5752994726694727
16.151160220994477,0.49701316519879807
16.18453038674033,0.38607970308418493
16.21790055248619,0.2763101856541096
16.251270718232046,0.19379355027733391
16.2846408839779,0.14897454819806943
16.318011049723758,0.13538832332460174
16.351381215469615,0.13469363981357294
16.38475138121547,0.1252824706529222
16.418121546961327,0.09080567881961955
16.451491712707185,0.025581797040262668
16.48486187845304,-0.06449399168593477
16.518232044198896,-0.16509237302973745
16.551602209944754,-0.2588893169083606
16.584972375690608,-0.3310932388620727
16.618342541436466,-0.3732069878497952
16.651712707182323,-0.3840764415181264
16.685082872928177,-0.3683783662595355
16.718453038674035,-0.3336264069522331
16.751823204419892,-0.28720175659630126
16.785193370165747,-0.2346737072315674
16.818563535911604,-0.179859812992791
16.851933701657458,-0.12606857144585343
16.885303867403316,-0.07729972538779274
16.918674033149173,-0.038249564371068995
16.952044198895027,-0.012783746549703852
16.985414364640885,-0.0016375389760423353
17.018784530386743,-0.0008001638303209677
17.052154696132597,-0.0018623055939173273
17.085524861878454,0.00538556178647704
17.118895027624312,0.029054329280839036
17.152265193370166,0.07168126029870356
