Frequency (Hz),Amplitude
0.0,1.1522017667332216
0.019801980198019802,1.1556306122322506
0.039603960396039604,1.1658433480323929
0.0594059405940594,1.1826249735434948
0.07920792079207921,1.205637199761989
0.09900990099009901,1.2344444437432194
0.1188118811881188,1.2685434655504984
0.13861386138613863,1.3073924422911816
0.15841584158415842,1.3504363918121438
0.1782178217821782,1.3971272918615192
0.19801980198019803,1.446938515270945
0.21782178217821782,1.4993740772074717
0.2376237623762376,1.5539736401987276
0.25742574257425743,1.6103143415948566
0.27722772277227725,1.66801042460954
0.297029702970297,1.726711477281599
0.31683168316831684,1.7860998864132673
0.33663366336633666,1.8458879349513084
0.3564356435643564,1.9058148269571138
0.37623762376237624,1.965643816158574
0.39603960396039606,2.025159537540512
0.4158415841584158,2.0841655898657576
0.43564356435643564,2.1424823839198757
0.45544554455445546,2.199945251179744
0.4752475247524752,2.256402796315513
0.495049504950495,2.3117154713873265
0.5148514851485149,2.365754347651148
0.5346534653465347,2.4184000610956113
0.5544554455445545,2.4695419092411997
0.5742574257425742,2.519077078737033
0.594059405940594,2.566909985514867
0.613861386138614,2.612951711481584
0.6336633663366337,2.657119523828114
0.6534653465346534,2.699336464944073
0.6732673267326733,2.7395310026300854
0.6930693069306931,2.7776367317928936
0.7128712871287128,2.8135921201055787
0.7326732673267327,2.8473402912317147
0.7524752475247525,2.878828840171051
0.7722772277227723,2.908009676103081
0.7920792079207921,2.934838888804802
0.8118811881188118,2.959276635315704
0.8316831683168316,2.981287044033462
0.8514851485148516,3.000838133861066
0.8712871287128713,3.017901746401042
0.891089108910891,3.032453489516892
0.9108910891089109,3.044472690863239
0.9306930693069307,3.0539423602322304
0.9504950495049505,3.06084915978196
0.9702970297029703,3.065183381406895
0.99009900990099,3.066938930686996
1.00990099009901,3.0661133170160415
1.0297029702970297,3.06270764966184
1.0495049504950495,3.0567266396602983
1.0693069306930694,3.0481786075888517
1.0891089108910892,3.037075497412584
1.108910891089109,3.0234328967464243
1.1287128712871286,3.0072700640369274
1.1485148514851484,2.9886099633371135
1.1683168316831685,2.9674793075379693
1.188118811881188,2.9439086111267345
1.2079207920792079,2.917932253779442
1.227722772277228,2.889588556362928
1.2475247524752475,2.8589198712294452
1.2673267326732673,2.825972689044121
1.2871287128712872,2.790797764799298
1.3069306930693068,2.753450266153708
1.3267326732673268,2.713989947799448
1.3465346534653466,2.6724813562227725
1.3663366336633662,2.6289940700005405
1.3861386138613863,2.583602981683347
1.405940594059406,2.5363886283774835
1.4257425742574257,2.487437579373001
1.4455445544554455,2.4368428905923074
1.4653465346534653,2.384704637268933
1.4851485148514851,2.3311305381143494
1.504950495049505,2.27623668627953
1.5247524752475248,2.220148404622951
1.5445544554455446,2.1630012450630014
1.5643564356435644,2.104942153938253
1.5841584158415842,2.0461308270147716
1.6039603960396038,1.9867412785516754
1.6237623762376237,1.9269636478519714
1.6435643564356437,1.8670062627349924
1.6633663366336633,1.8070979704970345
1.683168316831683,1.7474907304640355
1.7029702970297032,1.688462434395294
1.7227722772277227,1.630319876721864
1.7425742574257426,1.5734017296571545
1.7623762376237624,1.5180812817478986
1.782178217821782,1.4647685666565917
1.801980198019802,1.4139113406704762
1.8217821782178218,1.3659941721633782
1.8415841584158414,1.3215347134883413
1.8613861386138615,1.281076095677016
1.881188118811881,1.2451744164032685
1.900990099009901,1.2143806086068685
1.920792079207921,1.1892166982195411
1.9405940594059405,1.1701476145660041
1.9603960396039604,1.1575511496890167
1.98019801980198,1.1516899726836567
2.0,1.152690224219909
2.01980198019802,1.1605306617083067
2.0396039603960396,1.1750445241710523
2.0594059405940595,1.1959337363406768
2.0792079207920793,1.2227926563743434
2.099009900990099,1.2551371025191138
2.118811881188119,1.2924342078367619
2.1386138613861387,1.3341295291786133
2.1584158415841586,1.379669235696492
2.1782178217821784,1.428516585095596
2.1980198019801978,1.4801629320712286
2.217821782178218,1.5341341094205814
2.237623762376238,1.589993243237492
2.257425742574257,1.6473410355721463
2.2772277227722775,1.7058143915722395
2.297029702970297,1.7650840700921733
2.3168316831683167,1.8248518473519413
2.336633663366337,1.8848475251118488
2.3564356435643563,1.9448259936449843
2.376237623762376,2.0045644725100806
2.3960396039603964,2.0638599924017815
2.4158415841584158,2.122527142399596
2.4356435643564356,2.180396082823829
2.455445544554456,2.237310809962741
2.4752475247524752,2.2931276517027532
2.495049504950495,2.347713970124615
2.514851485148515,2.4009470467530427
2.5346534653465347,2.4527131272561653
2.5544554455445545,2.5029066042703074
2.5742574257425743,2.5514293192290687
2.594059405940594,2.5981899663370753
2.6138613861386135,2.6431035839945576
2.633663366336634,2.6860911209716942
2.6534653465346536,2.72707906641845
2.673267326732673,2.7659991343688057
2.6930693069306932,2.8027879947681122
2.712871287128713,2.837387044234753
2.7326732673267324,2.8697422107822232
2.7524752475247527,2.8998037875958937
2.7722772277227725,2.927526291700943
2.792079207920792,2.9528683439894783
2.811881188118812,2.9757925676163355
2.8316831683168315,2.9962655022343836
2.8514851485148514,3.01425753193696
2.8712871287128716,3.0297428251165366
2.891089108910891,3.0426992847444807
2.910891089108911,3.053108507834902
2.9306930693069306,3.060955753082921
2.9504950495049505,3.066229915869687
2.9702970297029703,3.0689235100092844
2.99009900990099,3.069032655779922
3.00990099009901,3.0665570739382355
3.0297029702970297,3.0615000855647105
3.0495049504950495,3.053868617733901
3.0693069306930694,3.0436732151486043
3.089108910891089,3.0309280580259896
3.108910891089109,3.0156509866796295
3.128712871287129,2.9978635334078425
3.148514851485148,2.9775909624804227
3.1683168316831685,2.954862319216681
3.1881188118811883,2.9297104893733827
3.2079207920792077,2.9021722703174935
3.227722772277228,2.8722884557521797
3.2475247524752473,2.8401039361034996
3.267326732673267,2.805667817069079
3.2871287128712874,2.769033559288732
3.3069306930693068,2.730259142634189
3.3267326732673266,2.6894072592441987
3.346534653465347,2.646545540169006
3.366336633663366,2.601746821353764
3.386138613861386,2.555089455702769
3.4059405940594063,2.506657679147856
3.4257425742574257,2.4565420400158864
3.4455445544554455,2.404839902569333
3.4653465346534653,2.3516560373933055
3.485148514851485,2.2971033133177827
3.504950495049505,2.241303507768232
3.5247524752475248,2.1843882547598166
3.5445544554455446,2.126500152048496
3.564356435643564,2.06779405097423
3.5841584158415842,2.008438553851136
3.603960396039604,1.9486177436901033
3.6237623762376234,1.8885331685072388
3.6435643564356437,1.8284060958471011
3.6633663366336635,1.768480040032735
3.683168316831683,1.7090235416282962
3.702970297029703,1.6503331410051356
3.722772277227723,1.5927364297624655
3.7425742574257423,1.5365949780979702
3.762376237623762,1.4823068162765813
3.7821782178217824,1.4303079902748628
3.801980198019802,1.3810725198078047
3.8217821782178216,1.335109882099118
3.841584158415842,1.2929589751817103
3.8613861386138613,1.2551774656397412
3.881188118811881,1.2223256195448633
3.9009900990099013,1.1949442845988492
3.9207920792079207,1.173527714229896
3.9405940594059405,1.158493324062632
3.96039603960396,1.1501519292872606
3.98019801980198,1.1486829837638157
4.0,1.154119255273758
4.01980198019802,1.1663439593972702
4.03960396039604,1.1851009387971734
4.0594059405940595,1.2100158306730675
4.079207920792079,1.2406242386756425
4.099009900990099,1.2764022700188367
4.118811881188119,1.3167953743564145
4.138613861386139,1.361242744237414
4.158415841584159,1.4091960159217274
4.178217821782178,1.4601322166316542
4.198019801980198,1.5135616660829287
4.217821782178218,1.5690318809143244
4.237623762376238,1.6261285700127692
4.257425742574258,1.6844746785411224
4.2772277227722775,1.743728241061041
4.297029702970297,1.8035796028942637
4.316831683168317,1.8637483950270741
4.336633663366336,1.923980511666988
4.356435643564357,1.9840452398875572
4.376237623762377,2.0437326216863596
4.3960396039603955,2.1028510831340044
4.415841584158416,2.161225336629618
4.435643564356436,2.2186945453696922
4.455445544554455,2.275110730054352
4.475247524752476,2.330337393791229
4.4950495049504955,2.384248340179421
4.514851485148514,2.4367266603746955
4.534653465346535,2.4876638667169706
4.554455445544555,2.536959152715247
4.574257425742574,2.58451876151674
4.594059405940594,2.6302554472511814
4.613861386138614,2.6740880157417375
4.633663366336633,2.715940932966038
4.653465346534653,2.755743991322665
4.673267326732674,2.7934320252165494
4.693069306930693,2.828944668736328
4.712871287128713,2.8622261492789196
4.732673267326733,2.893225111901944
4.752475247524752,2.9218944699744167
4.772277227722772,2.9481912783697877
4.792079207920793,2.972076626019654
4.811881188118812,2.9935155451370368
4.8316831683168315,3.0124769348382583
4.851485148514852,3.028933497253553
4.871287128712871,3.0428616845282175
4.891089108910891,3.054241655387495
4.910891089108912,3.063057240176198
4.930693069306931,3.069295913494509
4.9504950495049505,3.072948773740806
4.97029702970297,3.074010529044374
4.99009900990099,3.0724794892306666
5.00990099009901,3.0683575636131506
5.02970297029703,3.0616502645518624
5.0495049504950495,3.0523667168638964
5.069306930693069,3.0405196733181508
5.089108910891089,3.02612553659933
5.108910891089109,3.0092043882883646
5.128712871287129,2.9897800255821014
5.148514851485149,2.9678800066683624
5.1683168316831685,2.9435357058889804
5.188118811881188,2.916782380068121
5.207920792079208,2.8876592476631244
5.227722772277227,2.856209582718008
5.247524752475248,2.8224808259736913
5.267326732673268,2.7865247159257587
5.2871287128712865,2.7483974431306204
5.306930693069307,2.70815983165979
5.326732673267327,2.6658775523046523
5.346534653465346,2.6216213729599356
5.366336633663367,2.575467452582546
5.3861386138613865,2.5274976862568685
5.405940594059405,2.4778001102195617
5.425742574257426,2.4264693772291275
5.445544554455446,2.3736073144246976
5.465346534653465,2.319323577810519
5.485148514851486,2.2637364197167487
5.504950495049505,2.206973587973034
5.524752475247524,2.1491733779871036
5.544554455445545,2.0904858612452535
5.564356435643565,2.03107431560151
5.584158415841584,1.9711168835262243
5.603960396039604,1.9108084833334626
5.623762376237624,1.8503629938934827
5.643564356435643,1.7900157233550305
5.663366336633663,1.7300261538867907
5.683168316831684,1.6706809231161261
5.702970297029703,1.6122969531063727
5.7227722772277225,1.5552245623736072
5.742574257425743,1.499850288050273
5.762376237623762,1.4465989978150653
5.782178217821782,1.3959346843632412
5.801980198019803,1.348359121907053
5.821782178217822,1.304407361323772
5.841584158415841,1.264638920768612
5.861386138613861,1.229623606186702
5.881188118811881,1.1999213132285629
5.900990099009901,1.176056037097282
5.920792079207921,1.1584856497372877
5.9405940594059405,1.1475705666731535
5.96039603960396,1.1435457226396426
5.98019801980198,1.146500671992988
6.0,1.1563716746291681
6.01980198019802,1.17294739681653
6.03960396039604,1.1958870449234886
6.0594059405940595,1.2247473621258023
6.079207920792079,1.2590137312977239
6.099009900990099,1.2981308229854618
6.118811881188119,1.341529419537457
6.138613861386139,1.3886476055149282
6.158415841584159,1.4389459074427544
6.178217821782178,1.4919169205016893
6.198019801980198,1.547090445457009
6.217821782178218,1.604035282490313
6.237623762376237,1.6623587324555456
6.257425742574258,1.721704660964195
6.2772277227722775,1.781750765984629
6.297029702970296,1.8422054972389703
6.316831683168317,1.902804921625916
6.336633663366337,1.9633097144910614
6.356435643564356,2.023502376357389
6.376237623762377,2.08318472123819
6.396039603960396,2.1421756487225427
6.415841584158415,2.2003091917347204
6.435643564356436,2.2574328207203433
6.455445544554456,2.313405979761845
6.475247524752475,2.3680988285263966
6.495049504950495,2.4213911644984782
6.514851485148515,2.4731715016669438
6.534653465346534,2.523336284105801
6.554455445544554,2.571789215332962
6.574257425742575,2.6184406867340044
6.594059405940594,2.6632072905803184
6.6138613861386135,2.706011405198311
6.633663366336634,2.746780841641097
6.653465346534653,2.785448542780148
6.673267326732673,2.8219523270879847
6.693069306930694,2.856234670545008
6.712871287128713,2.8882425210964513
6.732673267326732,2.9179271409322203
6.752475247524753,2.9452439725831323
6.772277227722772,2.970152525440894
6.792079207920792,2.992616279832192
6.811881188118813,3.012602606224603
6.8316831683168315,3.0300826975248225
6.851485148514851,3.0450315127601795
6.871287128712871,3.0574277307199336
6.891089108910891,3.0672537123828425
6.910891089108911,3.074495471177498
6.930693069306931,3.0791426503184245
6.9504950495049505,3.0811885066386844
6.97029702970297,3.0806299005034177
6.99009900990099,3.077467291542495
7.00990099009901,3.0717047400877364
7.02970297029703,3.0633499143450456
7.0495049504950495,3.0524141034771324
7.069306930693069,3.038912236922858
7.089108910891089,3.0228629104367686
7.108910891089109,3.0042884195027058
7.128712871287128,2.9832148009614734
7.148514851485149,2.9596718838998672
7.1683168316831685,2.9336933510825376
7.188118811881187,2.9053168124746636
7.207920792079208,2.874583892710907
7.227722772277228,2.8415403347216706
7.247524752475247,2.8062361221427334
7.267326732673268,2.7687256236195883
7.287128712871287,2.7290677626875692
7.306930693069306,2.687326217578926
7.326732673267327,2.643569656096704
7.346534653465347,2.5978720116233815
7.366336633663366,2.550312807422843
7.3861386138613865,2.5009775376719428
7.405940594059406,2.4499581151479766
7.425742574257425,2.3973533972226293
7.445544554455446,2.3432698037884974
7.465346534653466,2.287822042971617
7.485148514851485,2.2311339629383755
7.504950495049505,2.173339550716569
7.524752475247524,2.114584101571506
7.544554455445544,2.0550255848391124
7.564356435643565,1.9948362337581795
7.584158415841584,1.9342043870078165
7.603960396039604,1.8733366071513529
7.623762376237624,1.8124600941854763
7.643564356435643,1.751825398174646
7.663366336633663,1.6917094096126377
7.683168316831684,1.6324185643334683
7.702970297029703,1.574292134567754
7.7227722772277225,1.5177053809980414
7.742574257425743,1.4630722045319395
7.762376237623762,1.4108467566795386
7.782178217821782,1.36152324951318
7.801980198019803,1.315632975939005
7.821782178217822,1.2737373674546273
7.841584158415841,1.2364158832273593
7.861386138613862,1.204247786411639
7.881188118811881,1.1777875723497315
7.900990099009901,1.1575350413090681
7.92079207920792,1.1439026276479556
7.9405940594059405,1.137184186570635
7.96039603960396,1.1375303378104888
7.980198019801979,1.1449350483818297
8.0,1.1592362233794344
8.01980198019802,1.180130177038291
8.03960396039604,1.207197006711567
8.05940594059406,1.2399320949989654
8.07920792079208,1.2777786738836188
8.099009900990099,1.3201573674188785
8.118811881188119,1.366490243685506
8.138613861386139,1.416218504213793
8.158415841584159,1.4688141242607688
8.178217821782178,1.5237864237688865
8.198019801980198,1.5806847801093085
8.217821782178218,1.6390986429383831
8.237623762376238,1.6986558210381402
8.257425742574258,1.75901978038525
8.277227722772277,1.8198864775875667
8.297029702970297,1.8809810768050992
8.316831683168317,1.9420547657940268
8.336633663366337,2.002881792993632
8.356435643564357,2.0632567846411645
8.376237623762377,2.122992360714669
8.396039603960396,2.181917044278099
8.415841584158416,2.2398734453106606
8.435643564356436,2.2967166935546053
8.455445544554456,2.352313092681352
8.475247524752476,2.4065389683900773
8.495049504950495,2.4592796847664373
8.514851485148515,2.5104288056171478
8.534653465346535,2.5598873801166535
8.554455445544555,2.607563334697959
8.574257425742575,2.653370955551992
8.594059405940595,2.6972304483020717
8.613861386138613,2.739067563370126
8.633663366336634,2.7788132772525502
8.653465346534654,2.816403521391994
8.673267326732672,2.8517789515905356
8.693069306930694,2.88488475198384
8.712871287128714,2.9156704685102075
8.732673267326732,2.9440898675850034
8.752475247524753,2.970100816350942
8.772277227722773,2.993665181435865
8.792079207920791,3.014748743627769
8.811881188118813,3.0333211262856032
8.831683168316832,3.0493557356550927
8.85148514851485,3.0628297115615037
8.871287128712872,3.0737238872148196
8.891089108910892,3.082022757093357
8.91089108910891,3.0877144520768383
8.930693069306932,3.0907907211841197
8.950495049504951,3.0912469194388765
8.97029702970297,3.089082001543359
8.990099009900991,3.084298521189129
9.00990099009901,3.076902635978437
9.029702970297029,3.0669041180745795
9.04950495049505,3.0543163708466303
9.06930693069307,3.0391564519281706
9.089108910891088,3.021445103274234
9.10891089108911,3.001206788979853
9.12871287128713,2.9784697418224004
9.148514851485148,2.953266019713217
9.16831683168317,2.925631573497971
9.188118811881187,2.895606327837503
9.207920792079207,2.863234277238536
9.227722772277229,2.828563599697838
9.247524752475247,2.7916467908844247
9.267326732673267,2.752540822326386
9.287128712871288,2.711307327707438
9.306930693069306,2.6680128221313324
9.326732673267326,2.6227289601017034
9.346534653465348,2.5755328390142904
9.366336633663366,2.52650735619331
9.386138613861386,2.4757416289546113
9.405940594059407,2.4233314888701
9.425742574257425,2.3693800633679793
9.445544554455445,2.3139984600454766
9.465346534653467,2.2573065715924296
9.485148514851485,2.1994340219861743
9.504950495049505,2.140521277523568
9.524752475247526,2.0807209491061056
9.544554455445544,2.0201993146334094
9.564356435643564,1.9591380917814698
9.584158415841586,1.8977364908591046
9.603960396039604,1.8362135732937406
9.623762376237623,1.7748109312250548
9.643564356435645,1.7137956841765751
9.663366336633663,1.6534637548500708
9.683168316831683,1.5941433310118165
9.702970297029704,1.536198335767969
9.722772277227723,1.4800316049190863
9.742574257425742,1.4260872997156164
9.762376237623764,1.3748518650828407
9.782178217821782,1.3268525920513166
9.801980198019802,1.282652603119461
9.821782178217823,1.2428409398793467
9.841584158415841,1.208016535140341
9.861386138613861,1.1787653721814206
9.881188118811881,1.1556312119829397
9.900990099009901,1.1390818858727558
9.92079207920792,1.1294749898311898
9.94059405940594,1.1270282320234957
9.96039603960396,1.1317999037143573
9.98019801980198,1.1436834977229293
10.0,1.1624176360879652
10.01980198019802,1.1876091723962305
10.03960396039604,1.2187648280866774
10.05940594059406,1.2553257955196222
10.07920792079208,1.2967003968926567
10.099009900990099,1.3422915143455572
10.118811881188119,1.3915173310373696
10.138613861386139,1.4438253920992417
10.158415841584159,1.498700893860099
10.178217821782178,1.5556704844311897
10.198019801980198,1.6143028702849707
10.217821782178218,1.674207341218001
10.237623762376238,1.735031075952493
10.257425742574258,1.7964558467115186
10.277227722772277,1.8581945371040165
10.297029702970297,1.919987732280421
10.316831683168317,1.981600529650072
10.336633663366337,2.0428196438277784
10.356435643564357,2.1034508316870846
10.376237623762377,2.163316634493804
10.396039603960396,2.2222544179013295
10.415841584158416,2.280114682619518
10.435643564356436,2.3367596157013586
10.455445544554454,2.3920618525360644
10.475247524752476,2.4459034214372304
10.495049504950495,2.4981748453160657
10.514851485148514,2.5487743778140937
10.534653465346535,2.597607354137239
10.554455445544555,2.6445856395210368
10.574257425742573,2.6896271606886497
10.594059405940595,2.732655507813387
10.613861386138614,2.773599596369156
10.633663366336632,2.8123933798643117
10.653465346534654,2.8489756058330657
10.673267326732674,2.883289608631906
10.693069306930692,2.9152831335841722
10.712871287128714,2.944908187859495
10.732673267326733,2.972120914189778
