Frequency (Hz),Amplitude
0.0,5.165505114381495
0.019867549668874173,5.164455945689675
0.039735099337748346,5.161311305546241
0.059602649006622516,5.156079792856665
0.07947019867549669,5.148775742793456
0.09933774834437085,5.139419232169315
0.11920529801324503,5.1280360867116155
0.13907284768211922,5.1146578899807285
0.15894039735099338,5.099321993586808
0.17880794701986755,5.082071528262355
0.1986754966887417,5.062955415235748
0.2185430463576159,5.042028377225019
0.23841059602649006,5.019350948225614
0.2582781456953642,4.994989481100157
0.27814569536423844,4.969016151789124
0.2980132450331126,4.941508958746083
0.31788079470198677,4.91255171595851
0.33774834437086093,4.882234037642636
0.3576158940397351,4.850651312397721
0.3774834437086093,4.8179046642717696
0.3973509933774834,4.784100897827602
0.4172185430463576,4.749352423908998
0.4370860927152318,4.713777162396109
0.45695364238410596,4.6774984178155
0.4768211920529801,4.640644723244655
0.49668874172185434,4.603349647538187
0.5165562913907285,4.565751560524094
0.5364238410596026,4.527993350497654
0.5562913907284769,4.490222088108848
0.5761589403973509,4.452588630632882
0.5960264900662252,4.415247160673553
0.6158940397350993,4.378354653622354
0.6357615894039735,4.342070268730218
0.6556291390728477,4.306554659493325
0.6754966887417219,4.271969200254042
0.695364238410596,4.2384751275103145
0.7152317880794702,4.206232596436451
0.7350993377483444,4.17539965554708
0.7549668874172186,4.146131145263162
0.7748344370860927,4.118577529307979
0.7947019867549668,4.092883671278248
0.8145695364238411,4.069187572269399
0.8344370860927152,4.0476190889103885
0.8543046357615894,4.028298654378889
0.8741721854304636,4.011336027692928
0.8940397350993378,3.9968290985761
0.9139072847682119,3.9848627762493547
0.9337748344370861,3.975507990428757
0.9536423841059603,3.968820831480198
0.9735099337748344,3.9648418540543857
0.9933774834437087,3.963595564646013
1.0132450331125828,3.965090108537248
1.033112582781457,3.96931716573643
1.0529801324503312,3.9762520591231247
1.0728476821192052,3.9858540714257527
1.0927152317880795,3.998066961268625
1.1125827814569538,4.012819662695674
1.1324503311258278,4.030027147621625
1.1523178807947019,4.0495914268139
1.1721854304635762,4.071402662416061
1.1920529801324504,4.095340363728568
1.2119205298013245,4.121274637921079
1.2317880794701985,4.149067468432203
1.2516556291390728,4.17857399583471
1.271523178807947,4.209643778683214
1.2913907284768211,4.24212201508407
1.3112582781456954,4.275850709205141
1.3311258278145695,4.310669770473311
1.3509933774834437,4.346418036617198
1.370860927152318,4.382934214871517
1.390728476821192,4.420057738474073
1.410596026490066,4.457629538003569
1.4304635761589404,4.495492729102717
1.4503311258278146,4.533493219712563
1.4701986754966887,4.5714802411327495
1.4900662251655628,4.6093068080583235
1.5099337748344372,4.646830113270184
1.5298013245033113,4.683911862923739
1.5496688741721854,4.720418558435921
1.5695364238410596,4.756221730861553
1.5894039735099337,4.791198133415864
1.609271523178808,4.825229897478617
1.6291390728476822,4.858204657035577
1.6490066225165563,4.890015646100848
1.6688741721854303,4.920561773238586
1.6887417218543048,4.949747676879617
1.7086092715231789,4.977483764718992
1.728476821192053,5.003686240092387
1.7483443708609272,5.0282771178674786
1.7682119205298013,5.051184232053996
1.7880794701986755,5.072341237034034
1.8079470198675496,5.09168760404307
1.8278145695364238,5.109168614289816
1.847682119205298,5.124735349888867
1.8675496688741722,5.138344683591559
1.8874172185430464,5.149959268134933
1.9072847682119205,5.159547525884203
1.9271523178807946,5.167083639317477
1.9470198675496688,5.172547542790472
1.9668874172185429,5.175924915920934
1.9867549668874174,5.177207178844827
2.0066225165562916,5.176391489516791
2.0264900662251657,5.173480743153408
2.0463576158940397,5.168483573847345
2.066225165562914,5.161414358310759
2.086092715231788,5.152293221635699
2.1059602649006623,5.141146044884841
2.1258278145695364,5.128004474245803
2.1456953642384105,5.112905931393962
2.165562913907285,5.09589362460958
2.185430463576159,5.077016560083188
2.205298013245033,5.056329552715207
2.2251655629139075,5.033893235570141
2.2450331125827816,5.00977406697872
2.2649006622516556,4.984044334091724
2.2847682119205297,4.956782151473718
2.3046357615894038,4.928071453081683
2.324503311258278,4.898001975701799
2.3443708609271523,4.866669231615074
2.364238410596027,4.834174467930797
2.384105960264901,4.800624609665956
2.403973509933775,4.766132183263346
2.423841059602649,4.73081521683477
2.443708609271523,4.694797112998626
2.463576158940397,4.658206489762848
2.4834437086092715,4.621176984501771
2.5033112582781456,4.583847015707433
2.52317880794702,4.546359496889258
2.543046357615894,4.50886149677912
2.562913907284768,4.471503839909764
2.5827814569536423,4.434440641712777
2.6026490066225163,4.397828772574201
2.622516556291391,4.361827245838137
2.642384105960265,4.326596525609797
2.662251655629139,4.292297751422136
2.6821192052980134,4.259091878431323
2.7019867549668874,4.227138733816336
2.7218543046357615,4.196595992479485
2.741721854304636,4.16761807795287
2.76158940397351,4.140354997553355
2.781456953642384,4.114951124202103
2.801324503311258,4.091543940800796
2.821192052980132,4.070262766465015
2.8410596026490067,4.051227487053166
2.8609271523178808,4.034547315073471
2.8807947019867552,4.020319605972682
2.9006622516556293,4.008628758794289
2.9205298013245033,3.999545229062804
2.9403973509933774,3.9931246803869533
2.9602649006622515,3.989407298636574
2.9801324503311255,3.9884172886889844
3.0,3.9901625688059177
3.0198675496688745,3.994634671930615
3.0397350993377485,4.001808856894094
3.0596026490066226,4.011644426049405
3.0794701986754967,4.024085239583252
3.0993377483443707,4.039060411041888
3.119205298013245,4.056485163755335
3.1390728476821192,4.07626182408186
3.1589403973509933,4.098280924860901
3.1788079470198674,4.122422391201698
3.198675496688742,4.148556780698343
3.218543046357616,4.1765465512265045
3.23841059602649,4.206247331460557
3.2582781456953644,4.237509171936837
3.2781456953642385,4.2701777576496305
3.2980132450331126,4.304095566579855
3.3178807947019866,4.339102962022289
3.3377483443708607,4.375039209928453
3.3576158940397347,4.411743415588936
3.3774834437086096,4.449055376751718
3.3973509933774837,4.486816352656513
3.4172185430463577,4.5248697504383
3.437086092715232,4.563061731918787
3.456953642384106,4.601241744986325
3.47682119205298,4.6392629845982665
3.4966887417218544,4.676982788970092
3.5165562913907285,4.7142629767889135
3.5364238410596025,4.750970131354338
3.556291390728477,4.7869758374501385
3.576158940397351,4.822156876527491
3.596026490066225,4.856395385469841
3.615894039735099,4.8895789838402095
3.6357615894039736,4.921600874109541
3.6556291390728477,4.952359918948251
3.6754966887417218,4.981760699247853
3.695364238410596,5.009713556137045
3.7152317880794703,5.036134619873886
3.7350993377483444,5.060945828138618
3.754966887417219,5.084074935923226
3.774834437086093,5.105455518914504
3.794701986754967,5.125026971998513
3.814569536423841,5.142734504273619
3.834437086092715,5.158529131746349
3.854304635761589,5.172367668696123
3.8741721854304636,5.184212718529698
3.8940397350993377,5.194032664801673
3.9139072847682117,5.20180166295008
3.9337748344370858,5.207499633184572
3.9536423841059607,5.211112254865831
3.9735099337748347,5.21263096262586
3.993377483443709,5.212052944398387
4.013245033112583,5.209381141453103
4.033112582781457,5.204624250455333
4.052980132450331,5.197796727501831
4.072847682119205,5.188918794010752
4.0927152317880795,5.17801644426788
4.112582781456953,5.165121454349175
4.132450331125828,5.150271392049661
4.152317880794702,5.133509627347819
4.172185430463576,5.114885342820895
4.19205298013245,5.094453543297082
4.211920529801325,5.072275063883586
4.231788079470199,5.048416575341389
4.251655629139073,5.0229505855874175
4.271523178807947,4.9959554358890665
4.291390728476821,4.967515290073741
4.311258278145695,4.93772011480577
4.33112582781457,4.906665648683451
4.3509933774834435,4.874453357581669
4.370860927152318,4.841190373310783
4.390728476821192,4.806989412285138
4.410596026490066,4.771968670499085
4.43046357615894,4.736251690704369
4.450331125827815,4.699967197281064
4.470198675496689,4.663248893910741
4.490066225165563,4.626235218816121
4.509933774834438,4.589069052049695
4.529801324503311,4.551897369126291
4.549668874172186,4.514870835235692
4.569536423841059,4.4781433343815555
4.589403973509934,4.441871428115694
4.6092715231788075,4.406213739117772
4.629139072847682,4.371330255755049
4.649006622516556,4.337381554984973
4.66887417218543,4.304527942568421
4.688741721854305,4.272928511560958
4.708609271523179,4.242740122441692
4.728476821192054,4.214116310997793
4.748344370860927,4.187206133147317
4.768211920529802,4.162152959160897
4.788079470198675,4.139093233101839
4.80794701986755,4.11815521657793
4.827814569536423,4.099457738891871
4.847682119205298,4.083108978174576
4.867549668874172,4.069205299870407
4.887417218543046,4.057830179812215
4.9072847682119205,4.049053238912024
4.927152317880794,4.042929415092289
4.947019867549669,4.039498295460101
4.966887417218543,4.038783627937634
4.986754966887418,4.040793026751971
5.006622516556291,4.045517880585586
5.026490066225166,4.052933466094005
5.04635761589404,4.062999263250489
5.066225165562914,4.075659462934294
5.086092715231788,4.090843651676318
5.105960264900662,4.10846765380221
5.125827814569536,4.128434507586234
5.14569536423841,4.150635549581702
5.1655629139072845,4.174951580065859
5.185430463576159,4.201254082484905
5.205298013245033,4.229406470790488
5.225165562913908,4.259265340450347
5.245033112582782,4.290681701487829
5.264900662251656,4.323502174939554
5.28476821192053,4.3575701374050775
5.304635761589404,4.392726801707231
5.324503311258278,4.428812224923203
5.344370860927152,4.465666238061947
5.364238410596027,4.503129294361934
5.3841059602649,4.541043235513374
5.403973509933775,4.57925197704521
5.4238410596026485,4.617602115663267
5.443708609271523,4.655943462500321
5.463576158940397,4.694129507077064
5.483443708609272,4.732017817314955
5.503311258278146,4.7694703812333525
5.52317880794702,4.806353896049686
5.543046357615895,4.842540010325089
5.562913907284768,4.8779055245982725
5.582781456953643,4.9123325556622035
5.602649006622516,4.945708669290188
5.622516556291391,4.97792698583441
5.642384105960264,5.0088862627207575
5.662251655629139,5.038490957463015
5.682119205298013,5.066651274429382
5.701986754966887,5.093283198221676
5.7218543046357615,5.118308516179256
5.741721854304636,5.1416548321970685
5.7615894039735105,5.163255573753733
5.781456953642384,5.183049993779637
5.801324503311259,5.200983168757446
5.821192052980132,5.217005994235401
5.841059602649007,5.231075178746818
5.860927152317881,5.243153236963847
5.880794701986755,5.253208482768269
5.900662251655629,5.261215022794205
5.920529801324503,5.267152750884432
5.940397350993377,5.271007343801354
5.960264900662251,5.272770258443165
5.980132450331126,5.272438730732526
6.0,5.270015776267744
6.0198675496688745,5.265510192751506
6.039735099337749,5.25893656413883
6.059602649006623,5.25031526637058
6.079470198675497,5.239672474480002
6.099337748344371,5.22704017077521
6.119205298013245,5.212456153707783
6.139072847682119,5.195964046933767
6.158940397350993,5.177613307957874
6.178807947019867,5.157459235619542
6.198675496688741,5.135562975530966
6.218543046357616,5.111991522408072
6.23841059602649,5.086817718044551
6.258278145695365,5.060120243463945
6.2781456953642385,5.031983603544542
6.298013245033113,5.002498102144261
6.317880794701987,4.971759805459075
6.337748344370861,4.939870491027822
6.357615894039735,4.906937579452467
6.377483443708609,4.873074045538307
6.397350993377484,4.838398305180322
6.417218543046357,4.803034073938291
6.437086092715232,4.7671101928670865
6.456953642384105,4.730760416814233
6.47682119205298,4.6941231600863915
6.496688741721854,4.6573411941425995
6.516556291390729,4.620561291826071
6.5364238410596025,4.5839338126308515
6.556291390728477,4.547612223654078
6.5761589403973515,4.511752551249559
6.596026490066225,4.476512759016514
6.6158940397351,4.44205204867064
6.635761589403973,4.408530081588065
6.655629139072848,4.376106120416062
6.675496688741721,4.3449380921186425
6.695364238410596,4.315181576166232
6.715231788079469,4.28698872425461
6.735099337748344,4.260507120889052
6.754966887417219,4.235878597301002
6.774834437086093,4.2132380143489225
6.794701986754967,4.192712033132999
6.814569536423841,4.174417894838493
6.8344370860927155,4.158462233614678
6.854304635761589,4.144939947893223
6.874172185430464,4.133933156266515
6.894039735099337,4.125510263733554
6.913907284768212,4.119725162685627
6.933774834437086,4.116616590421631
6.95364238410596,4.116207661313405
6.973509933774834,4.11850558712436
6.993377483443709,4.12350159364021
7.013245033112583,4.131171035977675
7.033112582781457,4.1414737090155604
7.052980132450331,4.154354343671532
7.072847682119205,4.169743274541658
7.0927152317880795,4.187557259993794
7.112582781456954,4.207700432363895
7.132450331125828,4.230065353568112
7.152317880794702,4.254534150252883
7.172185430463576,4.280979702519343
7.19205298013245,4.309266861170994
7.211920529801324,4.339253670185303
7.231788079470198,4.370792573511528
7.251655629139073,4.403731588146241
7.271523178807947,4.437915428536313
7.291390728476822,4.473186570527629
7.311258278145695,4.509386246163019
7.33112582781457,4.546355363516549
7.3509933774834435,4.583935348345543
7.370860927152318,4.621968906595156
7.390728476821192,4.660300708676488
7.410596026490066,4.698777997957275
7.430463576158941,4.737251127071199
7.450331125827814,4.775574026497416
7.470198675496689,4.8136046104224235
7.490066225165562,4.851205125215543
7.509933774834438,4.888242445966871
7.52980132450331,4.924588326494645
7.549668874172186,4.9601196080634935
7.569536423841059,4.994718391800622
7.589403973509934,5.0282721794791305
7.6092715231788075,5.060673986983186
7.629139072847682,5.091822434394557
7.649006622516557,5.121621816261445
7.66887417218543,5.149982155238009
7.6887417218543055,5.176819241926006
7.708609271523178,5.202054663413262
7.728476821192054,5.2256158226912275
7.748344370860927,5.24743595084719
7.768211920529802,5.267454113666418
7.788079470198675,5.285615214045517
7.80794701986755,5.301869991408455
7.827814569536423,5.3161750191306645
7.847682119205298,5.328492700811674
7.8675496688741715,5.338791266090116
7.887417218543046,5.347044766566143
7.907284768211921,5.35323307228078
7.927152317880795,5.357341869098878
7.9470198675496695,5.359362657248801
7.966887417218543,5.359292751186191
7.986754966887418,5.357135280867836
8.006622516556291,5.352899194444052
8.026490066225167,5.346599262300498
8.046357615894038,5.338256082301625
8.066225165562914,5.327896086005277
8.086092715231787,5.3155515455301945
8.105960264900663,5.301260580661193
8.125827814569536,5.285067165670556
8.14569536423841,5.267021135214913
8.165562913907285,5.247178188532655
8.185430463576159,5.225599891016596
8.205298013245034,5.20235367206612
8.225165562913906,5.17751281793256
8.245033112582782,5.15115645805776
8.264900662251655,5.1233695431689235
8.28476821192053,5.09424281313071
8.304635761589404,5.0638727522694245
8.324503311258278,5.032361529575584
8.344370860927151,4.999816920861054
8.364238410596027,4.966352209601718
8.3841059602649,4.932086062842146
8.403973509933774,4.8971423781832835
8.42384105960265,4.861650097532263
8.443708609271523,4.825742982978684
8.463576158940398,4.789559349895832
8.483443708609272,4.753241752171452
8.503311258278146,4.716936614379491
8.52317880794702,4.680793805744114
8.543046357615895,4.644966150956481
8.562913907284768,4.609608873320347
8.582781456953642,4.574878966364353
8.602649006622515,4.540934491001992
8.62251655629139,4.50793379657671
8.642384105960264,4.47603466572018
8.66225165562914,4.445393384885256
8.682119205298013,4.416163744679009
8.701986754966887,4.3884959766818845
8.721854304635762,4.362535636234134
8.741721854304636,4.338422443607226
8.76158940397351,4.316289098934074
8.781456953642383,4.296260089096912
8.801324503311259,4.278450507293833
8.821192052980132,4.262964908040197
8.841059602649008,4.249896221728845
8.86092715231788,4.239324753408045
8.880794701986755,4.231317290010745
8.90066225165563,4.225926338804609
8.920529801324504,4.223189517318005
8.940397350993377,4.223129111492604
8.960264900662251,4.225751814453899
8.980132450331126,4.231048653280781
9.0,4.23899510575013
9.019867549668875,4.249551403524037
9.039735099337747,4.262663012934129
9.059602649006623,4.278261279682165
9.079470198675496,4.296264219660284
9.099337748344372,4.316577434881098
9.119205298013245,4.3390951313086354
9.139072847682119,4.363701214233646
9.158940397350994,4.390270436705933
9.178807947019868,4.418669577329617
9.198675496688743,4.44875862530033
9.218543046357615,4.48039195274891
9.23841059602649,4.513419457068848
9.258278145695364,4.547687658765869
9.27814569536424,4.583040743311533
9.298013245033111,4.619321538367625
9.317880794701987,4.656372420461704
9.33774834437086,4.694036147653844
9.357615894039736,4.732156616887848
9.37748344370861,4.770579546539273
9.397350993377483,4.809153086153858
9.417218543046358,4.847728356524274
9.437086092715232,4.886159924106005
9.456953642384107,4.9243062143575
9.47682119205298,4.962029868941382
9.496688741721854,4.999198051881555
9.516556291390728,5.035682709772463
9.536423841059603,5.071360791015805
9.556291390728477,5.1061144288475315
9.57615894039735,5.139831092641437
9.596026490066224,5.172403711656971
9.6158940397351,5.203730775056768
9.635761589403973,5.23371641166896
9.655629139072847,5.26227045262092
9.675496688741722,5.289308479634335
9.695364238410596,5.314751861450838
9.715231788079471,5.338527780558346
9.735099337748345,5.3605692521111585
9.754966887417218,5.380815136684362
9.774834437086092,5.399210148273638
9.794701986754967,5.41570485874568
9.814569536423841,5.430255699759557
9.834437086092716,5.442824963014623
9.854304635761588,5.453380799533765
9.874172185430464,5.461897218559623
9.894039735099337,5.468354086523978
9.913907284768213,5.472737126444482
9.933774834437086,5.475037918005994
9.95364238410596,5.475253898494123
9.973509933774835,5.473388364663372
9.993377483443709,5.469450475540185
10.013245033112582,5.4634552560794525
10.033112582781456,5.455423601509653
10.052980132450331,5.445382282115228
10.072847682119205,5.433363948111942
10.09271523178808,5.419407134170507
10.112582781456952,5.403556263033693
10.132450331125828,5.385861647549116
10.152317880794701,5.3663794903042215
10.172185430463577,5.345171879896552
10.192052980132452,5.322306782702899
10.211920529801324,5.297858028820449
10.2317880794702,5.271905290643108
10.251655629139073,5.2445340523037345
10.271523178807948,5.215835567959856
10.29139072847682,5.185906806625526
10.311258278145695,5.154850380958604
10.331125827814569,5.1227744571031195
10.350993377483444,5.089792642366102
10.370860927152318,5.056023847184387
10.390728476821192,5.021592117518771
10.410596026490065,4.986626433513478
10.43046357615894,4.951260469994474
10.450331125827816,4.915632314168748
10.470198675496688,4.87988413575369
10.490066225165563,4.844161804735466
10.509933774834437,4.808614452060628
10.529801324503312,4.773393968836006
10.549668874172186,4.738654440084478
10.56953642384106,4.7045515098107975
10.589403973509933,4.671241675102824
10.609271523178808,4.63888150825426
10.629139072847682,4.607626807460136
10.649006622516556,4.577631678506503
10.66887417218543,4.54904755203556
10.688741721854305,4.522022143377663
10.70860927152318,4.496698364539472
10.728476821192054,4.473213200633765
10.748344370860927,4.451696565715523
10.7682119205298,4.432270155512132
10.788079470198676,4.415046316748264
10.80794701986755,4.400126954505394
10.827814569536423,4.3876025001629575
10.847682119205297,4.377550962804607
10.867549668874172,4.370037086431119
10.887417218543046,4.365111633842133
10.907284768211921,4.36281081563094
10.927152317880793,4.363155879441573
