Time (s),Filtered Signal
0.0,0.026076305125495122
0.033370165745856356,0.290004769918563
0.06674033149171271,0.4381472134667395
0.10011049723756907,0.39283307896054437
0.13348066298342542,0.13789461409715953
0.16685082872928178,-0.2792993546234721
0.20022099447513814,-0.7669452048000374
0.2335911602209945,-1.2202076240067468
0.26696132596685085,-1.5521890274408054
0.30033149171270723,-1.7135903551466611
0.33370165745856356,-1.6965058324942002
0.3670718232044199,-1.5251289671177368
0.4004419889502763,-1.2408351689197268
0.43381215469613266,-0.8892674484296668
0.467182320441989,-0.5134517628314768
0.5005524861878453,-0.1522699892722213
0.5339226519337017,0.15937958600979996
0.5672928176795581,0.39234661888164213
0.6006629834254145,0.528008343782144
0.6340331491712707,0.5640586943566471
0.6674033149171271,0.5176049864657006
0.7007734806629835,0.4225663928320892
0.7341436464088398,0.32102159322366747
0.7675138121546962,0.2512336805375697
0.8008839779005525,0.23687507759291496
0.8342541436464089,0.2815465502229621
0.8676243093922653,0.37032558846225094
0.9009944751381216,0.4770582110098984
0.934364640883978,0.5739290717219006
0.9677348066298344,0.6394601266550963
1.0011049723756906,0.6624555283627591
1.0344751381215471,0.6416122572571509
1.0678453038674034,0.5823561200663423
1.1012154696132597,0.49314832595594676
1.1345856353591162,0.38298577168401293
1.1679558011049724,0.2606283213345524
1.201325966850829,0.134944526574265
1.2346961325966852,0.01519542921032823
1.2680662983425415,-0.08975190037039166
1.301436464088398,-0.17352055876548225
1.3348066298342542,-0.2348748874505087
1.3681767955801105,-0.2794378229906002
1.401546961325967,-0.31895682478273846
1.4349171270718233,-0.3674573925773458
1.4682872928176796,-0.4351046852779552
1.501657458563536,-0.5220334054587831
1.5350276243093923,-0.615030677298808
1.5683977900552488,-0.6892861593425851
1.601767955801105,-0.7155453696716537
1.6351381215469614,-0.6705980174814998
1.6685082872928179,-0.5471553794161644
1.7018784530386741,-0.35881744108575625
1.7352486187845306,-0.1374421490237151
1.768618784530387,0.07666650802004758
1.8019889502762432,0.2480740024884176
1.8353591160220997,0.3575742678098249
1.868729281767956,0.4068761067915583
1.9020994475138122,0.4149361641165198
1.9354696132596687,0.40807769049189324
1.968839779005525,0.4086725808979047
2.0022099447513813,0.4273182462657149
2.0355801104972375,0.46119781930880943
2.0689502762430942,0.4980431954449986
2.1023204419889505,0.5226437570612493
2.135690607734807,0.5223733848717569
2.169060773480663,0.48970598289921097
2.2024309392265193,0.42198402507973676
2.235801104972376,0.32028026475570204
2.2691712707182323,0.1891439824927877
2.3025414364640886,0.037581468261190354
2.335911602209945,-0.1200547587760888
2.369281767955801,-0.2652105328346953
2.402651933701658,-0.37925701399024825
2.436022099447514,-0.44951723714331393
2.4693922651933704,-0.4743863816696439
2.5027624309392267,-0.46456713901881463
2.536132596685083,-0.43912596955362987
2.5695027624309392,-0.4177481566544965
2.602872928176796,-0.412696363360082
2.636243093922652,-0.42430274491920406
2.6696132596685085,-0.44212910342531436
2.7029834254143648,-0.45113135946714533
2.736353591160221,-0.4397423955524464
2.7697237569060777,-0.4059392539362889
2.803093922651934,-0.3584133122284617
2.8364640883977903,-0.31230620924104446
2.8698342541436466,-0.2814678113611043
2.903204419889503,-0.270743545643324
2.936574585635359,-0.27181700919793983
2.969944751381216,-0.2646897407431946
3.003314917127072,-0.2245932658680728
3.0366850828729284,-0.13190085142004776
3.0700552486187846,0.018710777744874816
3.103425414364641,0.21351521007672736
3.1367955801104976,0.42162815832046857
3.170165745856354,0.6034839818888329
3.20353591160221,0.7235012529453915
3.2369060773480665,0.7628644286637023
3.2702762430939227,0.7278675121256285
3.3036464088397794,0.6502501463878755
3.3370165745856357,0.5783375169237335
3.370386740331492,0.5610272043763812
3.4037569060773483,0.6296861646410843
3.4371270718232045,0.7845209913530267
3.4704972375690613,0.9910010816866185
3.5038674033149175,1.1884443419771162
3.537237569060774,1.308116037238616
3.57060773480663,1.294179630744139
3.6039779005524863,1.1195680981799128
3.6373480662983426,0.7912139001593712
3.6707182320441993,0.3441693945374788
3.7040883977900556,-0.1706349190742895
3.737458563535912,-0.6979682881161533
3.770828729281768,-1.1844274735520937
3.8041988950276244,-1.5797330230727886
3.837569060773481,-1.8384851254183356
3.8709392265193374,-1.9277073215026979
3.9043093922651937,-1.840141733215632
3.93767955801105,-1.6060692916872623
3.9710497237569062,-1.2931868675740146
4.0044198895027625,-0.9884670931422416
4.037790055248619,-0.7663203898301751
4.071160220994475,-0.6573320311501334
4.104530386740332,-0.6343317541284631
4.1379005524861885,-0.6249374111706661
4.171270718232044,-0.5458978151220854
4.204640883977901,-0.34267379243849705
4.238011049723757,-0.01489614329238612
4.271381215469614,0.3837964559150223
4.30475138121547,0.7694324872321637
4.338121546961326,1.0615412757542573
4.371491712707183,1.2109078006080067
4.404861878453039,1.2108575297193724
4.438232044198895,1.091449340881205
4.471602209944752,0.9034692590212293
4.504972375690608,0.7009542188947385
4.538342541436465,0.5280075973149072
4.5717127071823205,0.41140363236693533
4.605082872928177,0.3579857198949176
4.638453038674034,0.3557933192964216
4.67182320441989,0.3787234987863624
4.7051933701657465,0.394562017686155
4.738563535911602,0.3749493281960451
4.771933701657459,0.30434455405722977
4.805303867403316,0.1847618250957764
4.8386740331491715,0.03449641538261587
4.872044198895028,-0.11853474418933622
4.905414364640884,-0.24617649143734766
4.938784530386741,-0.3287299068142464
4.972154696132597,-0.3601573688632349
5.005524861878453,-0.34846426260597496
5.03889502762431,-0.3116022040811368
5.072265193370166,-0.27061463715654543
5.105635359116023,-0.24247643958157408
5.1390055248618784,-0.23499646302231983
5.172375690607735,-0.24530176432722808
5.205745856353592,-0.26209630903263725
5.239116022099448,-0.27056417921325515
5.272486187845304,-0.2579607584223938
5.30585635359116,-0.21789257075640378
5.339226519337017,-0.1519769796447009
5.372596685082874,-0.06865254688277685
5.4059668508287295,0.020070953444796473
5.439337016574586,0.10252760449261904
5.472707182320442,0.17052365187866061
5.506077348066299,0.22065130042287942
5.5394475138121555,0.2534661082864369
5.572817679558011,0.2709577359178666
5.606187845303868,0.2733495270838857
5.639558011049724,0.2566116952797817
5.672928176795581,0.21209061764272316
5.706298342541437,0.12921607181273723
5.739668508287293,0.0011996328429251407
5.77303867403315,-0.1679438065153685
5.806408839779006,-0.3582425247406077
5.839779005524862,-0.5340906090340128
5.873149171270718,-0.6520780985518386
5.906519337016575,-0.6749234540108963
5.939889502762432,-0.5863506184917833
5.9732596685082875,-0.3999996148554413
6.006629834254144,-0.15731053062125033
6.04,0.08567881174085089
6.073370165745857,0.2771334796525499
6.1067403314917135,0.38548838271681773
6.140110497237569,0.40606083508213975
6.173480662983426,0.3565867676668838
6.206850828729282,0.2655941085347431
6.240220994475139,0.16036347901731343
6.273591160220995,0.060063734594490464
6.306961325966851,-0.02436276127020451
6.340331491712708,-0.08617435649226872
6.373701657458564,-0.11915068786060395
6.40707182320442,-0.11748586436416726
6.440441988950277,-0.07924627959767773
6.473812154696133,-0.010466486586773873
6.50718232044199,0.07374302259058878
6.5405524861878455,0.15285494101810465
6.573922651933702,0.2080873421721764
6.607292817679559,0.2295796283952969
6.640662983425415,0.2199852687223377
6.674033149171271,0.1927559010399548
6.707403314917127,0.16599513876970418
6.740773480662984,0.15468820761821206
6.774143646408841,0.1645805331935197
6.8075138121546965,0.1900282253160964
6.840883977900553,0.21639411227379796
6.874254143646409,0.22581739813311866
6.907624309392266,0.20409951358928996
6.9409944751381225,0.14630938342144406
6.974364640883978,0.05936801230664996
7.007734806629835,-0.03910564030365679
7.041104972375691,-0.12541963235192163
7.074475138121548,-0.17683346847831005
7.107845303867403,-0.17923581330096858
7.14121546961326,-0.13320057666809415
7.174585635359117,-0.056047198914256365
7.207955801104973,0.021710996059861574
7.241325966850829,0.06536059713709336
7.274696132596685,0.04790122182048387
7.308066298342542,-0.03948159933957645
7.341436464088399,-0.1828767905024808
7.3748066298342545,-0.34945893819719387
7.408176795580111,-0.49848894486703776
7.441546961325967,-0.5949900106516791
7.474917127071824,-0.6202908914735618
7.5082872928176805,-0.5752074653698755
7.541657458563536,-0.47531670677832183
7.575027624309393,-0.3416128635148081
7.608397790055249,-0.19180241757629604
7.641767955801106,-0.03661403798813448
7.675138121546962,0.11768068736845849
7.708508287292818,0.2630793104013253
7.741878453038675,0.38480144646746245
7.775248618784531,0.4616863147899048
7.808618784530387,0.4732156215915476
7.841988950276244,0.4102126612178272
7.8753591160221,0.28344323258475623
7.908729281767957,0.12459692807260818
7.9420994475138125,-0.022381364987212705
7.975469613259669,-0.11662073024243343
8.008839779005525,-0.1355276240690248
8.042209944751383,-0.08273786347422704
8.075580110497238,0.014848815675971173
8.108950276243094,0.11922789397120742
8.14232044198895,0.19660549167120486
8.175690607734808,0.22890683973236906
8.209060773480664,0.21720439337083372
8.24243093922652,0.17722778687720814
8.275801104972377,0.13064864032578807
8.309171270718233,0.0967182942138643
8.342541436464089,0.08717733709316335
8.375911602209946,0.10475094561504196
8.409281767955802,0.14383347064589477
8.442651933701658,0.19198708967122544
8.476022099447514,0.23205836982014227
8.509392265193371,0.24567629329487015
8.542762430939227,0.21856923964905922
8.576132596685083,0.14658218161586548
8.60950276243094,0.039643265800321445
8.642872928176796,-0.07933106993959459
8.676243093922652,-0.18179005368785156
8.709613259668508,-0.24511821582996493
8.742983425414366,-0.26345657393220834
8.776353591160222,-0.25208176951303257
8.809723756906077,-0.24195986465868716
8.843093922651935,-0.2656444173206703
8.87646408839779,-0.34032541509697634
8.909834254143647,-0.4560962686556825
8.943204419889504,-0.575915930974061
8.97657458563536,-0.648674899530623
9.009944751381216,-0.6304378032150872
9.043314917127072,-0.5044488614461335
9.07668508287293,-0.2903665141750471
9.110055248618785,-0.03792302985587274
9.143425414364641,0.19233236280475935
9.176795580110499,0.3522008628956146
9.210165745856354,0.42216119518397244
9.24353591160221,0.41395040291015406
9.276906077348068,0.35971625325144496
9.310276243093924,0.2945891468059105
9.34364640883978,0.2419035079398172
9.377016574585635,0.20765254455785762
9.410386740331493,0.1850362010109387
9.443756906077349,0.16455732297467054
9.477127071823205,0.14287230022484254
9.510497237569062,0.1253372259838779
9.543867403314918,0.1215163814415662
9.577237569060774,0.13719364237529577
9.610607734806631,0.1682782523200472
9.643977900552487,0.20057901050377702
9.677348066298343,0.21577251756976196
9.710718232044199,0.20023956939283674
9.744088397790057,0.1518766005027264
9.777458563535912,0.08126176792991789
9.810828729281768,0.006743892008778196
9.844198895027626,-0.05380185440842371
9.877569060773482,-0.09036222132960033
9.910939226519337,-0.10396402536876514
9.944309392265193,-0.10465204678014262
9.97767955801105,-0.10575813493257685
10.011049723756907,-0.1173668031309052
10.044419889502763,-0.14181556901377254
10.07779005524862,-0.17286392997674857
10.111160220994476,-0.19853901724539966
10.144530386740332,-0.2062963215323417
10.17790055248619,-0.18842896043767446
10.211270718232045,-0.1457182697599172
10.244640883977901,-0.08800827416135715
10.278011049723757,-0.03144976385783935
10.311381215469615,0.006707217748546651
10.34475138121547,0.014014304871819403
10.378121546961326,-0.012656901714876623
10.411491712707184,-0.06563300357870903
10.44486187845304,-0.12858199861744118
10.478232044198895,-0.18156430668731233
10.511602209944753,-0.2072583507500583
10.544972375690609,-0.19627899529058382
10.578342541436465,-0.1498842555073594
10.61171270718232,-0.07925381433503524
10.645082872928178,-0.0016032122682313904
10.678453038674034,0.0656235918022254
10.71182320441989,0.11059768004967878
10.745193370165747,0.130973318728794
10.778563535911603,0.134269102956411
10.811933701657459,0.13434767989161342
10.845303867403315,0.14503323303940918
10.878674033149172,0.17323477789199695
10.912044198895028,0.21453427958727297
10.945414364640884,0.25357624017434455
10.978784530386742,0.26975129877993625
11.012154696132598,0.2462356577656006
11.045524861878453,0.17854609161641055
11.078895027624311,0.0784816042463708
11.112265193370167,-0.028927156672190226
11.145635359116023,-0.11466449322753841
11.179005524861878,-0.15726864215044323
11.212375690607736,-0.1513790525179533
11.245745856353592,-0.10924397939288127
11.279116022099448,-0.054501536091905244
11.312486187845305,-0.011321519747399637
11.345856353591161,0.005819581577638492
11.379226519337017,-0.003000478057373653
11.412596685082875,-0.025485723086816767
11.44596685082873,-0.044848974470791565
11.479337016574586,-0.04864768876326182
11.512707182320442,-0.03429048912704612
11.5460773480663,-0.00882771825305001
11.579447513812156,0.016294407375399847
11.612817679558011,0.03233480838941978
11.646187845303869,0.03827919316404421
11.679558011049725,0.04111671294435026
11.71292817679558,0.051291917534447076
11.746298342541436,0.07583544702024553
11.779668508287294,0.11295141227297635
11.81303867403315,0.15113907061143714
11.846408839779006,0.17357059805184163
11.879779005524863,0.165626926417966
11.91314917127072,0.12170897224324669
11.946519337016575,0.047720018134080354
11.979889502762433,-0.04209043870384355
12.013259668508288,-0.13211077942615948
12.046629834254144,-0.21217679496805844
12.08,-0.28027803156573683
12.113370165745858,-0.33964884168171544
12.146740331491714,-0.3921531318863152
12.18011049723757,-0.4322727754413471
12.213480662983427,-0.445899766223547
12.246850828729283,-0.41548928431480736
12.280220994475139,-0.32943022084802476
12.313591160220996,-0.19082051268092762
12.346961325966852,-0.020689984736961264
12.380331491712708,0.14680491146884075
12.413701657458564,0.2758424872655913
12.447071823204421,0.34236030376455284
12.480441988950277,0.34353260005692
12.513812154696133,0.2988562942516639
12.54718232044199,0.24193768483124897
12.580552486187846,0.20615842872089446
12.613922651933702,0.2102323852177981
12.64729281767956,0.2499254362073989
12.680662983425416,0.2996852749767352
12.714033149171271,0.3236779061955761
12.747403314917127,0.29164333267097026
12.780773480662985,0.1928930498223712
12.81414364640884,0.04256111889518017
12.847513812154697,-0.1225456629583818
12.880883977900554,-0.25692358264473675
12.91425414364641,-0.3231088323915096
12.947624309392266,-0.3056671202438179
12.980994475138122,-0.21700141031113637
13.01436464088398,-0.09269360160054543
13.047734806629835,0.021845227534407756
13.081104972375691,0.08820414840014194
13.114475138121549,0.08863887262614092
13.147845303867404,0.031204775104006113
13.18121546961326,-0.05542542325339441
13.214585635359118,-0.13480454940229894
13.247955801104974,-0.17729623085672866
13.28132596685083,-0.17001592342071228
13.314696132596685,-0.1183638216869961
13.348066298342543,-0.039755790401753914
13.381436464088399,0.046076138639172814
13.414806629834255,0.12472111902105561
13.448176795580112,0.18919479788692023
13.481546961325968,0.2368444784360215
13.514917127071824,0.26457701583978416
13.548287292817681,0.2665842935932171
13.581657458563537,0.2365748556450532
13.615027624309393,0.17304736662248488
13.648397790055249,0.08368666650475366
13.681767955801106,-0.014816836161365702
13.715138121546962,-0.10240419591865109
13.748508287292818,-0.1639884638298219
13.781878453038676,-0.19568163275263584
13.815248618784532,-0.20504355423359555
13.848618784530387,-0.2050002940424859
13.881988950276245,-0.20501674145209398
13.9153591160221,-0.20497760557687789
13.948729281767957,-0.1957582800514848
13.982099447513813,-0.1664339941221668
14.01546961325967,-0.11387745766150469
14.048839779005526,-0.04869685326535553
14.082209944751382,0.006750395237902177
14.11558011049724,0.028093120275236125
14.148950276243095,0.0016739164990901678
14.182320441988951,-0.06656650548504575
14.215690607734807,-0.15121141408010444
14.249060773480664,-0.21710780968837565
14.28243093922652,-0.2343611455000951
14.315801104972376,-0.19145890463640708
14.349171270718234,-0.1002249880664084
14.38254143646409,0.009776005802065843
14.415911602209945,0.1047477462694819
14.449281767955803,0.1617381715793464
14.482651933701659,0.17823969000357756
14.516022099447515,0.17187462630259337
14.54939226519337,0.17041335315417042
14.582762430939228,0.19695358966192675
14.616132596685084,0.2573912764713933
14.64950276243094,0.3362164580549139
14.682872928176797,0.40268845823063404
14.716243093922653,0.42451080531058133
14.749613259668509,0.3826177593021487
14.782983425414367,0.2802456342571084
14.816353591160222,0.1422193365524071
14.849723756906078,0.004947394059325315
14.883093922651934,-0.09818858774318463
14.916464088397792,-0.14945134862401488
14.949834254143648,-0.1519251292681318
14.983204419889503,-0.12538827879908618
15.016574585635361,-0.09533263142137034
15.049944751381217,-0.08064553944611076
15.083314917127073,-0.08587647998938307
15.116685082872928,-0.10155082012716002
15.150055248618786,-0.11181882154392252
15.183425414364642,-0.10491045498342315
15.216795580110498,-0.080443692955417
15.250165745856355,-0.049497700082526346
15.283535911602211,-0.02760430825534185
15.316906077348067,-0.02505000038089845
15.350276243093925,-0.04056637110807813
15.38364640883978,-0.06247686321669156
15.417016574585636,-0.07675177510738108
15.450386740331492,-0.07697945170479958
15.48375690607735,-0.06979281613841715
15.517127071823205,-0.07185638370633254
15.550497237569061,-0.09967892147413153
15.583867403314919,-0.15812661459391084
15.617237569060775,-0.2346512223831044
15.65060773480663,-0.30309628962844565
15.683977900552488,-0.33536332334403274
15.717348066298344,-0.31460501579451655
15.7507182320442,-0.2427471614941126
15.784088397790056,-0.13847320990356068
15.817458563535913,-0.02725284685413729
15.85082872928177,0.07069176873331952
15.884198895027625,0.1478475924665904
15.917569060773483,0.20873321189147742
15.950939226519338,0.26241045731222845
15.984309392265194,0.31331624067837854
16.01767955801105,0.35615251168728673
16.051049723756908,0.37785131532440047
16.084419889502765,0.36534419551892866
16.11779005524862,0.3145088336687563
16.151160220994477,0.23502960036916892
16.18453038674033,0.14817499082676816
16.21790055248619,0.07830008855176826
16.251270718232046,0.04217065688171895
16.2846408839779,0.041334566250607
16.318011049723758,0.0612780231729517
16.351381215469615,0.07783728646880766
16.38475138121547,0.06792474505975103
16.418121546961327,0.019690846382046972
16.451491712707185,-0.06235721685395228
16.48486187845304,-0.15929553606249186
16.518232044198896,-0.24553031348228754
16.551602209944754,-0.2986425455716648
16.584972375690608,-0.30710313500358116
16.618342541436466,-0.2731033091948407
16.651712707182323,-0.21022059259160727
16.685082872928177,-0.13774681742175576
16.718453038674035,-0.07431722724249717
16.751823204419892,-0.03296864063892778
16.785193370165747,-0.018598043921279457
16.818563535911604,-0.02778512612577847
16.851933701657458,-0.050473877956451155
16.885303867403316,-0.072959018491429
16.918674033149173,-0.08163961273344573
16.952044198895027,-0.0668621380456637
16.985414364640885,-0.025945456692941148
17.018784530386743,0.03558634508059548
17.052154696132597,0.10522217454687201
17.085524861878454,0.16707701224183627
17.118895027624312,0.2069457201060498
17.152265193370166,0.21713370612557825
17.185635359116024,0.19924501576873643
17.21900552486188,0.16368703250216626
17.252375690607735,0.1258338124130999
