Time (s),Filtered Signal
0.0,0.005278830326780466
0.03337028824833703,-0.2279203859036992
0.06674057649667406,-0.42212375739789076
0.10011086474501109,-0.5428421504272708
0.13348115299334812,-0.566079895241495
0.16685144124168516,-0.48460847887501707
0.20022172949002218,-0.31233249066457897
0.2335920177383592,-0.083556159235093
0.26696230598669624,0.15458267599411027
0.3003325942350333,0.35506494163829033
0.3337028824833703,0.4847328696491986
0.3670731707317073,0.5330962481357676
0.40044345898004435,0.512316627337474
0.4338137472283814,0.4485314306280321
0.4671840354767184,0.3688296590447995
0.5005543237250555,0.2901870663049076
0.5339246119733925,0.2153954996012653
0.5672949002217295,0.13715782118434947
0.6006651884700666,0.04719386607737105
0.6340354767184035,-0.05519770662059695
0.6674057649667406,-0.15989033826401816
0.7007760532150776,-0.2494052130037345
0.7341463414634146,-0.3066886873941644
0.7675166297117517,-0.32268545126562376
0.8008869179600887,-0.2998561358553702
0.8342572062084257,-0.2504305686626133
0.8676274944567628,-0.19100429988501452
0.9009977827050998,-0.13647356583503562
0.9343680709534368,-0.09582099451129716
0.9677383592017739,-0.0706791392495349
1.001108647450111,-0.05615558095016753
1.0344789356984478,-0.04291594629559397
1.067849223946785,-0.019910689995827645
1.101219512195122,0.022345088065584075
1.134589800443459,0.08808768306853837
1.167960088691796,0.173078175442836
1.2013303769401331,0.26341799861254733
1.23470066518847,0.33787998258110025
1.268070953436807,0.37394047482191334
1.3014412416851442,0.3557607418385813
1.3348115299334813,0.28090981266980103
1.3681818181818182,0.1626560757571863
1.4015521064301553,0.02637692284206012
1.4349223946784924,-0.09875699105355598
1.4682926829268292,-0.18951655154712763
1.5016629711751663,-0.23586019692785712
1.5350332594235034,-0.242960825544396
1.5684035476718403,-0.2275633148702697
1.6017738359201774,-0.21048974401537082
1.6351441241685145,-0.20841849957544883
1.6685144124168514,-0.2280242190585336
1.7018847006651885,-0.2643911083938999
1.7352549889135256,-0.30390182371715835
1.7686252771618625,-0.33021330850002356
1.8019955654101996,-0.33091878198597985
1.8353658536585367,-0.3022808920153616
1.8687361419068735,-0.25007772030457526
1.9021064301552106,-0.18606435080371464
1.9354767184035477,-0.12145563515871756
1.9688470066518848,-0.0604278612188142
2.002217294900222,0.0029724295658559415
2.035587583148559,0.08240792937217635
2.0689578713968957,0.1917808721175377
2.102328159645233,0.3358421213536866
2.13569844789357,0.5033879564405251
2.1690687361419068,0.6668176451122413
2.202439024390244,0.789157709312282
2.235809312638581,0.836228489681357
2.269179600886918,0.7890714305576448
2.302549889135255,0.6513832885146109
2.335920177383592,0.4487900785490183
2.369290465631929,0.220355639791318
2.4026607538802662,0.006003743895613727
2.436031042128603,-0.1650254148058331
2.46940133037694,-0.2805003740583537
2.5027716186252773,-0.3447512664544994
2.536141906873614,-0.37281379610510484
2.569512195121951,-0.3824053936980711
2.6028824833702884,-0.38717266330063255
2.6362527716186253,-0.39338188311445116
2.6696230598669626,-0.4003190189623516
2.7029933481152995,-0.4030974428898904
2.7363636363636363,-0.3959911222476661
2.7697339246119737,-0.37486822026126787
2.8031042128603105,-0.33828922629705827
2.8364745011086474,-0.28764480854766467
2.8698447893569847,-0.22688690617383125
2.9032150776053216,-0.16202437249282575
2.9365853658536585,-0.10009859710025786
2.969955654101996,-0.047321706048023514
3.0033259423503327,-0.0065795073500353055
3.0366962305986696,0.024747371797761968
3.070066518847007,0.05525853918637116
3.1034368070953438,0.09724785539763424
3.1368070953436806,0.16174101782505
3.170177383592018,0.2524498002219502
3.203547671840355,0.36130633387109534
3.2369179600886917,0.46812534071444195
3.270288248337029,0.5454524206863485
3.303658536585366,0.5673848038124633
3.337028824833703,0.5191884444498664
3.37039911308204,0.4038624650976177
3.403769401330377,0.24277739679636065
3.437139689578714,0.06974605666324049
3.470509977827051,-0.0795344691946247
3.503880266075388,-0.17883712018578332
3.537250554323725,-0.21929019503315852
3.5706208425720622,-0.21080407508426074
3.603991130820399,-0.1766197879851693
3.637361419068736,-0.14341017644396417
3.6707317073170733,-0.13121082254804056
3.70410199556541,-0.1473407379375614
3.737472283813747,-0.18636221801490366
3.7708425720620844,-0.2351004577361265
3.8042128603104213,-0.2794505250701351
3.8375831485587586,-0.3093819714728953
3.8709534368070955,-0.32024055165636045
3.9043237250554323,-0.3109529698772019
3.9376940133037697,-0.28145362701965043
3.9710643015521065,-0.23159132126450888
4.004434589800444,-0.1621808989129512
4.037804878048781,-0.07697303901646509
4.071175166297118,0.01651896772894254
4.1045454545454545,0.10860998872529956
4.137915742793791,0.19090781671345633
4.171286031042128,0.2595699343069397
4.204656319290466,0.31612609648209594
4.238026607538803,0.36504558290905226
4.27139689578714,0.40928644148018484
4.304767184035477,0.44644179758082086
4.3381374722838135,0.467902013040681
4.371507760532151,0.46179316528250053
4.404878048780488,0.41834504877961065
4.438248337028825,0.33502277178492695
4.471618625277162,0.21891760976925526
4.504988913525499,0.08533130159025734
4.538359201773836,-0.046671574473301426
4.571729490022173,-0.15970820899824287
4.60509977827051,-0.24236291283106906
4.638470066518847,-0.29106699674787734
4.671840354767184,-0.30961267053852143
4.705210643015521,-0.30720923979359577
4.738580931263858,-0.29601299913571916
4.771951219512196,-0.28846640226652975
4.8053215077605325,-0.29428849672576657
4.838691796008869,-0.31720019821898626
4.872062084257206,-0.3523832717212769
4.905432372505543,-0.386414256386497
4.93880266075388,-0.4009838862208564
4.972172949002218,-0.3798814965794665
5.005543237250555,-0.3164602834193257
5.0389135254988915,-0.21771254377192653
5.072283813747228,-0.10224010067822184
5.105654101995565,0.007565801823666956
5.139024390243902,0.09559727708004309
5.17239467849224,0.1593180458509788
5.205764966740577,0.21038999033581662
5.239135254988914,0.26799150215084205
5.2725055432372505,0.3477908323304649
5.305875831485587,0.451732089465394
5.339246119733925,0.5635869393146609
5.372616407982262,0.6527999116318323
5.405986696230599,0.6855971493004862
5.439356984478936,0.6390811595628282
5.472727272727273,0.5123880909238678
5.5060975609756095,0.32972001041816185
5.539467849223947,0.13316047643794693
5.572838137472284,-0.03240047218967094
5.606208425720621,-0.13607100627535962
5.639578713968958,-0.17208845584071905
5.672949002217295,-0.16018836102849102
5.706319290465632,-0.13512309911033074
5.7396895787139695,-0.130460304287716
5.773059866962306,-0.16447260148071832
5.806430155210643,-0.23461621767408863
5.83980044345898,-0.3224967011665272
5.873170731707317,-0.40581481781014345
5.906541019955654,-0.4704265322672214
5.939911308203992,-0.516017810550351
5.9732815964523285,-0.5526636274254336
6.006651884700665,-0.5906386127604872
6.040022172949002,-0.6295758191360948
6.073392461197339,-0.6534862958522124
6.106762749445676,-0.6350378883112847
6.140133037694014,-0.5474692976857708
6.173503325942351,-0.37823988483366894
6.2068736141906875,-0.13730833113381158
6.240243902439024,0.1444728766988459
6.273614190687361,0.4262789265015028
6.306984478935698,0.6721214213314687
6.340354767184036,0.8621154478926919
6.373725055432373,0.9947400499058481
6.40709534368071,1.0795032907267856
6.4404656319290465,1.1245899119502274
6.473835920177383,1.126773379234437
6.507206208425721,1.0696864635212717
6.540576496674058,0.9320681755739925
6.573946784922395,0.702128050471822
6.607317073170732,0.3905109284134753
6.640687361419069,0.03446713919397912
6.674057649667406,-0.31016460441630406
6.707427937915743,-0.5865700198825016
6.74079822616408,-0.7566358348052163
6.774168514412417,-0.8138563718455217
6.807538802660754,-0.7836954374075158
6.840909090909091,-0.71146129991811
6.874279379157428,-0.6433591663996279
6.9076496674057655,-0.6090419101095262
6.941019955654102,-0.6126566271151666
6.974390243902439,-0.6351004854084394
7.007760532150776,-0.6452490381948783
7.041130820399113,-0.6145705266951395
7.07450110864745,-0.5289658120608647
7.107871396895788,-0.3936306455637789
7.1412416851441245,-0.22997614428497745
7.174611973392461,-0.06668899618092516
7.207982261640798,0.07117691596471842
7.241352549889135,0.1709590583406515
7.274722838137472,0.23600300925907722
7.30809312638581,0.2830886204802104
7.341463414634147,0.3347556382692733
7.3748337028824835,0.4093593821116356
7.40820399113082,0.5125245553554588
7.441574279379157,0.6332802066969342
7.474944567627494,0.7465624596697077
7.508314855875832,0.8214191822653856
7.541685144124169,0.8319851557385687
7.575055432372506,0.7670516354029291
7.6084257206208425,0.634431363488967
7.641796008869179,0.45827525062948193
7.675166297117517,0.2703177223080203
7.708536585365854,0.09858946665100642
7.741906873614191,-0.04167812662269204
7.775277161862528,-0.151070491101116
7.808647450110865,-0.2417165192959708
7.842017738359202,-0.32792413423438144
7.875388026607539,-0.41645194978752204
7.908758314855876,-0.5014111278415848
7.942128603104213,-0.5664846781666619
7.97549889135255,-0.5933463307829538
8.008869179600888,-0.5718484483708772
8.042239467849225,-0.5065477681632135
8.075609756097561,-0.41603709749346346
8.108980044345898,-0.3253357320714964
8.142350332594235,-0.2551996541403906
8.175720620842572,-0.2136966913504023
8.209090909090909,-0.19401377465876657
8.242461197339246,-0.17908959563170584
8.275831485587583,-0.15022608334807186
8.30920177383592,-0.09517697925785747
8.342572062084257,-0.012073880964559617
8.375942350332595,0.09178584708672598
8.409312638580932,0.20444925103218425
8.442682926829269,0.31389983147698247
8.476053215077606,0.4102173256903968
8.509423503325943,0.48494430415832135
8.54279379157428,0.5294298200526949
8.576164079822616,0.5346268991749612
8.609534368070953,0.49365313802726885
8.64290465631929,0.40618033353649247
8.676274944567627,0.2819318839299967
8.709645232815964,0.1404931053526657
8.743015521064303,0.006433057964719715
8.77638580931264,-0.09864720165841742
8.809756097560976,-0.1636457755184221
8.843126385809313,-0.19153482718137432
8.87649667405765,-0.197250169328536
8.909866962305987,-0.2008114602565792
8.943237250554324,-0.21869477409818117
8.97660753880266,-0.2570765859184497
9.009977827050998,-0.30953661258355997
9.043348115299334,-0.3598014482644874
9.076718403547671,-0.38811470843473256
9.110088691796008,-0.3786283792976579
9.143458980044347,-0.32512269031987767
9.176829268292684,-0.23318723554561002
9.21019955654102,-0.11829380215027502
9.243569844789358,-0.0005298683089016724
9.276940133037694,0.10217336875190018
9.310310421286031,0.17992884573997026
9.343680709534368,0.23366275453426505
9.377050997782705,0.2734965436674803
9.410421286031042,0.3130944814650453
9.443791574279379,0.36209062554326704
9.477161862527716,0.4198388812189416
9.510532150776053,0.4735405494514061
9.543902439024391,0.5021275025386429
9.577272727272728,0.4847158755578519
9.610643015521065,0.41017735695835533
9.644013303769402,0.28357320481292714
9.677383592017739,0.12635597316238192
9.710753880266076,-0.030115233480428445
9.744124168514412,-0.15528609680633515
9.77749445676275,-0.23001141283766366
9.810864745011086,-0.2527019082068189
9.844235033259423,-0.23851963084458683
9.87760532150776,-0.21209849273850728
9.910975609756099,-0.197079618385317
9.944345898004435,-0.20710075600604155
9.977716186252772,-0.24204640878583594
10.01108647450111,-0.29069771739591854
10.044456762749446,-0.33777518998741185
10.077827050997783,-0.3714094500671278
10.11119733924612,-0.3873153591080858
10.144567627494457,-0.3881307869145113
10.177937915742794,-0.3791624366936235
10.21130820399113,-0.36354673503407847
10.244678492239467,-0.3396883078910509
10.278048780487804,-0.3020934872925607
10.311419068736143,-0.2445985962951813
10.34478935698448,-0.16379711303935918
10.378159645232817,-0.060754532752348406
10.411529933481154,0.059546306760137085
10.44490022172949,0.1901387975184935
10.478270509977827,0.3238249169014239
10.511640798226164,0.453589479873552
10.545011086474501,0.5716389056384016
10.578381374722838,0.6681265243166099
10.611751662971175,0.7310199593125406
10.645121951219512,0.7480001886269986
10.67849223946785,0.7100791816707481
10.711862527716187,0.6154947738714183
10.745232815964524,0.4720567698447051
10.778603104212861,0.29669289465190213
10.811973392461198,0.11212774612178064
10.845343680709535,-0.058227146819796106
10.878713968957872,-0.19550877935734126
10.912084257206208,-0.28920224224465835
10.945454545454545,-0.33852565172319443
10.978824833702882,-0.3511877544034898
11.012195121951219,-0.34004347642986793
11.045565410199556,-0.31875155990622817
11.078935698447895,-0.29782041297322154
11.112305986696231,-0.28226891635658274
11.145676274944568,-0.2715080914425754
11.179046563192905,-0.2611901016092028
11.212416851441242,-0.2460684614144931
11.245787139689579,-0.22268489299260227
11.279157427937916,-0.19096886333629343
11.312527716186253,-0.15436003603949028
11.34589800443459,-0.11855231751652806
11.379268292682926,-0.08928509972411457
11.412638580931263,-0.06982136512310061
11.4460088691796,-0.05891931714370167
11.479379157427939,-0.05016086663849653
11.512749445676276,-0.03327213395818563
11.546119733924613,0.0025504540211184587
11.57949002217295,0.06417159709571951
11.612860310421286,0.150505535476925
11.646230598669623,0.2507082395883212
11.67960088691796,0.3456711403430284
11.712971175166297,0.4126836071589433
11.746341463414634,0.4318761391460267
11.77971175166297,0.39235468639434135
11.813082039911308,0.296046119757568
11.846452328159646,0.1580361096486376
11.879822616407983,0.003223598107115299
11.91319290465632,-0.13986932885047734
11.946563192904657,-0.24648678654751366
11.979933481152994,-0.30214131572024105
12.01330376940133,-0.3062509466379415
12.046674057649668,-0.27167742997505145
12.080044345898004,-0.22015574877386454
12.113414634146341,-0.17492296116513384
12.146784922394678,-0.152822830815386
12.180155210643015,-0.15845575015618568
12.213525498891352,-0.18243842992957138
12.24689578713969,-0.20462861100753346
12.280266075388028,-0.2015502961228622
12.313636363636364,-0.1556745043760139
12.347006651884701,-0.06320303669547037
12.380376940133038,0.06292288367924317
12.413747228381375,0.19662172300647526
12.447117516629712,0.3081159124129695
12.480487804878049,0.3756455175428443
12.513858093126386,0.39426871998113683
12.547228381374723,0.3773414921549199
12.58059866962306,0.3494763754106678
12.613968957871396,0.3340145278837759
12.647339246119735,0.3410555740646373
12.680709534368072,0.36207092910437316
12.714079822616409,0.3738897892846987
12.747450110864746,0.3500713087455939
12.780820399113082,0.2739777002205167
12.81419068736142,0.14722338295112805
12.847560975609756,-0.010230640298945961
12.880931263858093,-0.1678581400414425
12.91430155210643,-0.29621285518867163
12.947671840354767,-0.3771789015527354
12.981042128603104,-0.4088189223788302
13.014412416851442,-0.40357374700322163
13.04778270509978,-0.3813979097511257
13.081152993348116,-0.36116323994362165
13.114523281596453,-0.35385056127241116
13.14789356984479,-0.35987011431445975
13.181263858093127,-0.370939108648318
13.214634146341464,-0.3751002670263866
13.2480044345898,-0.36239634469254706
13.281374722838137,-0.3287954841502546
13.314745011086474,-0.2770609443469038
13.348115299334811,-0.21477860306218804
13.381485587583148,-0.15092626929170988
13.414855875831487,-0.09266465947094146
13.448226164079824,-0.04345111506867877
13.48159645232816,-0.002613217517498488
13.514966740576497,0.03417840874571869
13.548337028824834,0.07413512383671582
13.581707317073171,0.12635627792447882
13.615077605321508,0.2001618051353512
13.648447893569845,0.30228306435927965
13.681818181818182,0.4331060503926548
13.715188470066519,0.5831380197036314
13.748558758314855,0.7315270315492445
13.781929046563192,0.8482924958714203
13.815299334811531,0.9008055395463087
13.848669623059868,0.8633163879379906
13.882039911308205,0.7266232539900712
13.915410199556542,0.504112534770309
13.948780487804878,0.2310135584053767
13.982150776053215,-0.044085877824185854
14.015521064301552,-0.27329600944461624
14.048891352549889,-0.424180567659637
14.082261640798226,-0.48946271107216477
14.115631929046563,-0.487598670077921
14.1490022172949,-0.45382216405950015
14.182372505543238,-0.4253363134687989
14.215742793791575,-0.4268331359566802
14.249113082039912,-0.4622098102391272
14.282483370288249,-0.5153886406186623
14.315853658536586,-0.5590319754671078
14.349223946784923,-0.5667006605704895
14.38259423503326,-0.5231045876670742
14.415964523281596,-0.42870006274650435
14.449334811529933,-0.2978734255638862
14.48270509977827,-0.15264997584328938
14.516075388026607,-0.01508086732906433
14.549445676274944,0.09895870236538486
14.582815964523283,0.18312626629904824
14.61618625277162,0.24091174001086282
14.649556541019956,0.2833185498549432
14.682926829268293,0.32458740124417645
14.71629711751663,0.37683564840335787
14.749667405764967,0.44488075078451184
14.783037694013304,0.5228737656339919
14.81640798226164,0.5942613203873367
14.849778270509978,0.6357586391113512
14.883148558758315,0.6245877123032674
14.916518847006651,0.5467436362632009
14.949889135254988,0.4032140359268591
14.983259423503327,0.2114516977921186
15.016629711751664,0.0010473487341226958
15.05,-0.19511984381293454
15.083370288248338,-0.35098109863472715
15.116740576496674,-0.4546531330520843
15.150110864745011,-0.510130430954163
15.183481152993348,-0.5327158714828419
15.216851441241685,-0.5403513519656981
15.250221729490022,-0.5448435034406034
15.283592017738359,-0.5469603739895197
15.316962305986696,-0.5374212134287178
15.350332594235034,-0.5028656502859498
15.383702882483371,-0.4335236979723589
15.417073170731708,-0.32877498301338387
15.450443458980045,-0.1982530981260819
15.483813747228382,-0.05858916792713309
15.517184035476719,0.07220414768465652
15.550554323725056,0.18025548332487182
15.583924611973393,0.2595999917221262
15.61729490022173,0.3135634315109883
15.650665188470066,0.35364101418477556
15.684035476718403,0.39578664852481354
15.71740576496674,0.45434156882851623
15.750776053215079,0.5349070256923608
15.784146341463416,0.6288577496542667
15.817516629711752,0.712713288373445
15.85088691796009,0.754249934584834
15.884257206208426,0.7242004110919726
15.917627494456763,0.6091129499027526
15.9509977827051,0.41941875161082726
15.984368070953437,0.18824926202684666
16.017738359201775,-0.039356145258674806
16.05110864745011,-0.22253258315193802
16.08447893569845,-0.3389159818234373
16.117849223946784,-0.3909205284676584
16.151219512195123,-0.40151792005760767
16.184589800443458,-0.4019659054805296
16.217960088691797,-0.41741298701128393
16.251330376940132,-0.45679880895265274
16.28470066518847,-0.5110030688467374
16.31807095343681,-0.5591887463298423
16.351441241685144,-0.5796987986839002
16.384811529933483,-0.5602314230968306
16.418181818181818,-0.50283099830674
16.451552106430157,-0.42189609381281845
16.48492239467849,-0.3366409812428278
16.51829268292683,-0.26186078509054195
16.551662971175165,-0.20145881646716002
16.585033259423504,-0.14776160479829634
16.61840354767184,-0.08679493638286594
16.651773835920178,-0.006727583620402133
16.685144124168513,0.09491666023460019
16.71851441241685,0.2090199589723455
16.75188470066519,0.31868937643935247
16.785254988913525,0.40698855613450285
16.818625277161864,0.46444582973625476
16.8519955654102,0.4925404445119343
16.885365853658538,0.5017152845216737
16.918736141906873,0.505344682907654
16.95210643015521,0.5128787108738838
16.985476718403547,0.5253222240525999
17.018847006651885,0.5346730176172417
17.05221729490022,0.5270108468172571
17.08558758314856,0.4876013052315973
17.118957871396898,0.4060772626782057
17.152328159645233,0.28026791027921993
17.18569844789357,0.11799843057590124
17.219068736141907,-0.06331118880570848
17.252439024390245,-0.23927790425699552
17.28580931263858,-0.38337871054554
