Frequency (Hz),Amplitude
0.0,5.484288836823797
0.019801980198019802,5.481729219303283
0.039603960396039604,5.474053355481531
0.0594059405940594,5.461270213167272
0.07920792079207921,5.443394744093956
0.09900990099009901,5.420447892307135
0.1188118811881188,5.392456606534649
0.13861386138613863,5.3594538571910855
0.15841584158415842,5.321478658888247
0.1782178217821782,5.278576099573016
0.19801980198019803,5.23079737769879
0.21782178217821782,5.1781998491712
0.2376237623762376,5.12084708620212
0.25742574257425743,5.05880895067715
0.27722772277227725,4.992161685209046
0.297029702970297,4.920988025739473
0.31683168316831684,4.845377340395093
0.33663366336633666,4.7654258003439125
0.3564356435643564,4.681236589684991
0.37623762376237624,4.592920163008608
0.39603960396039606,4.500594561272696
0.4158415841584158,4.4043857991692485
0.43564356435643564,4.304428340352231
0.45544554455445546,4.200865680963543
0.4752475247524752,4.0938510670844765
0.495049504950495,3.9835483783997963
0.5148514851485149,3.8701332189400346
0.5346534653465347,3.7537942668627906
0.5544554455445545,3.634734949628173
0.5742574257425742,3.513175529646374
0.594059405940594,3.389355709857924
0.613861386138614,3.263537900447547
0.6336633663366337,3.1360113290867524
0.6534653465346534,3.0070972302015404
0.6732673267326733,2.8771554163380646
0.6930693069306931,2.7465926187646716
0.7128712871287128,2.6158730848871787
0.7326732673267327,2.485532031238948
0.7524752475247525,2.356192654755026
0.7722772277227723,2.228587458204475
0.7920792079207921,2.1035845548987315
0.8118811881188118,1.9822192000396923
0.8316831683168316,1.8657297197878562
0.8514851485148516,1.7555947352949992
0.8712871287128713,1.6535643800782616
0.891089108910891,1.5616714831591856
0.9108910891089109,1.4821999824321126
0.9306930693069307,1.41758091830414
0.9504950495049505,1.3701904549740678
0.9702970297029703,1.3420520755830125
0.99009900990099,1.3344993125775755
1.00990099009901,1.347909652040312
1.0297029702970297,1.3816228258441714
1.0495049504950495,1.4340821346376302
1.0693069306930694,1.503133038642867
1.0891089108910892,1.5863586789907316
1.108910891089109,1.6813539450517123
1.1287128712871286,1.7858986478396317
1.1485148514851484,1.8980382933238664
1.1683168316831685,2.016100991558625
1.188118811881188,2.1386788209733387
1.2079207920792079,2.264593886368289
1.227722772277228,2.3928609627789448
1.2475247524752475,2.5226526200725456
1.2673267326732673,2.6532691379114777
1.2871287128712872,2.7841136477699786
1.3069306930693068,2.9146720903005723
1.3267326732673268,3.0444972753196713
1.3465346534653466,3.1731962945166607
1.3663366336633662,3.3004206108540197
1.3861386138613863,3.4258582574623735
1.405940594059406,3.5492276880672153
1.4257425742574257,3.6702729170591133
1.4455445544554455,3.7887596666364343
1.4653465346534653,3.9044723017257947
1.4851485148514851,4.0172113828921425
1.504950495049505,4.126791705765625
1.5247524752475248,4.233040725000786
1.5445544554455446,4.335797283429154
1.5643564356435644,4.434910584459289
1.5841584158415842,4.530239359158413
1.6039603960396038,4.621651189771261
1.6237623762376237,4.70902195942133
1.6435643564356437,4.792235403948398
1.6633663366336633,4.871182746682475
1.683168316831683,4.945762400753383
1.7029702970297032,5.015879726528848
1.7227722772277227,5.081446834143112
1.7425742574257426,5.142382422963758
1.7623762376237624,5.198611651351626
1.782178217821782,5.250066031281422
1.801980198019802,5.296683343370671
1.8217821782178218,5.33840756866176
1.8415841584158414,5.375188834155044
1.8613861386138615,5.406983369629036
1.881188118811881,5.433753473731517
1.900990099009901,5.455467487701647
1.920792079207921,5.4720997754018095
1.9405940594059405,5.483630708613607
1.9603960396039604,5.490046656792299
1.98019801980198,5.491339980689384
2.0,5.487509029448502
2.01980198019802,5.478558140964167
2.0396039603960396,5.464497645469645
2.0594059405940595,5.445343872496703
2.0792079207920793,5.421119161530551
2.099009900990099,5.391851876873684
2.118811881188119,5.357576427439117
2.1386138613861387,5.3183332924231035
2.1584158415841586,5.274169054067657
2.1782178217821784,5.225136439023649
2.1980198019801978,5.171294370177372
2.217821782178218,5.112708031220488
2.237623762376238,5.049448946742968
2.257425742574257,4.981595081232644
2.2772277227722775,4.909230961099886
2.297029702970297,4.832447824746964
2.3168316831683167,4.751343806813158
2.336633663366337,4.666024164104557
2.3564356435643563,4.5766015524367685
2.376237623762376,4.483196365773313
2.3960396039603964,4.385937151757269
2.4158415841584158,4.284961121170809
2.4356435643564356,4.180414773229406
2.455445544554456,4.07245466420517
2.4752475247524752,3.9612483540446912
2.495049504950495,3.8469755748891563
2.514851485148515,3.729829677356688
2.5346534653465347,3.6100194259514153
2.5544554455445545,3.4877712351152725
2.5742574257425743,3.3633319636471994
2.594059405940594,3.236972419256159
2.6138613861386135,3.108991769041545
2.633663366336634,2.9797231081397104
2.6534653465346536,2.8495405100017686
2.673267326732673,2.7188679691739424
2.6930693069306932,2.588190749463343
2.712871287128713,2.45806975825454
2.7326732673267324,2.329159657285011
2.7524752475247527,2.2022314360599737
2.7722772277227725,2.078200002108038
2.792079207920792,1.9581567648689
2.811881188118812,1.8434058268214213
2.8316831683168315,1.735499659441683
2.8514851485148514,1.6362653186030987
2.8712871287128716,1.547804970952049
2.891089108910891,1.472446010644751
2.910891089108911,1.4126114510278318
2.9306930693069306,1.370591017974747
2.9504950495049505,1.3482286060058315
2.9702970297029703,1.3465985422241828
2.99009900990099,1.3657863925203155
3.00990099009901,1.404870818150807
3.0297029702970297,1.4621150156338665
3.0495049504950495,1.535281719966387
3.0693069306930694,1.6219539282974957
3.089108910891089,1.7197796591973626
3.108910891089109,1.8266168626522745
3.128712871287129,1.9405942612590428
3.148514851485148,2.0601171510143033
3.1683168316831685,2.1838440827324215
3.1881188118811883,2.3106520078110453
3.2079207920792077,2.4395998439865996
3.227722772277228,2.5698952032059563
3.2475247524752473,2.700866000166769
3.267326732673267,2.8319371207114044
3.2871287128712874,2.9626116557042415
3.3069306930693068,3.092455986509323
3.3267326732673266,3.2210880032140694
3.346534653465347,3.3481678189965574
3.366336633663366,3.473390450953268
3.386138613861386,3.5964800413688285
3.4059405940594063,3.717185283279676
3.4257425742574257,3.8352757878851524
3.4455445544554455,3.9505391899774724
3.4653465346534653,4.062778833379041
3.485148514851485,4.171811913840704
3.504950495049505,4.277467984173516
3.5247524752475248,4.379587747393855
3.5445544554455446,4.478022079821859
3.564356435643564,4.572631238526799
3.5841584158415842,4.663284217137602
3.603960396039604,4.749858221500757
3.6237623762376234,4.832238242479661
3.6435643564356437,4.910316707733757
3.6633663366336635,4.983993197886381
3.683168316831683,5.053174215307319
3.702970297029703,5.117772995971464
3.722772277227723,5.177709356635993
3.7425742574257423,5.2329095710059885
3.762376237623762,5.283306269708333
3.7821782178217824,5.32883835982524
3.801980198019802,5.369450960498397
3.8217821782178216,5.405095351737654
3.841584158415842,5.4357289340839285
3.8613861386138613,5.461315197205489
3.881188118811881,5.4818236958691875
3.9009900990099013,5.497230032036828
3.9207920792079207,5.507515842104431
3.9405940594059405,5.5126687885370504
3.96039603960396,5.512682555363408
3.98019801980198,5.507556847189072
4.0,5.497297391571023
4.01980198019802,5.481915944775016
4.03960396039604,5.461430301117397
4.0594059405940595,5.435864306278409
4.079207920792079,5.405247875171983
4.099009900990099,5.36961701517294
4.118811881188119,5.329013855744465
4.138613861386139,5.283486685783784
4.158415841584159,5.233090000323537
4.178217821782178,5.177884558601732
4.198019801980198,5.1179374559591695
4.217821782178218,5.053322212559257
4.237623762376238,4.9841188825731795
4.257425742574258,4.910414188264569
4.2772277227722775,4.8323016843776605
4.297029702970297,4.749881959431439
4.316831683168317,4.663262882008866
4.336633663366336,4.5725599019869385
4.356435643564357,4.477896418980729
4.376237623762377,4.379404233209353
4.3960396039603955,4.277224097707756
4.415841584158416,4.171506395536366
4.435643564356436,4.062411971682399
4.455445544554455,3.950113157098644
4.475247524752476,3.834795032309908
4.4950495049504955,3.7166569909167
4.514851485148514,3.5959146800327133
4.534653465346535,3.4728024163585567
4.554455445544555,3.3475762046824036
4.574257425742574,3.220517521916175
4.594059405940594,3.0919380764434625
4.613861386138614,2.9621858118283346
4.633663366336633,2.831652497686122
4.653465346534653,2.70078333903936
4.673267326732674,2.57008913490215
4.693069306930693,2.4401616139120255
4.712871287128713,2.311692636928912
4.732673267326733,2.1854979133386903
4.752475247524752,2.0625455902925567
4.772277227722772,1.9439892878061251
4.792079207920793,1.8312034440277767
4.811881188118812,1.7258155986197514
4.8316831683168315,1.629724860506636
4.851485148514852,1.5450883022039283
4.871287128712871,1.4742495647570257
4.891089108910891,1.4195829582956385
4.910891089108912,1.3832425934230845
4.930693069306931,1.3668473142204636
4.9504950495049505,1.3711864037552524
4.97029702970297,1.3960579270204985
4.99009900990099,1.4403119103655417
5.00990099009901,1.5020783220480367
5.02970297029703,1.5790827821159152
5.0495049504950495,1.668942626263281
5.069306930693069,1.7693799211636472
5.089108910891089,1.8783403253644737
5.108910891089109,1.9940376493399363
5.128712871287129,2.1149517982505692
5.148514851485149,2.239803055934618
5.1683168316831685,2.3675177143088186
5.188118811881188,2.4971933247568017
5.207920792079208,2.6280674000145887
5.227722772277227,2.759490863330806
5.247524752475248,2.8909062721666854
5.267326732673268,3.0218303004222773
5.2871287128712865,3.1518397975043344
5.306930693069307,3.2805607537052364
5.326732673267327,3.4076595830780327
5.346534653465346,3.532836235224527
5.366336633663367,3.6558187430531164
5.3861386138613865,3.77635889603965
5.405940594059405,3.894228796085101
5.425742574257426,4.0092181068440915
5.445544554455446,4.121131849512162
5.465346534653465,4.229788630736852
5.485148514851486,4.335019213557267
5.504950495049505,4.436665361739109
5.524752475247524,4.534578902887148
5.544554455445545,4.628620967320687
5.564356435643565,4.718661368690636
5.584158415841584,4.804578099309399
5.603960396039604,4.886256918624506
5.623762376237624,4.963591017546822
5.643564356435643,5.036480744714543
5.663366336633663,5.104833383441052
5.683168316831684,5.168562970214698
5.702970297029703,5.227590147312307
5.7227722772277225,5.28184204344877
5.742574257425743,5.33125217748337
5.762376237623762,5.375760381095566
5.782178217821782,5.415312737072356
5.801980198019803,5.449861530448687
5.821782178217822,5.479365210240726
5.841584158415841,5.503788359927464
5.861386138613861,5.523101675188948
5.881188118811881,5.5372819477108814
5.900990099009901,5.546312054128074
5.920792079207921,5.550180949411606
5.9405940594059405,5.548883664215487
5.96039603960396,5.542421305893473
5.98019801980198,5.530801063083777
6.0,5.514036213941979
6.01980198019802,5.492146138288567
6.03960396039604,5.465156334130812
6.0594059405940595,5.4330984392269945
6.079207920792079,5.396010258589354
6.099009900990099,5.353935799079885
6.118811881188119,5.3069253125476985
6.138613861386139,5.2550353492998365
6.158415841584159,5.1983288241025
6.178217821782178,5.13687509739118
6.198019801980198,5.070750074948879
6.217821782178218,5.000036330014313
6.237623762376237,4.924823252640445
6.257425742574258,4.845207232178077
6.2772277227722775,4.761291880061167
6.297029702970296,4.6731883016885005
6.316831683168317,4.581015428214949
6.336633663366337,4.484900421598302
6.356435643564356,4.384979169439643
6.376237623762377,4.281396890195595
6.396039603960396,4.174308874479243
6.415841584158415,4.06388139472563
6.435643564356436,3.950292823903521
6.455445544554456,3.8337350147622
6.475247524752475,3.7144150050314826
6.495049504950495,3.5925571319783725
6.514851485148515,3.468405662949071
6.534653465346534,3.3422280784688523
6.554455445544554,3.2143191828968685
6.574257425742575,3.085006266496314
6.594059405940594,2.954655603927541
6.6138613861386135,2.8236806485913473
6.633663366336634,2.692552368457601
6.653465346534653,2.5618122597410355
6.673267326732673,2.4320886505625863
6.693069306930694,2.3041169239878867
6.712871287128713,2.178764160098741
6.732673267326732,2.057058253451593
6.752475247524753,1.940220515864539
6.772277227722772,1.829698674773878
6.792079207920792,1.727193452284117
6.811881188118813,1.6346661539701601
6.8316831683168315,1.5543075113365905
6.851485148514851,1.4884426160408843
6.871287128712871,1.4393505328502094
6.891089108910891,1.4089998781911826
6.910891089108911,1.3987457594638277
6.930693069306931,1.4090793659543435
6.9504950495049505,1.439529035976657
6.97029702970297,1.4887567116882858
6.99009900990099,1.5548068007108626
7.00990099009901,1.6354089354982222
7.02970297029703,1.728243012243276
7.0495049504950495,1.8311205616052932
7.069306930693069,1.9420807510055451
7.089108910891089,2.059422253067642
7.108910891089109,2.1816961267357073
7.128712871287128,2.3076795198121736
7.148514851485149,2.4363428262194633
7.1683168316831685,2.5668171624006515
7.188118811881187,2.698365285890525
7.207920792079208,2.830356966435182
7.227722772277228,2.9622487649543956
7.247524752475247,3.0935677270439284
7.267326732673268,3.2238983649258577
7.287128712871287,3.3528723173193917
7.306930693069306,3.480160151579098
7.326732673267327,3.60546486271291
7.346534653465347,3.728516709874039
7.366336633663366,3.849069105242184
7.3861386138613865,3.9668953313206137
7.405940594059406,4.0817859115345545
7.425742574257425,4.193546497450096
7.445544554455446,4.301996165890468
7.465346534653466,4.406966042467169
7.485148514851485,4.508298186042094
7.504950495049505,4.605844682578343
7.524752475247524,4.699466907654542
7.544554455445544,4.789034925331376
7.564356435643565,4.874426997625553
7.584158415841584,4.955529183989576
7.603960396039604,5.032235014241333
7.623762376237624,5.104445221583043
7.643564356435643,5.172067524884786
7.663366336633663,5.235016451429704
7.683168316831684,5.293213192937806
7.702970297029703,5.346585488989705
7.7227722772277225,5.39506753302801
7.742574257425743,5.4385998969744795
7.762376237623762,5.477129471205869
7.782178217821782,5.510609417213893
7.801980198019803,5.538999130758797
7.821782178217822,5.562264213733299
7.841584158415841,5.580376453299342
7.861386138613862,5.5933138071579815
7.881188118811881,5.6010603940733965
7.900990099009901,5.603606489004505
7.92079207920792,5.600948522410137
7.9405940594059405,5.593089083492118
7.96039603960396,5.580036927332402
7.980198019801979,5.561806986070026
8.0,5.538420384458175
8.01980198019802,5.509904460346208
8.03960396039604,5.476292790852895
8.05940594059406,5.437625225242256
8.07920792079208,5.393947925790991
8.099009900990099,5.3453134182558175
8.118811881188119,5.291780653922046
8.138613861386139,5.2334150856553805
8.158415841584159,5.170288760906116
8.178217821782178,5.102480435248466
8.198019801980198,5.030075710808074
8.217821782178218,4.953167204870667
8.237623762376238,4.871854755120128
8.257425742574258,4.786245669381833
8.277227722772277,4.696455029519475
8.297029702970297,4.602606061345596
8.316831683168317,4.504830585178716
8.336633663366337,4.403269565171988
8.356435643564357,4.29807377995305
8.376237623762377,4.189404642720549
8.396039603960396,4.0774352060847
8.415841584158416,3.9623513960687835
8.435643564356436,3.84435353138862
8.455445544554456,3.723658199146134
8.475247524752476,3.6005005773652483
8.495049504950495,3.475137319543982
8.514851485148515,3.3478501480226948
8.534653465346535,3.218950343077656
8.554455445544555,3.0887843648421343
8.574257425742575,2.95774090653761
8.594059405940595,2.8262597496264044
8.613861386138613,2.6948428702317626
8.633663366336634,2.5640683194887983
8.653465346534654,2.434607440707142
8.673267326732672,2.3072459362827966
8.693069306930694,2.182909048174205
8.712871287128714,2.062690473628649
8.732673267326732,1.9478832876252334
8.752475247524753,1.8400086409627823
8.772277227722773,1.740833887056167
8.792079207920791,1.6523660066906058
8.811881188118813,1.5768000799377524
8.831683168316832,1.5164002764846418
8.85148514851485,1.473299985283882
8.871287128712872,1.4492354792555455
8.891089108910892,1.4452700588950802
8.91089108910891,1.461598286236565
8.930693069306932,1.4975086530828277
8.950495049504951,1.5515207693571775
8.97029702970297,1.6216394421472013
8.990099009900991,1.7056339546403052
9.00990099009901,1.8012690119248898
9.029702970297029,1.9064563980308888
9.04950495049505,2.0193317284149326
9.06930693069307,2.138276904180563
9.089108910891088,2.261910234595499
9.10891089108911,2.3890609543343695
9.12871287128713,2.518738667827552
9.148514851485148,2.6501034211541894
9.16831683168317,2.782438990613879
9.188118811881187,2.9151302160086967
9.207920792079207,3.0476443204714774
9.227722772277229,3.179515777488401
9.247524752475247,3.310334170552464
9.267326732673267,3.43973450261078
9.287128712871288,3.567389476193807
9.306930693069306,3.6930033432283884
9.326732673267326,3.8163069988018212
9.346534653465348,3.9370540588325507
9.366336633663366,4.055017716083585
9.386138613861386,4.169988212855979
9.405940594059407,4.281770803483686
9.425742574257425,4.390184107045812
9.445544554455445,4.495058772018949
9.465346534653467,4.5962363911877855
9.485148514851485,4.693568618056944
9.504950495049505,4.786916446085363
9.524752475247526,4.876149619940204
9.544554455445544,4.961146154141867
9.564356435643564,5.041791939327145
9.584158415841586,5.117980420192394
9.603960396039604,5.18961233221863
9.623762376237623,5.2565954867017135
9.643564356435645,5.318844595547417
9.663366336633663,5.376281128848504
9.683168316831683,5.4288331995188415
9.702970297029704,5.476435470281281
9.722772277227723,5.519029079141586
9.742574257425742,5.5565615801669415
9.762376237623764,5.588986896957104
9.782178217821782,5.616265286671328
9.801980198019802,5.638363312875707
9.821782178217823,5.655253825818115
9.841584158415841,5.666915949034875
9.861386138613861,5.673335071454726
9.881188118811881,5.6745028444011485
9.900990099009901,5.670417183110179
9.92079207920792,5.661082272586255
9.94059405940594,5.6465085778169355
9.96039603960396,5.626712858567753
9.98019801980198,5.601718189184096
10.0,5.571553984046323
10.01980198019802,5.536256029563079
10.03960396039604,5.495866523853829
10.05940594059406,5.45043412557491
10.07920792079208,5.400014013692629
10.099009900990099,5.344667960417415
10.118811881188119,5.284464419998395
10.138613861386139,5.219478636658707
10.158415841584159,5.149792775652347
10.178217821782178,5.075496082273386
10.198019801980198,4.996685074687843
10.217821782178218,4.913463777734492
10.237623762376238,4.8259440064171955
10.257425742574258,4.73424570976732
10.277227722772277,4.638497388192886
10.297029702970297,4.538836600483017
10.316831683168317,4.435410580472965
10.336633663366337,4.328376988215355
10.356435643564357,4.217904826631924
10.376237623762377,4.104175562402757
10.396039603960396,3.9873844997571544
10.415841584158416,3.8677424684620703
10.435643564356436,3.745477903417035
10.455445544554454,3.6208394137947315
10.475247524752476,3.494098965733455
10.495049504950495,3.3655558354586868
10.514851485148514,3.2355415306616853
10.534653465346535,3.1044259279495416
10.554455445544555,2.972624933113285
10.574257425742573,2.8406100362500055
10.594059405940595,2.708920197535093
10.613861386138614,2.578176543330696
10.633663366336632,2.4491003384588534
10.653465346534654,2.3225345563934083
10.673267326732674,2.199468965132855
10.693069306930692,2.081067767568004
10.712871287128714,1.9686971622196179
10.732673267326733,1.8639473379865727
10.752475247524751,1.7686391355601805
10.772277227722773,1.6848003274252967
10.792079207920793,1.6145922901161476
10.81188118811881,1.560169547638714
