Time (s),Filtered Signal
0.0,-0.04815176612923822
0.03337004405286344,-0.15997989652204433
0.06674008810572687,-0.23169500361175163
0.10011013215859031,-0.2328120262656619
0.13348017621145375,-0.15011376823910003
0.16685022026431717,0.006186796527061756
0.20022026431718062,0.2018204354789314
0.23359030837004408,0.38601883602291925
0.2669603524229075,0.5068034745551665
0.3003303964757709,0.5293644111180171
0.33370044052863435,0.4500754766570996
0.3670704845814978,0.29928257984253764
0.40044052863436125,0.13029537486519746
0.43381057268722467,-0.0017583115245255502
0.46718061674008815,-0.06244162341753092
0.5005506607929515,-0.051868885262493246
0.533920704845815,-0.0034658349499386365
0.5672907488986785,0.031996001619079624
0.6006607929515418,0.009915678963234168
0.6340308370044053,-0.08767684148066589
0.6674008810572687,-0.24373326146286214
0.7007709251101322,-0.41315182148026103
0.7341409691629956,-0.5413596673768215
0.767511013215859,-0.5858204442597068
0.8008810572687225,-0.5310374260677151
0.834251101321586,-0.39119047096947385
0.8676211453744493,-0.20054358998524272
0.9009911894273128,0.0026983192825363466
0.9343612334801763,0.19088486275732028
0.9677312775330397,0.3531351808618576
1.001101321585903,0.49136295693347365
1.0344713656387665,0.6096210469811825
1.06784140969163,0.7036329589655588
1.1012114537444935,0.7570039726341041
1.134581497797357,0.7467481716260825
1.1679515418502202,0.6554672973297034
1.2013215859030837,0.4835769281427116
1.2346916299559472,0.2545351938362399
1.2680616740088106,0.009418188831580417
1.3014317180616741,-0.20732322616453017
1.3348017621145374,-0.3644102173484251
1.3681718061674009,-0.4547188686308176
1.4015418502202643,-0.4955341379617198
1.4349118942731278,-0.5182078046365882
1.4682819383259913,-0.5524243882277752
1.5016519823788548,-0.6124984972637904
1.535022026431718,-0.691503619199714
1.5683920704845815,-0.7647245352545695
1.601762114537445,-0.7995095116097204
1.6351321585903085,-0.766475880159859
1.668502202643172,-0.6479547731002708
1.7018722466960352,-0.44230651052965725
1.7352422907488987,-0.1650565319722471
1.7686123348017622,0.15187699490925963
1.8019823788546256,0.4630282152471898
1.8353524229074891,0.7158593343806725
1.8687224669603526,0.8619166588700559
1.9020925110132159,0.8709974881805547
1.9354625550660793,0.7434175283896713
1.9688325991189428,0.5142525175191665
2.002202643171806,0.24574703880813104
2.0355726872246698,0.0091799412075341
2.068942731277533,-0.13734169071866886
2.1023127753303967,-0.16637913057325845
2.13568281938326,-0.08711322610768234
2.1690528634361232,0.06189989021923157
2.202422907488987,0.22912272212383974
2.23579295154185,0.3681558900340438
2.269162995594714,0.4505020837661637
2.302533039647577,0.4693313129862283
2.3359030837004404,0.435020759195937
2.369273127753304,0.3663475305744363
2.4026431718061674,0.28183621525606145
2.436013215859031,0.19430876982982884
2.4693832599118943,0.10950866391938646
2.5027533039647576,0.027984076847707574
2.5361233480176213,-0.051390791197081315
2.5694933920704845,-0.12805400095167843
2.6028634361233483,-0.19817231543350705
2.6362334801762115,-0.25585090287665685
2.6696035242290748,-0.29694603457579816
2.7029735682819385,-0.32370736832678165
2.7363436123348017,-0.34732947836150635
2.7697136563876654,-0.3857528489530221
2.8030837004405287,-0.4560816225682486
2.8364537444933924,-0.5640405845734865
2.8698237885462556,-0.6953786894645969
2.903193832599119,-0.8144506212160703
2.9365638766519826,-0.8727512887837543
2.969933920704846,-0.8257606661248168
3.0033039647577096,-0.6520515019397064
3.036674008810573,-0.3664498108419602
3.070044052863436,-0.020504916866965903
3.1034140969162998,0.31162828831914385
3.136784140969163,0.557511906011068
3.1701541850220267,0.6716872673618455
3.20352422907489,0.651526024777477
3.2368942731277532,0.5368046951136013
3.270264317180617,0.3928661491575196
3.30363436123348,0.28426617886901695
3.337004405286344,0.2499105721990979
3.370374449339207,0.28991169461567345
3.4037444933920704,0.36908075737560797
3.437114537444934,0.4346491587973728
3.4704845814977974,0.4399145600997472
3.503854625550661,0.3636364305675301
3.5372246696035243,0.21767995974245452
3.5705947136563876,0.040975961107792475
3.6039647577092513,-0.11644227820763983
3.6373348017621145,-0.21215126609633447
3.6707048458149782,-0.22549949758325083
3.7040748898678415,-0.16257775482604916
3.737444933920705,-0.051367295298328196
3.7708149779735685,0.06982846725820815
3.8041850220264317,0.16543753657947305
3.8375550660792954,0.21212102728977844
3.8709251101321587,0.2019994184079072
3.9042951541850224,0.14013602926159957
3.9376651982378856,0.03931624951037103
3.971035242290749,-0.08436865609226393
4.004405286343612,-0.21326401831318745
4.037775330396476,-0.32790497594710943
4.0711453744493395,-0.4072252377795871
4.104515418502203,-0.43147518335027807
4.137885462555066,-0.388056527869276
4.171255506607929,-0.27789500874521517
4.2046255506607935,-0.11861708493762886
4.237995594713657,0.058228577042923516
4.27136563876652,0.21573250352393525
4.304735682819383,0.3226258578053404
4.3381057268722465,0.36194909047115215
4.371475770925111,0.3338472461387505
4.404845814977974,0.25208492487476386
4.438215859030837,0.13696612225742608
4.4715859030837,0.00855497429645498
4.504955947136564,-0.11710148771407035
4.538325991189428,-0.2285432564311776
4.571696035242291,-0.3179680539682671
4.605066079295154,-0.3806168975157979
4.638436123348018,-0.414924652742718
4.671806167400881,-0.42254344318548354
4.705176211453745,-0.4072837797123035
4.738546255506608,-0.3731503258174905
4.7719162995594715,-0.32273886868938234
4.805286343612335,-0.25716767192384626
4.838656387665198,-0.17747601180324396
4.872026431718062,-0.0861686344970909
4.905396475770925,0.012529043763528253
4.938766519823789,0.11397043339997016
4.972136563876652,0.21472135700105066
5.005506607929515,0.3127636059297714
5.038876651982379,0.40545442726641845
5.072246696035243,0.486290554777663
5.105616740088106,0.5429807659865772
5.138986784140969,0.5592200484210905
5.172356828193832,0.5206898903095919
5.2057268722466965,0.42314814276038804
5.23909691629956,0.27858839951911746
5.272466960352423,0.11558386989487356
5.305837004405286,-0.027745523123887457
5.3392070484581495,-0.11622788893721493
5.372577092511014,-0.13077105327590058
5.405947136563877,-0.07647066908588884
5.43931718061674,0.01820627363719244
5.4726872246696034,0.11142436753781836
5.506057268722468,0.16349889323475542
5.539427312775331,0.1517668498352056
5.572797356828194,0.07872486028757157
5.606167400881057,-0.029949914677011618
5.639537444933921,-0.13666270003829228
5.672907488986785,-0.2077038335253987
5.706277533039648,-0.22695976056232567
5.739647577092511,-0.20183966978467685
5.7730176211453745,-0.15903017544107004
5.806387665198238,-0.13192280800591913
5.839757709251102,-0.1449968187752937
5.873127753303965,-0.20177084546552046
5.9064977973568284,-0.28166241890926713
5.939867841409692,-0.34761629390754045
5.973237885462555,-0.36187254127127844
6.006607929515419,-0.30345612978254816
6.039977973568282,-0.17960718741111328
6.073348017621146,-0.025413135925396672
6.106718061674009,0.10912969810331138
6.140088105726872,0.1795640582241288
6.173458149779736,0.16599174479888776
6.2068281938325995,0.08192883495398719
6.240198237885463,-0.03132181535152624
6.273568281938326,-0.12251293681000244
6.306938325991189,-0.15266291415207597
6.3403083700440535,-0.11182208606028587
6.373678414096917,-0.023016429125749954
6.40704845814978,0.06841521081918951
6.440418502202643,0.1155968042406757
6.4737885462555065,0.09213518817666481
6.507158590308371,0.005776871614214153
6.540528634361234,-0.10265754170172509
6.573898678414097,-0.17532351633815274
6.60726872246696,-0.16204719310646368
6.640638766519824,-0.04304214852821707
6.674008810572688,0.1607426736892065
6.707378854625551,0.39489286246048816
6.740748898678414,0.5935867575118069
6.774118942731278,0.7063639784530191
6.807488986784141,0.716927844225056
6.840859030837005,0.6451020226148065
6.874229074889868,0.5316456941036107
6.9075991189427315,0.4145767045007842
6.940969162995595,0.31001735700208527
6.974339207048458,0.20777120948097366
7.007709251101322,0.08331910870510474
7.041079295154185,-0.08145944506612116
7.074449339207049,-0.2813402418783798
7.107819383259912,-0.48460190045936835
7.141189427312775,-0.6455789729664686
7.174559471365639,-0.7260038501975388
7.207929515418503,-0.713667203961186
7.241299559471366,-0.6287854628248561
7.274669603524229,-0.5151279754037204
7.308039647577092,-0.4205179508843386
7.3414096916299565,-0.37602459396338783
7.37477973568282,-0.38321813816584915
7.408149779735683,-0.41480933847164797
7.441519823788546,-0.4279587190823863
7.47488986784141,-0.3841048249454022
7.508259911894274,-0.26646346615626176
7.541629955947137,-0.08744694242840048
7.575,0.1172584232894326
7.608370044052863,0.3051599044939117
7.641740088105728,0.44617670622379035
7.675110132158591,0.5352344315153421
7.708480176211454,0.5916855110130317
7.741850220264317,0.6452453534372219
7.775220264317181,0.7150588920905683
7.808590308370045,0.792750895410734
7.841960352422908,0.8394334235332402
7.875330396475771,0.8004865338009222
7.9087004405286345,0.6329883852999256
7.942070484581498,0.3332100186667766
7.975440528634362,-0.05027280140426163
8.008810572687224,-0.4267857439798393
8.042180616740088,-0.6950922877600352
8.075550660792953,-0.7832013959783352
8.108920704845815,-0.6781849168272535
8.142290748898679,-0.4317101200792439
8.175660792951541,-0.13848067582140708
8.209030837004406,0.10215764282150105
8.24240088105727,0.2234750814161467
8.275770925110132,0.21108048988974404
8.309140969162996,0.09835265788924767
8.342511013215859,-0.056963457440351535
8.375881057268723,-0.201278265412117
8.409251101321587,-0.30465755398003824
8.44262114537445,-0.36393763171180116
8.475991189427313,-0.3916713499130544
8.509361233480176,-0.4001132951664825
8.54273127753304,-0.3904807367569125
8.576101321585904,-0.3530129757540673
8.609471365638766,-0.2761897339161197
8.64284140969163,-0.15811155909596833
8.676211453744493,-0.0123102945280049
8.709581497797357,0.13585480397723224
8.742951541850221,0.2601333385411914
8.776321585903084,0.3451737551869973
8.809691629955948,0.3923220242052404
8.84306167400881,0.41629054228350326
8.876431718061674,0.43497359855606715
8.909801762114538,0.4585119488560381
8.9431718061674,0.48374224755089174
8.976541850220265,0.49661868867224507
9.009911894273127,0.4804601177830567
9.043281938325991,0.42489503683947877
9.076651982378856,0.33070665913473185
9.110022026431718,0.20873829327192897
9.143392070484582,0.07443181051674505
9.176762114537445,-0.058573210989227555
9.210132158590309,-0.18266223693906547
9.243502202643173,-0.29684318197297405
9.276872246696035,-0.40404695129304985
9.3102422907489,-0.5066007882157911
9.343612334801762,-0.601829117639725
9.376982378854626,-0.6797672258328259
9.41035242290749,-0.7244836431610617
9.443722466960352,-0.7192605315572592
9.477092511013216,-0.6540182184996797
9.510462555066079,-0.5317289649830392
9.543832599118943,-0.37029695188264683
9.577202643171807,-0.1980839658229679
9.61057268722467,-0.044343754331952534
9.643942731277534,0.07132614860044223
9.677312775330396,0.14552024323877602
9.71068281938326,0.19034282000104388
9.744052863436124,0.2259267821006518
9.777422907488987,0.27005416397894766
9.81079295154185,0.3301494204645487
9.844162995594713,0.401395870165992
9.877533039647577,0.4712029676099653
9.910903083700441,0.5267770993637477
9.944273127753304,0.5611226112395191
9.977643171806168,0.5741837434071999
10.01101321585903,0.5691091465317125
10.044383259911895,0.5467495600815568
10.077753303964759,0.5025805149836254
10.111123348017621,0.4286287277076548
10.144493392070485,0.31967325353429027
10.177863436123348,0.1800501417269685
10.211233480176212,0.026668195737107898
10.244603524229076,-0.11419746797062912
10.277973568281938,-0.21536604045110389
10.311343612334802,-0.2587226255273682
10.344713656387665,-0.24230365513919178
10.378083700440529,-0.18162533774661924
10.411453744493393,-0.10496314806912745
10.444823788546255,-0.044564001394379056
10.47819383259912,-0.026950018765620847
10.511563876651982,-0.06546579662306833
10.544933920704846,-0.15730375799428836
10.57830396475771,-0.28572442965194694
10.611674008810573,-0.4263998177961049
10.645044052863437,-0.5552693656695854
10.678414096916299,-0.6547200275503535
10.711784140969163,-0.7157972894782112
10.745154185022027,-0.7362927163789901
10.77852422907489,-0.7168163902469943
10.811894273127754,-0.6579307846150916
10.845264317180618,-0.5603837755580952
10.87863436123348,-0.4280441869983906
10.912004405286345,-0.2709225143680594
10.945374449339207,-0.1051966499333084
10.978744493392071,0.05109774032003502
11.012114537444935,0.18509523865332617
11.045484581497798,0.294919892290883
11.078854625550662,0.3903325648808197
11.112224669603524,0.4868006470359263
11.145594713656388,0.5953899459182662
11.178964757709252,0.7136428558852802
11.212334801762115,0.8225442561985441
11.245704845814979,0.8917132908146587
11.279074889867841,0.8908032796359833
11.312444933920705,0.8020977980065067
11.34581497797357,0.6289565406269333
11.379185022026432,0.3969240510295772
11.412555066079296,0.14749758700257487
11.445925110132158,-0.07289311322176953
11.479295154185023,-0.22505082770546747
11.512665198237887,-0.2868984690143132
11.546035242290749,-0.25861842132259966
11.579405286343613,-0.16187119091868962
11.612775330396476,-0.03346148580603399
11.64614537444934,0.08460941458323418
11.679515418502204,0.15571577825588415
11.712885462555066,0.15686226270025883
11.74625550660793,0.08285841820647764
11.779625550660793,-0.05374360363432521
11.812995594713657,-0.2260307479445812
11.846365638766521,-0.3984112220284562
11.879735682819383,-0.5339971011820734
11.913105726872248,-0.6031098862947075
11.94647577092511,-0.591480030539736
11.979845814977974,-0.5055305590149705
12.013215859030838,-0.37186799103510126
12.0465859030837,-0.22965564963875879
12.079955947136565,-0.117580308911523
12.113325991189427,-0.060079417749397304
12.146696035242291,-0.05854587935786853
12.180066079295155,-0.09150100912548177
12.213436123348018,-0.12392358227717859
12.246806167400882,-0.12192011159748564
12.280176211453744,-0.06667404117612562
12.313546255506608,0.037916404364557836
12.346916299559473,0.16673124552260885
12.380286343612335,0.2831857974714901
12.413656387665199,0.3533058833851311
12.447026431718061,0.3587265707757208
12.480396475770926,0.3037242156772795
12.51376651982379,0.21356514929184744
12.547136563876652,0.12456899934289227
12.580506607929516,0.06935510587619696
12.613876651982379,0.06276778765282105
12.647246696035243,0.0942069192497079
12.680616740088107,0.130225476561133
12.71398678414097,0.12761311776485834
12.747356828193833,0.05280479769911002
12.780726872246696,-0.10000176957985045
12.81409691629956,-0.3003870471765882
12.847466960352424,-0.4883042817145227
12.880837004405286,-0.5950099564491409
12.91420704845815,-0.5707441229605698
12.947577092511013,-0.4073143788407447
12.980947136563877,-0.14474375081269436
13.014317180616741,0.142328532829434
13.047687224669604,0.37349990591428245
13.081057268722468,0.4942366030683101
13.11442731277533,0.496153697741791
13.147797356828194,0.41704453829978483
13.181167400881058,0.3212904415263965
13.21453744493392,0.2702549343934035
13.247907488986785,0.29625498646154
13.281277533039647,0.39104685989140964
13.314647577092511,0.512279777901421
13.348017621145376,0.6031247087395645
13.381387665198238,0.6152830477352653
13.414757709251102,0.525700029069986
13.448127753303964,0.3416258123334763
13.481497797356829,0.09440107338667923
13.514867841409693,-0.17335815351218756
13.548237885462555,-0.42113200151333113
13.58160792951542,-0.6197315886851283
13.614977973568282,-0.7544764679987583
13.648348017621146,-0.8231046182370746
13.68171806167401,-0.8308556185208164
13.715088105726872,-0.785481924367997
13.748458149779736,-0.6942263026481273
13.781828193832599,-0.5635987645100244
13.815198237885463,-0.4015543111864326
13.848568281938327,-0.2206764544877539
13.88193832599119,-0.04037795157897128
13.915308370044054,0.11384183843147815
13.948678414096916,0.21514813057070437
13.98204845814978,0.24342908211804964
14.015418502202644,0.1938836359686534
14.048788546255507,0.0820936620835438
14.08215859030837,-0.05782049398461533
14.115528634361233,-0.18259640330354882
14.148898678414097,-0.2536890362625338
14.182268722466961,-0.24987709853492487
14.215638766519824,-0.17305730119932228
14.249008810572688,-0.0447639419893762
14.28237885462555,0.10459136166480498
14.315748898678414,0.24833705894460348
14.349118942731279,0.37201119249307474
14.382488986784141,0.47419490529086317
14.415859030837005,0.5604277641034328
14.449229074889868,0.6345141303654367
14.482599118942732,0.6925698908475266
14.515969162995596,0.7231791359090889
14.549339207048458,0.7132857169334037
14.582709251101322,0.6561205125232135
14.616079295154185,0.5563774530621507
14.649449339207049,0.42948366084870143
14.682819383259913,0.2951723721709083
14.716189427312775,0.16879990284896762
14.74955947136564,0.05517754391723439
14.782929515418502,-0.05165667556716685
14.816299559471366,-0.16262702160184017
14.84966960352423,-0.285097312314123
14.883039647577093,-0.41647328746899354
14.916409691629957,-0.5434612029896493
14.94977973568282,-0.6472274318238594
14.983149779735683,-0.71146102517807
15.016519823788547,-0.7290222664591179
15.04988986784141,-0.7040441690479127
15.083259911894274,-0.6490953225248169
15.116629955947138,-0.5795787713100288
15.15,-0.5085222689023109
15.183370044052865,-0.44399454849634157
15.216740088105727,-0.3893767218254175
15.250110132158591,-0.3449648573033709
15.283480176211455,-0.3089118569041679
15.316850220264318,-0.2765030889043798
15.350220264317182,-0.2384843281711092
15.383590308370044,-0.1804877925213485
15.416960352422908,-0.0856264823824619
15.450330396475772,0.059157542032891815
15.483700440528635,0.25478258341908516
15.517070484581499,0.4835949547631163
15.550440528634361,0.709063841398431
15.583810572687225,0.8839237785688238
15.61718061674009,0.9653147182952722
15.650550660792952,0.9315408488245316
15.683920704845816,0.7930991128314159
15.717290748898678,0.592022875569967
15.750660792951543,0.3881668607386058
15.784030837004407,0.23696475742076878
15.817400881057269,0.16764750547400945
15.850770925110133,0.17155321218259761
15.884140969162996,0.20628936871869344
15.91751101321586,0.21462426228493334
15.950881057268724,0.1502257439530447
15.984251101321586,-0.0009753524944767452
16.01762114537445,-0.21319986168900548
16.050991189427315,-0.43023617765486016
16.084361233480177,-0.5875337908045095
16.11773127753304,-0.6373418523264046
16.151101321585905,-0.5665152692054547
16.184471365638768,-0.4003946002462369
16.21784140969163,-0.19234899613076695
16.251211453744492,-0.004217737577137401
16.284581497797358,0.11427643979458262
16.31795154185022,0.1397522705077039
16.351321585903083,0.0789937189233943
16.38469162995595,-0.03737491672932116
16.41806167400881,-0.1675961001363441
16.451431718061674,-0.27248344292219634
16.48480176211454,-0.32533977990723006
16.518171806167402,-0.3156862429515958
16.551541850220264,-0.24745983916087652
16.584911894273127,-0.13460756691853043
16.618281938325993,0.0027116555095106974
16.651651982378855,0.13994284136801782
16.685022026431717,0.2492830175463285
16.718392070484583,0.30298193085732045
16.751762114537446,0.28052727958808
16.785132158590308,0.1781559420747203
16.818502202643174,0.015825035779881726
16.851872246696036,-0.16393113307446797
16.8852422907489,-0.30773719217013074
16.91861233480176,-0.370553375286828
16.951982378854627,-0.33416802321328193
16.98535242290749,-0.21579784607137012
17.01872246696035,-0.061573880387112825
17.052092511013218,0.07303186545808638
17.08546255506608,0.1470497230252423
17.118832599118942,0.1508458785552928
17.152202643171808,0.10786744848327111
17.18557268722467,0.06053029315136009
17.218942731277533,0.04723036374304196
17.2523127753304,0.08185925290069568
17.28568281938326,0.14615582172395605
