Frequency (Hz),Amplitude
0.0,3.288421308366342
0.020066889632107024,3.292936031857355
0.04013377926421405,3.306425650754755
0.060200668896321065,3.3287287847213314
0.0802675585284281,3.3595838184930806
0.10033444816053512,3.398639168365452
0.12040133779264213,3.445466269347039
0.14046822742474915,3.4995741794496875
0.1605351170568562,3.5604247039557815
0.1806020066889632,3.627447078775655
0.20066889632107024,3.700051471030234
0.22073578595317725,3.7776408057941278
0.24080267558528426,3.8596206677862095
0.2608695652173913,3.9454072274884338
0.2809364548494983,4.034433289698486
0.3010033444816054,4.126152658091229
0.3210702341137124,4.2200430589832605
0.34113712374581934,4.315607881764032
0.3612040133779264,4.412376983452745
0.3812709030100334,4.509906780266469
0.4013377926421405,4.607779817479737
0.42140468227424743,4.705603975506284
0.4414715719063545,4.803011438376408
0.4615384615384615,4.899657522451531
0.4816053511705685,4.995219439084594
0.5016722408026756,5.089395045095974
0.5217391304347826,5.181901619089951
0.5418060200668896,5.272474689293913
0.5618729096989966,5.360866929204043
0.5819397993311036,5.446847130322941
0.6020066889632107,5.530199256184115
0.6220735785953176,5.610721578253146
0.6421404682274248,5.688225891825912
0.6622073578595318,5.762536808428045
0.6822742474916387,5.833491120234376
0.7023411371237458,5.900937231499222
0.7224080267558528,5.964734651786849
0.7424749163879598,6.02475354581575
0.7625418060200668,6.08087433490782
0.7826086956521738,6.1329873453090435
0.802675585284281,6.180992498983511
0.8227424749163879,6.224799042849379
0.8428093645484949,6.264325312805114
0.862876254180602,6.299498529273512
0.882943143812709,6.330254621362285
0.903010033444816,6.356538077097744
0.923076923076923,6.378301817530367
0.9431438127090299,6.395507092837373
0.963210702341137,6.408123398857492
0.983277591973244,6.416128412789309
1.0033444816053512,6.419507947068256
1.0234113712374582,6.418255920710811
1.0434782608695652,6.412374347680541
1.0635451505016722,6.401873342092105
1.0836120401337792,6.386771140328571
1.1036789297658862,6.367094140407839
1.1237458193979932,6.342876959197933
1.1438127090301002,6.314162508351562
1.1638795986622072,6.281002090110283
1.1839464882943145,6.243455514419873
1.2040133779264215,6.201591239104363
1.2240802675585283,6.15548653516659
1.2441471571906353,6.105227679621244
1.2642140468227423,6.0509101786201285
1.2842809364548495,5.99263902399874
1.3043478260869565,5.930528986753957
1.3244147157190636,5.864704951348443
1.3444816053511706,5.795302295117906
1.3645484949832773,5.7224673174162275
1.3846153846153846,5.646357723447979
1.4046822742474916,5.567143167973614
1.4247491638795986,5.485005864183475
1.4448160535117056,5.400141262957999
1.4648829431438126,5.31275880737546
1.4849498327759196,5.223082766578634
1.5050167224080266,5.131353151813683
1.5250836120401337,5.037826715407377
1.5451505016722407,4.942778030396627
1.5652173913043477,4.846500644145123
1.5852842809364547,4.749308293182035
1.605351170568562,4.6515361582093275
1.625418060200669,4.553542127215379
1.6454849498327757,4.455708020334919
1.6655518394648827,4.3584407119628565
1.6856187290969897,4.262173063243375
1.705685618729097,4.16736455128901
1.725752508361204,4.074501450756513
1.745819397993311,3.9840963900183612
1.765886287625418,3.89668707073867
1.7859531772575248,3.8128339105889473
1.806020066889632,3.7331163507048872
1.826086956521739,3.6581275711887815
1.846153846153846,3.5884673902901794
1.866220735785953,3.5247331971730187
1.8862876254180598,3.4675088936858303
1.9063545150501673,3.417352000693536
1.926421404682274,3.37477931225156
1.9464882943143813,3.34025173471653
1.966555183946488,3.314159190590346
1.9866220735785953,3.296806649221704
2.0066889632107023,3.2884024169101838
2.026755852842809,3.2890497383408577
2.0468227424749164,3.298742518103946
2.0668896321070234,3.3173655908249415
2.0869565217391304,3.344699511816696
2.1070234113712374,3.380429388682348
2.1270903010033444,3.4241569080286736
2.1471571906354514,3.475414487327235
2.1672240802675584,3.5336804208344046
2.1872909698996654,3.5983939748091034
2.2073578595317724,3.6689695795753154
2.2274247491638794,3.7448095123150726
2.2474916387959865,3.8253147166686805
2.267558528428094,3.9098936279007592
2.2876254180602005,3.997969045975821
2.3076923076923075,4.088983217828232
2.3277591973244145,4.182401358753119
2.3478260869565215,4.277713870889753
2.367892976588629,4.374437515576264
2.3879598662207355,4.472115776522897
2.408026755852843,4.570318620900413
2.4280936454849495,4.668641831869989
2.4481605351170566,4.7667060529475505
2.468227424749164,4.864155654332114
2.4882943143812706,4.960657505108294
2.508361204013378,5.05589971339471
2.5284280936454846,5.149590378880946
2.548494983277592,5.241456388334648
2.568561872909699,5.331242274015704
2.5886287625418056,5.418709146940764
2.608695652173913,5.503633711073714
2.6287625418060196,5.585807360318424
2.648829431438127,5.665035357273746
2.668896321070234,5.741136090765458
2.688963210702341,5.813940407945384
2.709030100334448,5.883291016051371
2.7290969899665547,5.949041948602972
2.749163879598662,6.011058090754134
2.769230769230769,6.0692147586516585
2.789297658862876,6.12339732789415
2.809364548494983,6.173500906506462
2.82943143812709,6.219430048205996
2.849498327759197,6.26109850211831
2.869565217391304,6.2984289954844135
2.8896321070234112,6.331353046281218
2.9096989966555182,6.359810803043694
2.9297658862876252,6.383750909529447
2.9498327759197323,6.403130392201807
2.9698996655518393,6.417914568826733
2.9899665551839463,6.428076976783037
3.0100334448160533,6.4335993199758335
3.0301003344481603,6.434471433522716
3.0501672240802673,6.430691265652859
3.0702341137123748,6.422264876524391
3.0903010033444813,6.409206453926995
3.1103678929765888,6.391538346098799
3.1304347826086953,6.369291112150873
3.1505016722408024,6.342503590863312
3.1705685618729094,6.311222988895373
3.1906354515050164,6.275504989742581
3.210702341137124,6.2354138850772935
3.2307692307692304,6.191022730428934
3.250836120401338,6.142413527497118
3.270903010033445,6.0896774357456565
3.2909698996655514,6.032915016298245
3.311036789297659,5.972236511544173
3.3311036789297654,5.907762164260801
3.351170568561873,5.839622580460311
3.3712374581939795,5.767959140558238
3.391304347826087,5.692924463821565
3.411371237458194,5.6146829313559525
3.4314381270903005,5.533411273095024
3.451505016722408,5.449299224303781
3.471571906354515,5.362550256926317
3.491638795986622,5.2733823905916
3.511705685618729,5.182029087102566
3.531772575250836,5.088740230591751
3.551839464882943,4.9937831929966485
3.5719063545150496,4.897443980793208
3.591973244147157,4.800028453654107
3.612040133779264,4.701863598422919
3.632107023411371,4.603298831989598
3.652173913043478,4.5047072937349535
3.672240802675585,4.406487071582376
3.692307692307692,4.309062284820755
3.712374581939799,4.212883921413682
3.732441471571906,4.118430297577959
3.752508361204013,4.0262069738189785
3.7725752508361197,3.936745926313636
3.7926421404682276,3.8506037391195256
3.8127090301003346,3.7683585568603495
3.832775919732441,3.690605527422677
3.852842809364548,3.617950480257984
3.872909698996655,3.551001640016232
3.8929765886287626,3.4903592787227766
3.9130434782608696,3.4366033697678082
3.933110367892976,3.390279522155169
3.953177257525083,3.351883728862319
3.9732441471571907,3.3218467273993366
3.9933110367892977,3.3005189969548065
4.013377926421405,3.288157550052541
4.033444816053511,3.2849156680952682
4.053511705685618,3.290836552397574
4.073578595317726,3.3058515240234705
4.093645484949833,3.3297829554388603
4.113712374581939,3.362351633378132
4.133779264214047,3.403187823430085
4.153846153846153,3.4518450054418413
4.173913043478261,3.507815113830937
4.193979933110368,3.570544147206035
4.214046822742475,3.639447173153104
4.234113712374581,3.713921994468444
4.254180602006689,3.7933610086889447
4.274247491638796,3.8771610401671053
4.294314381270903,3.9647311260057254
4.314381270903009,4.055498382760025
4.334448160535117,4.1489121710971535
4.354515050167224,4.244446819181633
4.374581939799331,4.341603174108287
4.394648829431437,4.439909235894213
4.414715719063545,4.5389201002764015
4.434782608695651,4.638217402344364
4.454849498327759,4.737408417993002
4.474916387959866,4.836124947442135
4.494983277591973,4.93402207627011
4.5150501672240795,5.030776885155325
4.535117056856188,5.12608715977468
4.555183946488294,5.21967013667773
4.575250836120401,5.311261308881555
4.595317725752508,5.40061330581514
4.615384615384615,5.487494855514344
4.635451505016722,5.571689832123037
4.655518394648829,5.652996388365652
4.6755852842809364,5.731226170369427
4.695652173913043,5.806203610751187
4.71571906354515,5.877765295023404
4.735785953177258,5.945759395948685
4.7558528428093645,6.010045170352128
4.775919732441471,6.070492512991197
4.795986622073578,6.1269815623121096
4.816053511705686,6.179402353238443
4.8361204013377925,6.227654512505251
4.856187290969899,6.271646992444163
4.8762541806020065,6.311297839524499
4.896321070234113,6.3465339943503984
4.916387959866221,6.377291120197398
4.936454849498328,6.4035134575396775
4.956521739130435,6.425153702369407
4.976588628762541,6.442172906442454
4.996655518394649,6.454540397900806
5.016722408026756,6.4622337210232335
5.036789297658863,6.465238594144436
5.056856187290969,6.46354888506131
5.076923076923077,6.457166603516357
5.096989966555184,6.446101910615288
5.117056856187291,6.4303731453016075
5.137123745819398,6.41000686827865
5.157190635451505,6.3850379240420665
5.177257525083611,6.355509521966367
5.197324414715719,6.321473337680661
5.217391304347826,6.282989636273943
5.237458193979933,6.240127419192024
5.257525083612039,6.192964597028194
5.277591973244148,6.141588190769543
5.297658862876254,6.08609456444155
5.317725752508361,6.026589692493063
5.337792642140468,5.963189465680281
5.357859531772575,5.896020039635426
5.377926421404682,5.825218230733322
5.397993311036789,5.750931964281868
5.418060200668896,5.673320780436985
5.438127090301003,5.592556403545182
5.458193979933109,5.50882338079942
5.478260869565218,5.422319796090441
5.498327759197324,5.333258064654292
5.518394648829431,5.241865813435226
5.538461538461538,5.14838685083719
5.558528428093646,5.0530822275125935
5.578595317725752,4.9562313867570635
5.598662207357859,4.858133398592692
5.618729096989966,4.759108265296508
5.638795986622073,4.659498277445406
5.65886287625418,4.559669387902182
5.678929765886288,4.460012555908838
5.698996655518394,4.360944993937914
5.719063545150501,4.262911225658242
5.739130434782608,4.166383834079291
5.759197324414716,4.071863745013363
5.7792642140468224,3.9798798537780424
5.799331103678929,3.890987765362145
5.8193979933110365,3.805767384936799
5.839464882943144,3.7248190739651377
5.8595317725752505,3.6487580873237238
5.879598662207358,3.578207041135321
5.8996655518394645,3.513786242504085
5.919732441471571,3.4561018518598434
5.9397993311036785,3.405732050204697
5.959866220735786,3.3632116390678535
5.9799331103678925,3.3290157853805633
5.999999999999999,3.303543893428116
6.020066889632107,3.2871047844041383
6.040133779264214,3.2799044319219433
6.060200668896321,3.2820373958927704
6.080267558528428,3.29348280769363
6.100334448160535,3.314105320351033
6.120401337792642,3.343660922239749
6.1404682274247495,3.3818070166142613
6.160535117056856,3.428115781775352
6.180602006688963,3.4820896073128456
6.200668896321069,3.5431773669795392
6.2207357859531776,3.610790413674939
6.240802675585284,3.6843174151434526
6.260869565217391,3.7631374302943663
6.280936454849498,3.8466309028666075
6.301003344481605,3.9341884852027618
6.321070234113712,4.025217782179063
6.341137123745819,4.11914822112713
6.361204013377926,4.215434315167807
6.381270903010033,4.313557606883545
6.40133779264214,4.413027569704102
6.421404682274248,4.513381717308145
6.441471571906354,4.614185135748186
6.461538461538461,4.715029615202108
6.481605351170568,4.815532522214345
6.501672240802676,4.915335521184287
6.521739130434782,5.0141032265953545
6.54180602006689,5.111521845156088
6.561872909698996,5.207297849283681
6.581939799331103,5.301156709616794
6.60200668896321,5.392841703844896
6.622073578595318,5.482112811451579
6.642140468227424,5.568745698420549
6.662207357859531,5.652530792060779
6.682274247491639,5.733272443472303
6.702341137123746,5.81078817347731
6.722408026755852,5.884907996831809
6.742474916387959,5.955473819018533
6.762541806020066,6.022338899755354
6.782608695652174,6.085367377426211
6.80267558528428,6.144433848872579
6.822742474916388,6.199422999314365
6.842809364548494,6.250229277557899
6.862876254180601,6.296756612066208
6.882943143812709,6.338918163892638
6.903010033444816,6.376636112900682
6.9230769230769225,6.409841474101265
6.94314381270903,6.4384739413303675
6.963210702341137,6.462481755861517
6.983277591973244,6.481821597899803
7.0033444816053505,6.496458499237341
7.023411371237458,6.506365775666284
7.0434782608695645,6.511524978047049
7.063545150501672,6.511925861219105
7.083612040133779,6.507566370222349
7.103678929765886,6.498452643572191
7.123745819397993,6.484599033603789
7.143812709030099,6.466028144174293
7.1638795986622075,6.442770886289242
7.183946488294314,6.4148665525042725
7.204013377926421,6.382362911248855
7.224080267558528,6.345316322528646
7.2441471571906355,6.303791876789691
7.264214046822742,6.257863559074438
7.2842809364548495,6.207614440968356
7.304347826086956,6.153136903228481
7.324414715719063,6.0945328924018565
7.34448160535117,6.031914215181846
7.364548494983278,5.965402874709294
7.384615384615384,5.895131453497497
7.404682274247491,5.821243548132316
7.424749163879598,5.743894261353826
7.444816053511706,5.663250757535585
7.464882943143812,5.579492887902024
7.48494983277592,5.492813892006852
7.505016722408026,5.40342118195611
7.525083612040134,5.311537215490224
7.545150501672239,5.217400463192114
7.565217391304348,5.12126647356788
7.585284280936455,5.023409037294088
7.605351170568561,4.92412144820982
7.625418060200669,4.823717853231034
7.645484949832775,4.722534675761563
7.665551839464882,4.6209320867501305
7.685618729096991,4.519295483589147
7.705685618729096,4.418036918817397
7.725752508361204,4.317596397359981
7.74581939799331,4.218442932294227
7.765886287625418,4.121075214785967
7.785953177257525,4.026021714620371
7.806020066889631,3.9338399856870487
7.826086956521739,3.845114909826359
7.846153846153847,3.7604555791334113
7.866220735785952,3.6804905007363464
7.88628762541806,3.605860821863693
7.906354515050166,3.5372113314239
7.926421404682274,3.475179111700637
7.946488294314381,3.4203798998128256
7.966555183946488,3.373392472416245
7.986622073578595,3.33474167100491
8.006688963210701,3.304881000402213
8.02675585284281,3.2841760012825008
8.046822742474916,3.272889750440605
8.066889632107022,3.2711718194130777
8.08695652173913,3.2790517917995547
8.107023411371236,3.296438017703332
8.127090301003344,3.32312173573607
8.147157190635452,3.3587861203742735
8.167224080267557,3.4030193236610407
8.187290969899665,3.4553302595765536
8.207357859531772,3.5151657651670387
8.227424749163879,3.5819278527906
8.247491638795987,3.6549899925107616
8.267558528428093,3.733711665329803
8.2876254180602,3.8174507422057555
8.307692307692307,3.9055735226978707
8.327759197324415,3.9974624838961748
8.347826086956522,4.092521937357882
8.367892976588628,4.190181874845474
8.387959866220736,4.289900315609881
8.408026755852843,4.391164463706579
8.42809364548495,4.4934909570961326
8.448160535117056,4.59642545202138
8.468227424749163,4.6995417442016105
8.488294314381271,4.802440587752419
8.508361204013378,4.904748336233925
8.528428093645484,5.006115499088241
8.548494983277592,5.106215281176463
8.568561872909697,5.204742152809681
8.588628762541806,5.301410481940881
8.608695652173914,5.395953248301816
8.628762541806019,5.488120850501152
8.648829431438127,5.577680010790672
8.668896321070234,5.66441277779392
8.68896321070234,5.7481156245155125
8.709030100334449,5.828598637040529
8.729096989966555,5.905684788204305
8.749163879598662,5.979209289941557
8.769230769230768,6.049019017843681
8.789297658862875,6.1149720015391935
8.809364548494983,6.176936974773674
8.82943143812709,6.234792979436074
8.849498327759196,6.28842901821088
8.869565217391303,6.337743750997731
8.889632107023411,6.382645230709681
8.909698996655518,6.423050674523469
8.929765886287624,6.458886267101619
8.949832775919733,6.4900869927313325
8.96989966555184,6.516596493727327
8.989966555183946,6.53836695282456
9.010033444816054,6.555358997643487
9.030100334448159,6.567541625647021
9.050167224080267,6.5748921483275025
9.070234113712376,6.577396153666787
9.09030100334448,6.575047486206292
9.110367892976589,6.5678482443498085
9.130434782608695,6.555808794804126
9.150501672240802,6.53894780434405
9.17056856187291,6.517292289373212
9.190635451505017,6.490877684044166
9.210702341137123,6.459747928003673
9.23076923076923,6.4239555751460795
9.250836120401337,6.383561925092983
9.270903010033445,6.3386371794738485
9.290969899665551,6.289260625463923
9.311036789297658,6.23552084944472
9.331103678929765,6.177515984091127
9.351170568561873,6.115353992657878
9.37123745819398,6.049152994736233
9.391304347826086,5.979041638274891
9.411371237458194,5.905159523200079
9.4314381270903,5.827657682514456
9.451505016722408,5.746699127282505
9.471571906354516,5.66245946238821
9.49163879598662,5.5751275803329765
9.511705685618729,5.484906440559385
9.531772575250837,5.39201394174568
9.551839464882942,5.296683894084764
9.57190635451505,5.199167097563029
9.591973244147155,5.099732530448861
9.612040133779264,4.998668649273668
9.632107023411372,4.89628479713201
9.652173913043477,4.792912710624631
9.672240802675585,4.688908106579964
9.692307692307692,4.584652317055646
9.712374581939798,4.480553924177209
9.732441471571907,4.377050324209171
9.752508361204013,4.274609122041223
9.77257525083612,4.1737292224625815
9.792642140468226,4.074941443269315
9.812709030100335,3.9788084286036125
9.832775919732441,3.885923591952152
9.852842809364548,3.7969087725099295
9.872909698996656,3.71241025508969
9.89297658862876,3.6330927952037357
9.91304347826087,3.559631323642791
9.933110367892976,3.4927000968124746
9.953177257525082,3.4329592260668185
9.97324414715719,3.3810387686979646
9.993311036789297,3.337520886281388
10.013377926421404,3.3029209405791744
10.033444816053512,3.277668745074185
10.053511705685617,3.262091443575321
10.073578595317725,3.2563995657355695
10.093645484949834,3.2606776553229055
10.113712374581938,3.2748804717460627
10.133779264214047,3.2988351815643155
10.153846153846153,3.332249291231885
10.17391304347826,3.3747234564046447
10.193979933110368,3.4257678529814752
10.214046822742475,3.4848205786175903
10.234113712374581,3.55126657671246
10.254180602006688,3.6244557904735486
10.274247491638796,3.703719585451823
10.294314381270903,3.7883848445684887
10.31438127090301,3.8777854762215496
10.334448160535118,3.971271344982958
10.354515050167223,4.068214821589694
10.37458193979933,4.1680152584393735
10.394648829431437,4.2701017429105255
10.414715719063544,4.373934481349115
10.434782608695652,4.4790051383663645
10.454849498327757,4.58483641285411
10.474916387959865,4.690981083690801
10.494983277591974,4.797020710819889
10.515050167224079,4.902564134790904
10.535117056856187,5.007245881548065
10.555183946488295,5.110724549545969
10.5752508361204,5.212681232749663
10.595317725752508,5.3128180149613815
10.615384615384615,5.41085655731424
10.635451505016722,5.506536790807992
10.65551839464883,5.59961571865061
10.675585284280936,5.689866328245375
10.695652173913043,5.777076609382479
10.71571906354515,5.861048673126225
10.735785953177256,5.941597964697739
10.755852842809364,6.018552563083323
10.775919732441471,6.09175255995996
10.795986622073578,6.161049510679087
10.816053511705684,6.226305950385854
10.836120401337793,6.287394968800259
10.856187290969899,6.344199837695909
10.876254180602006,6.3966136856476785
10.896321070234114,6.444539215155959
10.916387959866219,6.487888457778589
10.936454849498327,6.526582563401986
10.956521739130435,6.560551620256202
10.97658862876254,6.589734502722508
