Time (s),Filtered Signal
0.0,0.024938006407192504
0.033370535714285714,0.5060088623709488
0.06674107142857143,0.8946669885398346
0.10011160714285713,1.1327685275771273
0.13348214285714285,1.2118579376162026
0.16685267857142858,1.1642427129132114
0.20022321428571427,1.0372938061967225
0.23359375,0.8678729834855207
0.2669642857142857,0.671530645532613
0.30033482142857143,0.45001644715880007
0.33370535714285715,0.20855104619834283
0.36707589285714287,-0.03107872866787869
0.40044642857142854,-0.23159604926237654
0.43381696428571426,-0.3556185872074492
0.4671875,-0.38619765013763047
0.5005580357142857,-0.3399455442954502
0.5339285714285714,-0.2640773708667914
0.5672991071428571,-0.2173307823714475
0.6006696428571429,-0.24338692269707612
0.6340401785714286,-0.34966170755692266
0.6674107142857143,-0.5020529043482489
0.70078125,-0.6385804861593186
0.7341517857142857,-0.6957507735595732
0.7675223214285715,-0.6355611889940529
0.8008928571428571,-0.46121408101923367
0.8342633928571428,-0.21537158223428488
0.8676339285714285,0.037144744401414825
0.9010044642857142,0.23396088068633258
0.934375,0.33674424491602944
0.9677455357142857,0.3418068637976187
1.0011160714285714,0.27681029631169524
1.0344866071428571,0.18618158660026696
1.0678571428571428,0.11187869117237687
1.1012276785714286,0.07747551658493462
1.1345982142857143,0.08178887014230332
1.16796875,0.104020525613984
1.2013392857142857,0.11724444374175642
1.2347098214285714,0.10329595106973828
1.2680803571428572,0.061658436347584784
1.3014508928571429,0.008241441024067257
1.3348214285714286,-0.034591934566084226
1.3681919642857143,-0.050721139810864534
1.4015625,-0.0384321526089317
1.4349330357142858,-0.009687370936106537
1.4683035714285715,0.018590474979371784
1.5016741071428572,0.03575818323984702
1.535044642857143,0.04447512219599011
1.5684151785714286,0.059345670935083444
1.6017857142857141,0.09784920112565364
1.6351562499999999,0.16856863416545242
1.6685267857142856,0.26327223375844044
1.7018973214285713,0.35746075928631893
1.735267857142857,0.4196837213127105
1.7686383928571427,0.4254319601615679
1.8020089285714285,0.36886904423943656
1.8353794642857142,0.26629021699583216
1.86875,0.14884848950769697
1.9021205357142856,0.047276734598419815
1.9354910714285714,-0.024261763392920653
1.968861607142857,-0.07670527437761654
2.002232142857143,-0.14136104707080407
2.0356026785714287,-0.25254211880109856
2.0689732142857142,-0.4251742905587145
2.10234375,-0.6389043556300048
2.1357142857142857,-0.8384230088685671
2.169084821428571,-0.9523370572212543
2.202455357142857,-0.9234314666204224
2.2358258928571426,-0.7365376220241229
2.2691964285714286,-0.4302011968416427
2.302566964285714,-0.08530773270642057
2.3359375,0.20542408800286036
2.3693080357142855,0.37385573735199107
2.4026785714285714,0.402340576731977
2.436049107142857,0.3274485831758409
2.469419642857143,0.2202337227595922
2.5027901785714284,0.15270649764531577
2.5361607142857143,0.16620688559265653
2.56953125,0.25572932989360286
2.6029017857142858,0.3761403042056127
2.6362723214285713,0.4659443044099874
2.669642857142857,0.4767409569173243
2.7030133928571427,0.39491081952239193
2.7363839285714286,0.2464977390463399
2.769754464285714,0.08423701532224294
2.803125,-0.03646887809316156
2.8364955357142856,-0.08139666393456672
2.8698660714285715,-0.05064087775274941
2.903236607142857,0.024148662564926017
2.936607142857143,0.09617398473573968
2.9699776785714285,0.1252151627946287
3.0033482142857144,0.0944782068940308
3.03671875,0.015390236691481488
3.070089285714286,-0.08068315081707016
3.1034598214285714,-0.15875367309386193
3.1368303571428573,-0.19638670460641153
3.170200892857143,-0.19247805847644006
3.2035714285714283,-0.16538323485809941
3.2369419642857142,-0.14210134752672884
3.2703124999999997,-0.14393602419861873
3.3036830357142857,-0.17523880661963182
3.337053571428571,-0.2202867077584601
3.370424107142857,-0.2497904958783893
3.4037946428571426,-0.23434822249409798
3.4371651785714286,-0.15898797124837818
3.470535714285714,-0.03216208965790607
3.50390625,0.11531274486046521
3.5372767857142855,0.24152605862519977
3.5706473214285714,0.3103371760618334
3.604017857142857,0.3062334108700303
3.637388392857143,0.24004906377585555
3.6707589285714284,0.1425023614410657
3.7041294642857143,0.04855828020895399
3.7375,-0.019371205710666608
3.7708705357142858,-0.060351288666355064
3.8042410714285713,-0.09096558025678342
3.837611607142857,-0.130747727186524
3.8709821428571427,-0.18575020602269685
3.9043526785714286,-0.24061872659222514
3.937723214285714,-0.26488673218704206
3.97109375,-0.2306842206786057
4.004464285714286,-0.13171704416107913
4.0378348214285715,0.00814073920095323
4.0712053571428575,0.142747830316031
4.1045758928571425,0.2246828793958901
4.1379464285714285,0.22808059986500562
4.171316964285714,0.16069945901792348
4.2046875,0.05862896653419773
4.238058035714285,-0.033048568482987234
4.271428571428571,-0.08247789677680584
4.304799107142857,-0.08387932076670027
4.338169642857142,-0.0549250744838314
4.371540178571428,-0.021907252607118996
4.404910714285714,-0.002679095026481368
4.43828125,0.002447634113812643
4.471651785714285,0.007540189801329105
4.505022321428571,0.029127571003556667
4.538392857142857,0.0738978715086328
4.571763392857143,0.13368133555894426
4.605133928571428,0.19015856378222185
4.638504464285714,0.22558761914849138
4.671875,0.2325462872002799
4.705245535714286,0.21689250477575603
4.738616071428571,0.19266480314163012
4.771986607142857,0.17246647032502999
4.805357142857143,0.15916875445955547
4.838727678571429,0.14352766935440295
4.872098214285714,0.108713400388171
4.90546875,0.03912928469044258
4.938839285714286,-0.0708500634465306
4.972209821428572,-0.21200673771851042
5.005580357142857,-0.36101194203408427
5.038950892857143,-0.4862836376167516
5.072321428571429,-0.5569493174494305
5.105691964285715,-0.5521977632099307
5.1390625,-0.468271264958836
5.172433035714286,-0.3208566198969303
5.2058035714285715,-0.14171155332016186
5.2391741071428575,0.030006503436026857
5.2725446428571425,0.15938175559857962
5.3059151785714285,0.22658558170964
5.339285714285714,0.23286756129384825
5.3726562499999995,0.19889703084791693
5.406026785714285,0.1553211058578407
5.439397321428571,0.12870411344046664
5.472767857142857,0.12870927289724973
5.506138392857142,0.14300694019234014
5.539508928571428,0.14383643441007612
5.572879464285714,0.10462308883889988
5.60625,0.01881319938345715
5.639620535714285,-0.09010198217120066
5.672991071428571,-0.17544008483246706
5.706361607142857,-0.19022110216322186
5.739732142857143,-0.11493070985083467
5.773102678571428,0.0261109384571846
5.806473214285714,0.17151638570578945
5.83984375,0.25184880349029376
5.873214285714286,0.22645730463717467
5.906584821428571,0.10771447459309615
5.939955357142857,-0.041958533700598453
5.973325892857143,-0.14024667471948035
6.006696428571429,-0.12709694020886245
6.040066964285714,0.0032568318072918067
6.0734375,0.19737355560031433
6.106808035714286,0.36746916307885236
6.140178571428572,0.43329100703125056
6.173549107142857,0.35992203500212594
6.206919642857143,0.173301470905711
6.240290178571429,-0.05291515148818587
6.273660714285715,-0.2314558879663098
6.30703125,-0.2996631752360518
6.340401785714286,-0.24468900044520733
6.3737723214285715,-0.10597134965107231
6.407142857142857,0.043901970041281865
6.4405133928571425,0.1300153539541571
6.4738839285714285,0.1042992707239733
6.507254464285714,-0.03783126182662267
6.5406249999999995,-0.2580402984423793
6.573995535714285,-0.49061475787297393
6.607366071428571,-0.6658390437936489
6.640736607142857,-0.7324083417554101
6.674107142857142,-0.6716558956281043
6.707477678571428,-0.5000443222891945
6.740848214285714,-0.260597381984526
6.77421875,-0.007318063844120833
6.807589285714285,0.21169396279988809
6.840959821428571,0.366946774035664
6.874330357142857,0.45246002557341836
6.907700892857143,0.48212839748393205
6.941071428571428,0.4798391451493172
6.974441964285714,0.46776168792632133
7.0078125,0.4575594825638964
7.041183035714286,0.4476396619331959
7.074553571428571,0.4267094849157049
7.107924107142857,0.3811913428462008
7.141294642857143,0.3026855645211612
7.174665178571429,0.19218446364911534
7.208035714285714,0.0597472588531806
7.24140625,-0.07925774640239056
7.274776785714286,-0.20875171648616161
7.308147321428572,-0.3150131835900674
7.341517857142857,-0.38751879677441
7.374888392857143,-0.41876107548122576
7.408258928571429,-0.404946948611417
7.441629464285715,-0.34837288344265
7.475,-0.26010614811070165
7.508370535714286,-0.16008937362470543
7.5417410714285715,-0.07243324696813187
7.575111607142857,-0.01654595106691923
7.6084821428571425,0.0018479731014958275
7.6418526785714285,-0.00564569753412713
7.675223214285714,-0.015075585960123388
7.7085937499999995,-0.00220434424677935
7.741964285714285,0.04453129556091845
7.775334821428571,0.11755308185557191
7.808705357142857,0.1942157510968012
7.842075892857142,0.2493580448849855
7.875446428571428,0.26908654686648253
7.908816964285714,0.25758165908385944
7.9421875,0.2326964041213081
7.975558035714285,0.21275683081023805
8.008928571428571,0.20235961188146626
8.042299107142856,0.18593950852090907
8.075669642857143,0.13385163385877913
8.109040178571428,0.018878208601366117
8.142410714285715,-0.1649034467002092
8.17578125,-0.39090258521164895
8.209151785714285,-0.6033029488532777
8.242522321428572,-0.7349579937779557
8.275892857142857,-0.7329527666671316
8.309263392857142,-0.5810168076335152
8.342633928571429,-0.30907727183997596
8.376004464285714,0.014379738465039978
8.409375,0.3044758193612813
8.442745535714286,0.4883882113986142
8.47611607142857,0.5296196776266557
8.509486607142858,0.43921045565259065
8.542857142857143,0.26965286030466457
8.576227678571428,0.09355624190449577
8.609598214285715,-0.02490698886877306
8.64296875,-0.05437666922978864
8.676339285714285,-0.006257156451153412
8.709709821428572,0.07408873384622512
8.743080357142857,0.13080125425492048
8.776450892857143,0.1245987263438153
8.809821428571428,0.05071898245000579
8.843191964285714,-0.060346652251884146
8.8765625,-0.15871104671207298
8.909933035714285,-0.19885953457322894
8.94330357142857,-0.1594483266871684
8.976674107142857,-0.050328897957925084
9.010044642857142,0.09475665322156458
9.04341517857143,0.23417204582866744
9.076785714285714,0.3341448923763089
9.11015625,0.3772710563932775
9.143526785714286,0.36208338217193015
9.176897321428571,0.2971694773735277
9.210267857142856,0.1952607084876635
9.243638392857143,0.07074433639894068
9.277008928571428,-0.059877456998978895
9.310379464285715,-0.17784349373595693
9.34375,-0.2651651854389424
9.377120535714285,-0.3105618526269143
9.410491071428572,-0.3147515112608015
9.443861607142857,-0.29087285011714714
9.477232142857142,-0.25850360694282665
9.510602678571429,-0.23395740492229758
9.543973214285714,-0.22224516949582265
9.57734375,-0.21533784298101435
9.610714285714286,-0.19769636797805917
9.64408482142857,-0.15590418850243423
9.677455357142858,-0.08717622641393158
9.710825892857143,-0.002474625820950718
9.744196428571428,0.07701677353928164
9.777566964285715,0.1281259445847555
9.8109375,0.13491840868515775
9.844308035714285,0.09526918495812903
9.877678571428572,0.022504638252783794
9.911049107142857,-0.05837419127814491
9.944419642857143,-0.11872634411579965
9.977790178571428,-0.13602062679514176
10.011160714285714,-0.1017999464830826
10.04453125,-0.02442540644653557
10.077901785714285,0.07506782586183809
10.11127232142857,0.1724251718397462
10.144642857142857,0.25028081040608324
10.178013392857142,0.3035491602432554
10.21138392857143,0.33733884281759685
10.244754464285714,0.3591673115237501
10.278125,0.37075603834729515
10.311495535714286,0.36476687661409446
10.344866071428571,0.32847775097841153
10.378236607142856,0.251915552749314
10.411607142857143,0.13532717767702498
10.444977678571428,-0.008375718370856468
10.478348214285715,-0.15720682648218115
10.51171875,-0.28718497229307954
10.545089285714285,-0.3788831759346966
10.578459821428572,-0.42068206558571336
10.611830357142857,-0.40870969516830374
10.645200892857142,-0.3455913266867669
10.678571428571429,-0.24021961731077293
10.711941964285714,-0.10890271873871753
10.745312499999999,0.024057548203025723
10.778683035714286,0.12923338585159608
10.81205357142857,0.17981916499464642
10.845424107142858,0.16242489623123596
10.878794642857143,0.0859033817639688
10.912165178571428,-0.017604597088867933
10.945535714285715,-0.10246815622015136
10.97890625,-0.12787965090789025
11.012276785714285,-0.0771389949570446
11.045647321428572,0.0315387177444707
11.079017857142857,0.14919567056040195
11.112388392857143,0.2151101609846079
11.145758928571428,0.1832145006979605
11.179129464285714,0.04446139616897826
11.2125,-0.165288417119036
11.245870535714285,-0.3763729060512912
11.27924107142857,-0.5117386742338589
11.312611607142857,-0.5180331067798706
11.345982142857142,-0.3881683514567072
11.37935267857143,-0.165207331162382
11.412723214285714,0.07488762810522781
11.44609375,0.2548658193585188
11.479464285714286,0.3286250569847639
11.512834821428571,0.29993907796299857
11.546205357142856,0.21859549203270146
11.579575892857143,0.15520687429316551
11.612946428571428,0.16606061989135393
11.646316964285715,0.26453140922518137
11.6796875,0.41294088873984663
11.713058035714285,0.5391938331452545
11.746428571428572,0.5705394511751377
11.779799107142857,0.468375228304508
11.813169642857142,0.2474670228449299
11.846540178571429,-0.029380230303437675
11.879910714285714,-0.2782415433015788
11.913281249999999,-0.42950586249557066
11.946651785714286,-0.45537607301338145
11.98002232142857,-0.3776087063146966
12.013392857142858,-0.2534859197220397
12.046763392857143,-0.14795805343651786
12.080133928571428,-0.10535907861851719
12.113504464285715,-0.13305543730194877
12.146875,-0.2029800144098287
12.180245535714285,-0.2685875108526172
12.213616071428572,-0.2881960327613697
12.246986607142857,-0.24364941520047229
12.280357142857143,-0.14630929194016035
12.313727678571428,-0.028886455083540378
12.347098214285714,0.07161977710206299
12.38046875,0.13082248902698743
12.413839285714285,0.14556279068324499
12.44720982142857,0.1310556610726297
12.480580357142857,0.10955748704862864
12.513950892857142,0.09762112301380971
12.54732142857143,0.09894438867231704
12.580691964285714,0.10596730252636412
12.6140625,0.10812261930676816
12.647433035714286,0.1009819848595945
12.680803571428571,0.09039197712355933
12.714174107142856,0.0889566520561318
12.747544642857143,0.10692870054938496
12.780915178571428,0.14303524429459336
12.814285714285713,0.18106943812463291
12.84765625,0.19507901575272008
12.881026785714285,0.16129645980880905
12.914397321428572,0.0710433310720291
12.947767857142857,-0.062244433890630516
12.981138392857142,-0.2062821826454288
13.014508928571429,-0.3229040726178006
13.047879464285714,-0.38489405920062436
13.081249999999999,-0.38810883048275674
13.114620535714286,-0.3519981122161266
13.14799107142857,-0.3074440422304127
13.181361607142858,-0.27797232598250377
13.214732142857143,-0.26469209673050254
13.248102678571428,-0.24385787896309757
13.281473214285715,-0.17914722331146443
13.31484375,-0.04246472512559291
13.348214285714285,0.16777683605122745
13.381584821428572,0.4205850534173645
13.414955357142857,0.6616343545052114
13.448325892857143,0.8331139757779586
13.481696428571428,0.8947053801179146
13.515066964285714,0.8366435603444371
13.5484375,0.680437490091164
13.581808035714285,0.46862651655743365
13.61517857142857,0.24897116565475833
13.648549107142857,0.05941227024264593
13.681919642857142,-0.08146566350155002
13.71529017857143,-0.17641475153707628
13.748660714285714,-0.24444494585863882
13.78203125,-0.3110512831415602
13.815401785714286,-0.39717329579371924
13.848772321428571,-0.5104755355536277
13.882142857142856,-0.6416851894148254
13.915513392857143,-0.7669625011973922
13.948883928571428,-0.8551634576573065
13.982254464285713,-0.8772468855248462
14.015625,-0.8146839675730071
14.048995535714285,-0.6646066190315283
14.082366071428572,-0.4409254261977233
14.115736607142857,-0.17186017603313658
14.149107142857142,0.1052100922995801
14.182477678571429,0.3507053050878336
14.215848214285714,0.5306735880983704
14.249218749999999,0.6241030589222308
14.282589285714286,0.6278256792096423
14.31595982142857,0.5572128324974166
14.349330357142858,0.4418926856891284
14.382700892857143,0.3174014918498976
14.416071428571428,0.21525390486667398
14.449441964285715,0.15462301574365236
14.4828125,0.13831547193536928
14.516183035714285,0.15420292158527252
14.549553571428572,0.18132340071323017
14.582924107142857,0.19825411033400075
14.616294642857143,0.19072467656587522
14.649665178571428,0.15601611055491654
14.683035714285714,0.10310736418750674
14.71640625,0.049001454270285884
14.749776785714285,0.012525930968727554
14.78314732142857,0.007126701233490771
14.816517857142857,0.03429266694426758
14.849888392857142,0.07967064576661201
14.88325892857143,0.11426957677473765
14.916629464285714,0.10237204938571254
14.95,0.015223258478889851
14.983370535714286,-0.15396532099072757
15.016741071428571,-0.3805501222891624
15.050111607142856,-0.6105425132559238
15.083482142857143,-0.7758203141078496
15.116852678571428,-0.8178888345701908
15.150223214285713,-0.7109336760031043
15.18359375,-0.47425117347775936
15.216964285714285,-0.16803462932526372
15.250334821428572,0.12676051459837442
15.283705357142857,0.33708959398486554
15.317075892857142,0.42386129679860846
15.350446428571429,0.39484031341294756
15.383816964285714,0.29889010410603783
15.417187499999999,0.20360187201866015
15.450558035714286,0.16555713964541463
15.48392857142857,0.20611893606308226
15.517299107142858,0.303669503715367
15.550669642857143,0.4059297782848187
15.584040178571428,0.4564665064032016
15.617410714285715,0.42238395206273527
15.65078125,0.3094370400772938
15.684151785714285,0.1572086125878647
15.717522321428572,0.017419945652556296
15.750892857142857,-0.07271286586409338
15.784263392857143,-0.10779780066594265
15.817633928571428,-0.11338734882614822
15.851004464285714,-0.12813644212218106
15.884375,-0.17943245597986104
15.917745535714285,-0.26625501556564585
15.95111607142857,-0.35883875807085314
15.984486607142857,-0.4154472064754449
16.017857142857142,-0.40723351862110646
16.05122767857143,-0.33762733597300815
16.084598214285712,-0.24519437291385685
16.11796875,-0.18714666137810212
16.151339285714286,-0.2105907232278968
16.18470982142857,-0.3253893905514564
16.218080357142856,-0.49274763904989216
16.251450892857143,-0.6367895799350864
16.28482142857143,-0.6753560889162151
16.318191964285713,-0.5563456132132867
16.3515625,-0.2824336657764462
16.384933035714287,0.08780888786794777
16.41830357142857,0.46295173693035774
16.451674107142857,0.754777564516285
16.485044642857144,0.9105167527163671
16.518415178571427,0.9272947795269114
16.551785714285714,0.8443928780510493
16.58515625,0.7196760159859312
16.618526785714284,0.6029702294942567
16.65189732142857,0.5186222763313143
16.685267857142858,0.4631984065095012
16.71863839285714,0.41620036305851305
16.752008928571428,0.3559856021079418
16.785379464285715,0.27213158362355205
16.81875,0.16896778688668568
16.852120535714285,0.06047840059696311
16.88549107142857,-0.038842200790464076
16.91886160714286,-0.12143716216265099
16.95223214285714,-0.18885424762895806
16.98560267857143,-0.24874351487190233
17.018973214285715,-0.3095829198173
17.05234375,-0.3763998729880413
17.085714285714285,-0.4490192763601562
17.119084821428572,-0.5222127881156836
17.152455357142856,-0.5862568191562898
17.185825892857142,-0.6272992660203007
17.21919642857143,-0.6285736138366559
17.252566964285712,-0.5742318120221875
17.2859375,-0.4563747379749501
17.319308035714286,-0.28317538133656545
17.35267857142857,-0.0835576937918228
17.386049107142856,0.09627851966608034
17.419419642857143,0.20619080541327406
17.45279017857143,0.21182065675397457
17.486160714285713,0.11257753428814411
17.51953125,-0.051514140022922865
17.552901785714287,-0.20991477708657114
17.58627232142857,-0.28708711264425885
17.619642857142857,-0.2340934295266517
