Frequency (Hz),Amplitude
0.0,4.335037722722443
0.019801980198019802,4.332902387331171
0.039603960396039604,4.3264984980186405
0.0594059405940594,4.315832403411882
0.07920792079207921,4.300914678037818
0.09900990099009901,4.281760112562563
0.1188118811881188,4.258387700159898
0.13861386138613863,4.230820619043077
0.15841584158415842,4.199086211205193
0.1782178217821782,4.163215957425417
0.19801980198019803,4.12324544861158
0.21782178217821782,4.079214353565001
0.2376237623762376,4.031166383270589
0.25742574257425743,3.979149251835824
0.27722772277227725,3.9232146342263925
0.297029702970297,3.86341812097546
0.31683168316831684,3.7998191700790676
0.33663366336633666,3.732481056334621
0.3564356435643564,3.661470818434277
0.37623762376237624,3.5868592041951457
0.39603960396039606,3.5087206143980154
0.4158415841584158,3.427133045821978
0.43564356435643564,3.342178034214518
0.45544554455445546,3.253940598137397
0.4752475247524752,3.1625091848975253
0.495049504950495,3.0679756201355817
0.5148514851485149,2.9704350631430794
0.5346534653465347,2.8699859706683553
0.5544554455445545,2.7667300729403292
0.5742574257425742,2.660772367017939
0.594059405940594,2.5522211345646775
0.613861386138614,2.441187994072469
0.6336633663366337,2.3277880019277397
0.6534653465346534,2.212139823363808
0.6732673267326733,2.094366004682477
0.6930693069306931,1.974593394570252
0.7128712871287128,1.852953789156854
0.7326732673267327,1.7295849204740126
0.7524752475247525,1.604631985941719
0.7722772277227723,1.4782500565107783
0.7920792079207921,1.3506079629816605
0.8118811881188118,1.2218947735354773
0.8316831683168316,1.0923310390110215
0.8514851485148516,0.9621893311087099
0.8712871287128713,0.8318341971432177
0.891089108910891,0.7018062841502639
0.9108910891089109,0.5730181173521214
0.9306930693069307,0.44727168204653295
0.9504950495049505,0.32885839186080396
0.9702970297029703,0.2302239678627324
0.99009900990099,0.18665028796161554
1.00990099009901,0.23179389954511884
1.0297029702970297,0.33106186435818835
1.0495049504950495,0.44971291910625627
1.0693069306930694,0.5755739398537381
1.0891089108910892,0.7044337985250901
1.108910891089109,0.8345172166029817
1.1287128712871286,0.9649221299332492
1.1485148514851484,1.0951125529711945
1.1683168316831685,1.2247262169069038
1.188118811881188,1.3534917320463862
1.2079207920792079,1.4811891762311395
1.227722772277228,1.6076298081687528
1.2475247524752475,1.732644947779254
1.2673267326732673,1.8560795654777198
1.2871287128712872,1.9777884333427374
1.3069306930693068,2.097633739008365
1.3267326732673268,2.215483569678752
1.3465346534653466,2.331210932263878
1.3663366336633662,2.444693113994781
1.3861386138613863,2.5558112649892912
1.405940594059406,2.6644501287835802
1.4257425742574257,2.770497873406017
1.4455445544554455,2.873845991859673
1.4653465346534653,2.974389251128283
1.4851485148514851,3.0720256754157167
1.504950495049505,3.166656553663054
1.5247524752475248,3.2581864642897758
1.5445544554455446,3.3465233120823683
1.5643564356435644,3.4315783735233985
1.5841584158415842,3.513266347815476
1.6039603960396038,3.591505411540314
1.6237623762376237,3.6662172753875018
1.6435643564356437,3.7373272417492527
1.6633663366336633,3.804764262244609
1.683168316831683,3.868460994436232
1.7029702970297032,3.928353857154243
1.7227722772277227,3.984383083956631
1.7425742574257426,4.036492774345396
1.7623762376237624,4.08463094242664
1.782178217821782,4.128749562758399
1.801980198019802,4.16880461317353
1.8217821782178218,4.204756114400617
1.8415841584158414,4.236568166334996
1.8613861386138615,4.264208980836179
1.881188118811881,4.287650910948097
1.900990099009901,4.306870476456271
1.920792079207921,4.321848385710927
1.9405940594059405,4.332569553658489
1.9603960396039604,4.339023116036044
1.98019801980198,4.341202439694171
2.0,4.3391051290242
2.01980198019802,4.332733028475362
2.0396039603960396,4.32209222115733
2.0594059405940595,4.3071930235327915
2.0792079207920793,4.288049976214571
2.099009900990099,4.264681830891528
2.118811881188119,4.237111533418187
2.1386138613861387,4.205366203114104
2.1584158415841586,4.169477108331379
2.1782178217821784,4.129479638362555
2.1980198019801978,4.085413271776506
2.217821782178218,4.037321541288276
2.237623762376238,3.9852519952894925
2.257425742574257,3.9292561561915362
2.2772277227722775,3.8693894757637124
2.297029702970297,3.8057112876856944
2.3168316831683167,3.738284757579824
2.336633663366337,3.667176830845816
2.3564356435643563,3.592458178693981
2.376237623762376,3.5142031428662057
2.3960396039603964,3.4324896796551596
2.4158415841584158,3.3473993039908794
2.4356435643564356,3.259017034573967
2.455445544554456,3.167431341315195
2.4752475247524752,3.072734096722102
2.495049504950495,2.975020533393338
2.514851485148515,2.87438921050341
2.5346534653465347,2.770941993173745
2.5544554455445545,2.664784050069051
2.5742574257425743,2.556023876642799
2.594059405940594,2.4447733545180084
2.6138613861386135,2.3311478620645087
2.633663366336634,2.2152664582011643
2.6534653465346536,2.097252172283874
2.673267326732673,1.9772324501726413
2.6930693069306932,1.8553398346884469
2.712871287128713,1.731713005868469
2.7326732673267324,1.606498388208585
2.7524752475247527,1.47985267897015
2.7722772277227725,1.3519469264761212
2.792079207920792,1.2229733263799114
2.811881188118812,1.093157020503826
2.8316831683168315,0.9627776489861204
2.8514851485148514,0.8322112840990088
2.8712871287128716,0.702018723383042
2.891089108910891,0.573150883821284
2.910891089108911,0.44749090498668054
2.9306930693069306,0.3295210942385227
2.9504950495049505,0.2321231109361237
2.9702970297029703,0.19069452045028923
2.99009900990099,0.23688098668788282
3.00990099009901,0.3362401097522885
3.0297029702970297,0.4549546599483649
3.0495049504950495,0.5809738192677693
3.0693069306930694,0.7100650470006789
3.089108910891089,0.8404290618323157
3.108910891089109,0.971147953051574
3.128712871287129,1.1016756768305256
3.148514851485148,1.2316433922442036
3.1683168316831685,1.360775223332695
3.1881188118811883,1.4888480413956733
3.2079207920792077,1.6156707087762572
3.227722772277228,1.74107267795477
3.2475247524752473,1.8648974070775945
3.267326732673267,1.9869984005503003
3.2871287128712874,2.107236750627687
3.3069306930693068,2.225479572995959
3.3267326732673266,2.341598993769516
3.346534653465347,2.4554714870110566
3.366336633663366,2.5669774409486132
3.386138613861386,2.6760008767841863
3.4059405940594063,2.7824292712759555
3.4257425742574257,2.8861534510256157
3.4455445544554455,2.9870675369466837
3.4653465346534653,3.085068924180032
3.485148514851485,3.1800582871876766
3.504950495049505,3.2719396027466896
3.5247524752475248,3.360620185604176
3.5445544554455446,3.4460107329663168
3.564356435643564,3.5280253749871404
3.5841584158415842,3.6065817291300974
3.603960396039604,3.6816009567863244
3.6237623762376234,3.753007820906636
3.6435643564356437,3.8207307436804188
3.6633663366336635,3.8847018635009283
3.683168316831683,3.9448570906125315
3.702970297029703,4.001136160954728
3.722772277227723,4.053482687809816
3.7425742574257423,4.101844210933021
3.762376237623762,4.146172242900714
3.7821782178217824,4.186422312457639
3.801980198019802,4.222554004680748
3.8217821782178216,4.254530997807239
3.841584158415842,4.28232109659939
3.8613861386138613,4.305896262139538
3.881188118811881,4.325232637966656
3.9009900990099013,4.340310572481511
3.9207920792079207,4.351114637561104
3.9405940594059405,4.35763364333543
3.96039603960396,4.359860649091297
3.98019801980198,4.357792970277978
4.0,4.351432181600302
4.01980198019802,4.340784116194285
4.03960396039604,4.32585886089021
4.0594059405940595,4.306670747578435
4.079207920792079,4.2832383407031465
4.099009900990099,4.255584420920609
4.118811881188119,4.223735964969894
4.138613861386139,4.187724121817547
4.158415841584159,4.147584185151715
4.178217821782178,4.103355562318129
4.198019801980198,4.05508173980945
4.217821782178218,4.002810245441978
4.237623762376238,3.946592607380738
4.257425742574258,3.8864843102064706
4.2772277227722775,3.8225447482579886
4.297029702970297,3.754837176533019
4.316831683168317,3.683428659492483
4.336633663366336,3.6083900181926016
4.356435643564357,3.5297957762697956
4.376237623762377,3.447724105435147
4.3960396039603955,3.362256771306777
4.415841584158416,3.273479080636358
4.435643564356436,3.1814798312907837
4.455445544554455,3.086351266762635
4.475247524752476,2.9881890375484734
4.4950495049504955,2.8870921725172964
4.514851485148514,2.7831630644924314
4.534653465346535,2.6765074758372496
4.554455445544555,2.5672345721005803
4.574257425742574,2.455456995104632
4.594059405940594,2.3412909918300664
4.613861386138614,2.2248566230246847
4.633663366336633,2.1062780872354963
4.653465346534653,1.985684214693948
4.673267326732674,1.8632092160466391
4.693069306930693,1.7389938222236812
4.712871287128713,1.6131870406191655
4.732673267326733,1.4859489123748892
4.752475247524752,1.3574549541377205
4.772277227722772,1.2279035529822244
4.792079207920793,1.097528794704293
4.811881188118812,0.9666238781573012
4.8316831683168315,0.8355866250674358
4.851485148514852,0.7050151406001154
4.871287128712871,0.5759296543940988
4.891089108910891,0.45035435427938697
4.910891089108912,0.3330811387988368
4.930693069306931,0.23758283833905378
4.9504950495049505,0.1988919270314598
4.97029702970297,0.24568920002580422
4.99009900990099,0.34466712770157226
5.00990099009901,0.46329314371001273
5.02970297029703,0.5895223828450948
5.0495049504950495,0.7190101436508067
5.069306930693069,0.8498852304936338
5.089108910891089,0.9811882248425935
5.108910891089109,1.1123483755611512
5.128712871287129,1.2429813407258168
5.148514851485149,1.3728009838413366
5.1683168316831685,1.501577034669383
5.188118811881188,1.6291131501101939
5.207920792079208,1.755234825077991
5.227722772277227,1.8797823915964544
5.247524752475248,2.0026067984363967
5.267326732673268,2.1235669840593254
5.2871287128712865,2.242528200224649
5.306930693069307,2.3593609228638335
5.326732673267327,2.4739401367769416
5.346534653465346,2.5861448645365317
5.366336633663367,2.6958578585350548
5.3861386138613865,2.802965404126026
5.405940594059405,2.9073571996395517
5.425742574257426,3.0089262902878757
5.445544554455446,3.107569040219134
5.465346534653465,3.203185131742198
5.485148514851486,3.2956775839399866
5.504950495049505,3.3849527850678895
5.524752475247524,3.4709205346432723
5.544554455445545,3.5534940921944176
5.564356435643565,3.632590230393817
5.584158415841584,3.7081292908477796
5.603960396039604,3.7800352412136937
5.623762376237624,3.8482357326121024
5.643564356435643,3.9126621565217126
5.663366336633663,3.973249700512249
5.683168316831684,4.029937402298389
5.702970297029703,4.08266820169582
5.7227722772277225,4.131388990138011
5.742574257425743,4.176050657472675
5.762376237623762,4.2166081358054495
5.782178217821782,4.253020440197429
5.801980198019803,4.285250706055156
5.821782178217822,4.313266223078162
5.841584158415841,4.337038465651582
5.861386138613861,4.3565431195900635
5.881188118811881,4.371760105156154
5.900990099009901,4.382673596290374
5.920792079207921,4.38927203600384
5.9405940594059405,4.391548147895853
5.96039603960396,4.389498943770445
5.98019801980198,4.383125727336429
6.0,4.372434093986034
6.01980198019802,4.357433926657806
6.03960396039604,4.338139387799682
6.0594059405940595,4.314568907459909
6.079207920792079,4.286745167544514
6.099009900990099,4.25469508229327
6.118811881188119,4.218449775040062
6.138613861386139,4.178044551339122
6.158415841584159,4.133518868557224
6.178217821782178,4.084916302052482
6.198019801980198,4.03228450808555
6.217821782178218,3.9756751836387
6.237623762376237,3.915144023354539
6.257425742574258,3.850750673850254
6.2772277227722775,3.782558685718775
6.297029702970296,3.710635463597524
6.316831683168317,3.6350522147738014
6.336633663366337,3.5558838969089455
6.356435643564356,3.4732091656108453
6.376237623762377,3.3871103227770454
6.396039603960396,3.2976732668864086
6.415841584158415,3.204987446759545
6.435643564356436,3.109145820771957
6.455445544554456,3.0102448241389688
6.475247524752475,2.9083843477721834
6.495049504950495,2.8036677334447275
6.514851485148515,2.696201791764543
6.534653465346534,2.586096852002239
6.554455445544554,2.473466856560961
6.574257425742575,2.3584295184662096
6.594059405940594,2.2411065687671
6.6138613861386135,2.1216241339769626
6.633663366336634,2.0001133047358857
6.653465346534653,1.8767109912254807
6.673267326732673,1.751561218501443
6.693069306930694,1.6248171147229857
6.712871287128713,1.4966440243918189
6.732673267326732,1.3672245135031558
6.752475247524753,1.2367666889933793
6.772277227722772,1.1055186091623315
6.792079207920792,0.9737945412919703
6.811881188118813,0.8420258816605455
6.8316831683168315,0.710867811575889
6.851485148514851,0.5814451481921961
6.871287128712871,0.45598984207938886
6.891089108910891,0.33972733448151843
6.910891089108911,0.24684151288578096
6.930693069306931,0.21145580158113883
6.9504950495049505,0.2585553144731207
6.97029702970297,0.35676187727566794
6.99009900990099,0.475166736237126
7.00990099009901,0.6016635345793419
7.02970297029703,0.73171840444186
7.0495049504950495,0.8633428820249823
7.069306930693069,0.9955104024750838
7.089108910891089,1.1276104033645677
7.108910891089109,1.259233648477627
7.128712871287128,1.3900775833069547
7.148514851485149,1.5199005605658245
7.1683168316831685,1.6484979886348068
7.188118811881187,1.7756891309090048
7.207920792079208,1.901309432795846
7.227722772277228,2.025205880391262
7.247524752475247,2.1472341014489986
7.267326732673268,2.267256508421383
7.287128712871287,2.3851410865604774
7.306930693069306,2.500760593378541
7.326732673267327,2.6139920272913195
7.346534653465347,2.724716276386562
7.366336633663366,2.832817890060958
7.3861386138613865,2.938184935840952
7.405940594059406,3.0407089160528917
7.425742574257425,3.1402847269774665
7.445544554455446,3.2368106483724772
7.465346534653466,3.330188354770161
7.485148514851485,3.420322942359601
7.504950495049505,3.5071229669318478
7.524752475247524,3.590500489538678
7.544554455445544,3.6703711273525146
7.564356435643565,3.7466541078198814
7.584158415841584,3.819272324642491
7.603960396039604,3.8881523944474603
7.623762376237624,3.953224713252351
7.643564356435643,4.0144235120158775
7.663366336633663,4.071686910706118
7.683168316831684,4.124956970427151
7.702970297029703,4.174179743230066
7.7227722772277225,4.219305319301234
7.742574257425743,4.260287871274169
7.762376237623762,4.297085695454424
7.782178217821782,4.329661249782011
7.801980198019803,4.3579811883850486
7.821782178217822,4.382016392602623
7.841584158415841,4.401741998375631
7.861386138613862,4.417137419922382
7.881188118811881,4.428186369631595
7.900990099009901,4.4348768741195395
7.92079207920792,4.437201286411206
7.9405940594059405,4.43515629421756
7.96039603960396,4.428742924292403
7.980198019801979,4.417966542864038
8.0,4.402836852148049
8.01980198019802,4.3833678829591465
8.03960396039604,4.359577983452363
8.05940594059406,4.331489804036525
8.07920792079208,4.299130278517287
8.099009900990099,4.262530601542478
8.118811881188119,4.221726202440322
8.138613861386139,4.176756715561368
8.158415841584159,4.12766594725882
8.178217821782178,4.074501839670102
8.198019801980198,4.0173164314964325
8.217821782178218,3.956165816018496
8.237623762376238,3.8911100966372523
8.257425742574258,3.822213340292227
8.277227722772277,3.749543529189666
8.297029702970297,3.6731725113748275
8.316831683168317,3.593175950813263
8.336633663366337,3.5096332778163077
8.356435643564357,3.4226276408690772
8.376237623762377,3.3322458612150325
8.396039603960396,3.238578391948014
8.415841584158416,3.141719283899534
8.435643564356436,3.0417661613454454
8.455445544554456,2.9388202115770876
8.475247524752476,2.832986193816465
8.495049504950495,2.7243724749978644
8.514851485148515,2.613091102891812
8.534653465346535,2.4992579313836893
8.554455445544555,2.3829928191998495
8.574257425742575,2.2644199332402852
8.594059405940595,2.1436682030130534
8.613861386138613,2.020871997050532
8.633663366336634,1.8961721319490739
8.653465346534654,1.7697173913495339
8.673267326732672,1.6416668475465552
8.693069306930694,1.5121934852285766
8.712871287128714,1.381490012770854
8.732673267326732,1.249778500481906
8.752475247524753,1.1173270383610137
8.772277227722773,0.9844800084243331
8.792079207920791,0.8517165768650339
8.811881188118813,0.7197725281017476
8.831683168316832,0.5899184829894074
8.85148514851485,0.46466900479754647
8.871287128712872,0.3498079158127386
8.891089108910892,0.26028757319498413
8.91089108910891,0.22872890104557955
8.930693069306932,0.27597184657205187
8.950495049504951,0.37311975286949317
8.97029702970297,0.491196381354898
8.990099009900991,0.6180261864527741
9.00990099009901,0.7488273988242333
9.029702970297029,0.8814523451705133
9.04950495049505,1.014781564869683
9.06930693069307,1.1481488133219002
9.089108910891088,1.2811098110382453
9.10891089108911,1.4133388099166848
9.12871287128713,1.5445780670197455
9.148514851485148,1.6746113236477984
9.16831683168317,1.8032490431523631
9.188118811881187,1.9303197891639279
9.207920792079207,2.055664987783289
9.227722772277229,2.179135642008629
9.247524752475247,2.3005902174969486
9.267326732673267,2.4198932553451296
9.287128712871288,2.53691444958538
9.306930693069306,2.6515280294305597
9.326732673267326,2.7636123458660498
9.346534653465348,2.873049597925921
9.366336633663366,2.979725656033467
9.386138613861386,3.0835299537185317
9.405940594059407,3.184355428028874
9.425742574257425,3.2820984948912715
9.445544554455445,3.3766590496678566
9.465346534653467,3.4679404858792138
9.485148514851485,3.5558497269578537
9.504950495049505,3.64029726722814
9.524752475247526,3.7211972192596985
9.544554455445544,3.798467365428997
9.564356435643564,3.872029212026475
9.584158415841586,3.9418080446188735
9.603960396039604,4.007732983654709
9.623762376237623,4.069737039511098
9.643564356435645,4.12775716634099
9.663366336633663,4.1817343142035845
9.683168316831683,4.231613479057497
9.702970297029704,4.2773437502722444
9.722772277227723,4.31887835537406
9.742574257425742,4.35617470179103
9.762376237623764,4.389194415402056
9.782178217821782,4.417903375727
9.801980198019802,4.4422717476227636
9.821782178217823,4.46227400937335
9.841584158415841,4.477888977081968
9.861386138613861,4.489099825291046
9.881188118811881,4.495894103771655
9.900990099009901,4.4982637504383804
9.92079207920792,4.4962051003592745
9.94059405940594,4.4897188908432035
9.96039603960396,4.478810262599684
9.98019801980198,4.4634887569789985
10.0,4.44376830931311
10.01980198019802,4.419667238391762
10.03960396039604,4.391208232122563
10.05940594059406,4.358418329439842
10.07920792079208,4.321328898545027
10.099009900990099,4.279975611581403
10.118811881188119,4.23439841586971
10.138613861386139,4.184641501858539
10.158415841584159,4.130753267976388
10.178217821782178,4.0727862826117995
10.198019801980198,4.010797243496558
10.217821782178218,3.944846934826798
10.237623762376238,3.875000182531707
10.257425742574258,3.8013258081940573
10.277227722772277,3.72389658224731
10.297029702970297,3.642789177229293
10.316831683168317,3.5580841220742765
10.336633663366337,3.4698657586904655
10.356435643564357,3.378222202421771
10.376237623762377,3.2832453084642337
10.396039603960396,3.185030646946777
10.415841584158416,3.0836774902618544
10.435643564356436,2.979288817446851
10.455445544554454,2.8719713421243482
10.475247524752476,2.761835572941071
10.495049504950495,2.648995918959566
10.514851485148514,2.5335708576170086
10.534653465346535,2.4156831905739153
10.554455445544555,2.2954604245078363
10.574257425742573,2.1730353321348477
10.594059405940595,2.0485467777065893
10.613861386138614,1.9221409384231878
10.633663366336632,1.7939731322575465
10.653465346534654,1.6642105992948648
10.673267326732674,1.533036828145534
10.693069306930692,1.4006584740810852
10.712871287128714,1.2673168018480423
10.732673267326733,1.1333074038798336
10.752475247524751,0.9990159021196227
10.772277227722773,0.8649865736597407
