Time (s),Filtered Signal
0.0,-0.045533525695309725
0.03337004405286344,-0.17682420045311453
0.06674008810572687,-0.2772453503006319
0.10011013215859031,-0.3293817409017431
0.13348017621145375,-0.33506344227750656
0.16685022026431717,-0.31233870130726576
0.20022026431718062,-0.28530289300427936
0.23359030837004408,-0.27249612508905796
0.2669603524229075,-0.27960989899161093
0.3003303964757709,-0.2992070778255699
0.33370044052863435,-0.3162113634243023
0.3670704845814978,-0.3154264802821147
0.40044052863436125,-0.28738614551072544
0.43381057268722467,-0.23077227407410433
0.46718061674008815,-0.15183735613434943
0.5005506607929515,-0.06233674591757151
0.533920704845815,0.02288509388159898
0.5672907488986785,0.08853004506649843
0.6006607929515418,0.12212938148930347
0.6340308370044053,0.11788942102662311
0.6674008810572687,0.07984750709983253
0.7007709251101322,0.022366451963581717
0.7341409691629956,-0.033350874183343794
0.767511013215859,-0.06608942816435207
0.8008810572687225,-0.06205741419893571
0.834251101321586,-0.01943263444882398
0.8676211453744493,0.05219796927643717
0.9009911894273128,0.13705249282663753
0.9343612334801763,0.22011600512074905
0.9677312775330397,0.2921981770466172
1.001101321585903,0.35078787757880137
1.0344713656387665,0.3969594760496206
1.06784140969163,0.43078910952097355
1.1012114537444935,0.44836755879082785
1.134581497797357,0.4423276710308658
1.1679515418502202,0.4056411031805111
1.2013215859030837,0.3365418200083071
1.2346916299559472,0.24177241117531578
1.2680616740088106,0.13614249393313713
1.3014317180616741,0.03813861944811282
1.3348017621145374,-0.0368042135743962
1.3681718061674009,-0.0825451673365892
1.4015418502202643,-0.10510278342080275
1.4349118942731278,-0.12044121541280137
1.4682819383259913,-0.14758661122134087
1.5016519823788548,-0.19971882871791383
1.535022026431718,-0.2771899302030707
1.5683920704845815,-0.36596337200457973
1.601762114537445,-0.4426885993002545
1.6351321585903085,-0.4844752680050283
1.668502202643172,-0.4789963363777122
1.7018722466960352,-0.4301872131177405
1.7352422907488987,-0.3568066911219042
1.7686123348017622,-0.2844837033280979
1.8019823788546256,-0.23488544050492924
1.8353524229074891,-0.2168605268121607
1.8687224669603526,-0.2233557321879614
1.9020925110132159,-0.2351789824416431
1.9354625550660793,-0.22960123583818762
1.9688325991189428,-0.189782239148889
2.002202643171806,-0.11096876698730111
2.0355726872246698,-0.0012601881986124607
2.068942731277533,0.12259239264060878
2.1023127753303967,0.24181013074267377
2.13568281938326,0.3415395051341611
2.1690528634361232,0.41398328937648066
2.202422907488987,0.45821489120803993
2.23579295154185,0.4776544347912818
2.269162995594714,0.476936452606788
2.302533039647577,0.45980598206411966
2.3359030837004404,0.4288770333851658
2.369273127753304,0.38690932044735454
2.4026431718061674,0.33826311574397705
2.436013215859031,0.28899624033989585
2.4693832599118943,0.24493427668819592
2.5027533039647576,0.2085428957769285
2.5361233480176213,0.17658030318129428
2.5694933920704845,0.140431374843575
2.6028634361233483,0.08962464235199831
2.6362334801762115,0.01712591392256521
2.6696035242290748,-0.07622111974833197
2.7029735682819385,-0.18051334946011116
2.7363436123348017,-0.2797256234350222
2.7697136563876654,-0.3576127676733041
2.8030837004405287,-0.40396683922976806
2.8364537444933924,-0.41839364718409755
2.8698237885462556,-0.4098514053172534
2.903193832599119,-0.3921039611653005
2.9365638766519826,-0.37714700151901137
2.969933920704846,-0.3696682808999206
3.0033039647577096,-0.36513582874682604
3.036674008810573,-0.35231223562444547
3.070044052863436,-0.3187755677026178
3.1034140969162998,-0.25661115825636827
3.136784140969163,-0.16560862099927542
3.1701541850220267,-0.05288121434508787
3.20352422907489,0.07019311023621173
3.2368942731277532,0.1916102598196074
3.270264317180617,0.3010550890499156
3.30363436123348,0.3902914526409352
3.337004405286344,0.45248543600585284
3.370374449339207,0.48196070130621405
3.4037444933920704,0.4753168011482461
3.437114537444934,0.43349883292629443
3.4704845814977974,0.36326207770664026
3.503854625550661,0.27639682863930914
3.5372246696035243,0.18623729551924997
3.5705947136563876,0.10270196981158589
3.6039647577092513,0.028307065809516075
3.6373348017621145,-0.0425455768935467
3.6707048458149782,-0.12018341146505689
3.7040748898678415,-0.21339943890177807
3.737444933920705,-0.32306839345109495
3.7708149779735685,-0.4386767007760372
3.8041850220264317,-0.539676095506582
3.8375550660792954,-0.6015255606175377
3.8709251101321587,-0.6041784014181281
3.9042951541850224,-0.5395302136596307
3.9376651982378856,-0.4146184400997646
3.971035242290749,-0.24917645382863687
4.004405286343612,-0.06872831228014972
4.037775330396476,0.10352830809952222
4.0711453744493395,0.2524036648593635
4.104515418502203,0.3718402599119111
4.137885462555066,0.4619465129148728
4.171255506607929,0.5245359099784291
4.2046255506607935,0.560195361451856
4.237995594713657,0.5684636214529434
4.27136563876652,0.5503923932451336
4.304735682819383,0.511093611393094
4.3381057268722465,0.4598761808154458
4.371475770925111,0.4071851004003814
4.404845814977974,0.3597299400251728
4.438215859030837,0.3165758695526747
4.4715859030837,0.2687140636201731
4.504955947136564,0.20285139929659865
4.538325991189428,0.10787580711881824
4.571696035242291,-0.019032451966302166
4.605066079295154,-0.16954434392237655
4.638436123348018,-0.3258726122189395
4.671806167400881,-0.46615800521281026
4.705176211453745,-0.5711526952092056
4.738546255506608,-0.6295180360125797
4.7719162995594715,-0.6399626603747243
4.805286343612335,-0.6099358699652906
4.838656387665198,-0.5519281373074826
4.872026431718062,-0.4791152333368624
4.905396475770925,-0.401982514628155
4.938766519823789,-0.32687448525671436
4.972136563876652,-0.25651023159606173
5.005506607929515,-0.19176559766381165
5.038876651982379,-0.13367192653632937
5.072246696035243,-0.08465129835865683
5.105616740088106,-0.04840809292389355
5.138986784140969,-0.028481482889150596
5.172356828193832,-0.026052050081579906
5.2057268722466965,-0.03798317215003522
5.23909691629956,-0.05609253188783505
5.272466960352423,-0.06823623204606136
5.305837004405286,-0.06107313736235957
5.3392070484581495,-0.02366113515874718
5.372577092511014,0.049329073463869645
5.405947136563877,0.1558281905285991
5.43931718061674,0.28647161069544835
5.4726872246696034,0.42638960257029634
5.506057268722468,0.5580542691745316
5.539427312775331,0.664473505508653
5.572797356828194,0.7321912726331791
5.606167400881057,0.7537530827060724
5.639537444933921,0.7293203768756833
5.672907488986785,0.6669337521746068
5.706277533039648,0.5807792023341827
5.739647577092511,0.48712559608752115
5.7730176211453745,0.39860698493235647
5.806387665198238,0.31887495971023
5.839757709251102,0.24041761708742182
5.873127753303965,0.14759162605298234
5.9064977973568284,0.02452391819072261
5.939867841409692,-0.13535913244245174
5.973237885462555,-0.32295955417006805
6.006607929515419,-0.5139489401949949
6.039977973568282,-0.6762454448062798
6.073348017621146,-0.7810279408384565
6.106718061674009,-0.8121108715950834
6.140088105726872,-0.7698336819995147
6.173458149779736,-0.6688892974440468
6.2068281938325995,-0.5324958234995789
6.240198237885463,-0.3862592140345684
6.273568281938326,-0.25384399652518014
6.306938325991189,-0.1544832299809028
6.3403083700440535,-0.10106352336267523
6.373678414096917,-0.09780804758250973
6.40704845814978,-0.13796669287172025
6.440418502202643,-0.20315702098933813
6.4737885462555065,-0.2660272695487331
6.507158590308371,-0.2965872673523406
6.540528634361234,-0.2706605881432588
6.573898678414097,-0.17758221933342885
6.60726872246696,-0.024250824584038655
6.640638766519824,0.16607063098348426
6.674008810572688,0.35988520077547653
6.707378854625551,0.5224908886051434
6.740748898678414,0.6269986845441932
6.774118942731278,0.660578661451088
6.807488986784141,0.6261858568783104
6.840859030837005,0.5395441989711671
6.874229074889868,0.42275533473248467
6.9075991189427315,0.29703633403361945
6.940969162995595,0.17731924386713915
6.974339207048458,0.07057779185524589
7.007709251101322,-0.02196442344170793
7.041079295154185,-0.10044290117348875
7.074449339207049,-0.16255141258388528
7.107819383259912,-0.2027152017092125
7.141189427312775,-0.2148189768469603
7.174559471365639,-0.19680270857686893
7.207929515418503,-0.15409522404413428
7.241299559471366,-0.09936750358992535
7.274669603524229,-0.04822461501811204
7.308039647577092,-0.012908846384507913
7.3414096916299565,0.002671359786055563
7.37477973568282,0.003976577909628924
7.408149779735683,0.0024857671421860956
7.441519823788546,0.009811438045404828
7.47488986784141,0.032301800460738044
7.508259911894274,0.06866444748279371
7.541629955947137,0.11140519050878646
7.575,0.1508845309718439
7.608370044052863,0.1795966876144932
7.641740088105728,0.1944396770102769
7.675110132158591,0.19610239816342195
7.708480176211454,0.18644234631302836
7.741850220264317,0.16584878093867772
7.775220264317181,0.13242447331498938
7.808590308370045,0.08350249129776599
7.841960352422908,0.01842169934617739
7.875330396475771,-0.059318492118272774
7.9087004405286345,-0.14191650520725124
7.942070484581498,-0.21918088965400306
7.975440528634362,-0.2813265254448406
8.008810572687224,-0.32122043708115133
8.042180616740088,-0.33535809512547005
8.075550660792953,-0.32386524366145913
8.108920704845815,-0.29031613568054887
8.142290748898679,-0.24179859007759635
8.175660792951541,-0.1888061579146465
8.209030837004406,-0.14398097025646506
8.24240088105727,-0.11907383899149032
8.275770925110132,-0.1206698263224781
8.309140969162996,-0.14649315071696095
8.342511013215859,-0.18449852777123374
8.375881057268723,-0.21599977359728414
8.409251101321587,-0.22216472208528532
8.44262114537445,-0.19136096472571068
8.475991189427313,-0.12412515786018027
8.509361233480176,-0.03338539742386203
8.54273127753304,0.06040323412993322
8.576101321585904,0.13729929486938527
8.609471365638766,0.18572577551414854
8.64284140969163,0.20674890676602808
8.676211453744493,0.2128679089931026
8.709581497797357,0.22176721465903768
8.742951541850221,0.24774959999531812
8.776321585903084,0.2946931297353709
8.809691629955948,0.3537692920289903
8.84306167400881,0.4070371218409488
8.876431718061674,0.43535559970386956
8.909801762114538,0.4270788202726501
8.9431718061674,0.3836074093039215
8.976541850220265,0.31920886623185246
9.009911894273127,0.2549975009582428
9.043281938325991,0.20955666204855428
9.076651982378856,0.19031450467173092
9.110022026431718,0.1896848804595085
9.143392070484582,0.18803490964964076
9.176762114537445,0.16244894152883876
9.210132158590309,0.09740869914420565
9.243502202643173,-0.007631482264243901
9.276872246696035,-0.13748099451114598
9.3102422907489,-0.2677019690154638
9.343612334801762,-0.3751787442914171
9.376982378854626,-0.4475182915135772
9.41035242290749,-0.4866253926131164
9.443722466960352,-0.5048042236648761
9.477092511013216,-0.515626762247073
9.510462555066079,-0.5245668236775668
9.543832599118943,-0.5245848783174171
9.577202643171807,-0.49933145568416243
9.61057268722467,-0.4326592911629171
9.643942731277534,-0.31969248979659937
9.677312775330396,-0.17355475094656947
9.71068281938326,-0.0236616317104152
9.744052863436124,0.09455186219355007
9.777422907488987,0.1543325383836153
9.81079295154185,0.15010552638224592
9.844162995594713,0.10168068185638596
9.877533039647577,0.047544854711776594
9.910903083700441,0.02947853029839423
9.944273127753304,0.07479019701620493
9.977643171806168,0.18381482144687764
10.01101321585903,0.32827521189614
10.044383259911895,0.4615060275908678
10.077753303964759,0.5364315693536443
10.111123348017621,0.5238676808346567
10.144493392070485,0.42365611083450117
10.177863436123348,0.2643064468795055
10.211233480176212,0.09174258498716632
10.244603524229076,-0.04778348737100126
10.277973568281938,-0.12348582544884501
10.311343612334802,-0.12856275264745434
10.344713656387665,-0.07906935602186672
10.378083700440529,-0.004986160435206338
10.411453744493393,0.06186401969418841
10.444823788546255,0.09804726536981076
10.47819383259912,0.09368443174413034
10.511563876651982,0.05200653821930351
10.544933920704846,-0.01504344403974745
10.57830396475771,-0.092521953962359
10.611674008810573,-0.16713208225445267
10.645044052863437,-0.2295100655177574
10.678414096916299,-0.2741838353235074
10.711784140969163,-0.29828110583208134
10.745154185022027,-0.3004159663588968
10.77852422907489,-0.28069168163945507
10.811894273127754,-0.2416848459865083
10.845264317180618,-0.18927331560016794
10.87863436123348,-0.13194846208216016
10.912004405286345,-0.07808869018715346
10.945374449339207,-0.03212705471677508
10.978744493392071,0.00832290445062466
11.012114537444935,0.05234763455637793
11.045484581497798,0.11190934849167467
11.078854625550662,0.19553500205248173
11.112224669603524,0.30219168518203104
11.145594713656388,0.4182222503497124
11.178964757709252,0.5191008669838646
11.212334801762115,0.5759107273338323
11.245704845814979,0.564626558410815
11.279074889867841,0.4751209377006145
11.312444933920705,0.3166357174177798
11.34581497797357,0.11734648295553703
11.379185022026432,-0.0825535292654263
11.412555066079296,-0.24254570327119626
11.445925110132158,-0.33452354808641355
11.479295154185023,-0.3519404996319134
11.512665198237887,-0.3115939894987106
11.546035242290749,-0.24688306501980806
11.579405286343613,-0.194856320377854
11.612775330396476,-0.18219370074563893
11.64614537444934,-0.2159594369225781
11.679515418502204,-0.282929113024865
11.712885462555066,-0.35733343411570584
11.74625550660793,-0.4129200395930406
11.779625550660793,-0.43338893564289066
11.812995594713657,-0.4164983506731002
11.846365638766521,-0.37074479375675595
11.879735682819383,-0.3074692092422814
11.913105726872248,-0.2333943003028832
11.94647577092511,-0.1479052968594525
11.979845814977974,-0.046371721735472736
12.013215859030838,0.07282211929005097
12.0465859030837,0.20215857586677702
12.079955947136565,0.3241045654308159
12.113325991189427,0.4169788128188039
12.146696035242291,0.46515015527318704
12.180066079295155,0.4682054847931137
12.213436123348018,0.4435339977272852
12.246806167400882,0.41973881858898526
12.280176211453744,0.4230737259440648
12.313546255506608,0.4632160897623753
12.346916299559473,0.5257764073614425
12.380286343612335,0.5761359807149838
12.413656387665199,0.573698492900835
12.447026431718061,0.49020835702580084
12.480396475770926,0.3233656563495814
12.51376651982379,0.099046724935156
12.547136563876652,-0.13889141676631514
12.580506607929516,-0.3459767293198263
12.613876651982379,-0.4930083290467762
12.647246696035243,-0.5731537388803012
12.680616740088107,-0.598129487307921
12.71398678414097,-0.5872214556933983
12.747356828193833,-0.5560987572969596
12.780726872246696,-0.5113292276028967
12.81409691629956,-0.4522940893294324
12.847466960352424,-0.3776398576580034
12.880837004405286,-0.29118206006312936
12.91420704845815,-0.20326455226624576
12.947577092511013,-0.1268947894187162
12.980947136563877,-0.07129530165352578
13.014317180616741,-0.03692250805924309
13.047687224669604,-0.014934331807548246
13.081057268722468,0.008587740598308628
13.11442731277533,0.04599710206515166
13.147797356828194,0.10251418445606701
13.181167400881058,0.174392594559289
13.21453744493392,0.25128518340605044
13.247907488986785,0.32106188106569333
13.281277533039647,0.37433128772006585
13.314647577092511,0.406547284791186
13.348017621145376,0.417276195822258
13.381387665198238,0.40785909318813074
13.414757709251102,0.3793855059071813
13.448127753303964,0.33232145246200084
13.481497797356829,0.26777798920589546
13.514867841409693,0.18917037715543422
13.548237885462555,0.10270467651444555
13.58160792951542,0.015950511530182416
13.614977973568282,-0.06482689016996682
13.648348017621146,-0.13687909103277116
13.68171806167401,-0.20116295133451373
13.715088105726872,-0.2601843818838967
13.748458149779736,-0.31471774615174436
13.781828193832599,-0.3614375514087798
13.815198237885463,-0.3930856753550865
13.848568281938327,-0.4014235528861896
13.88193832599119,-0.3816536336954275
13.915308370044054,-0.33604184132729525
13.948678414096916,-0.2746261825927618
13.98204845814978,-0.21216415198919508
14.015418502202644,-0.16233396747140164
14.048788546255507,-0.13176349943334922
14.08215859030837,-0.11683418227423455
14.115528634361233,-0.10504442225997064
14.148898678414097,-0.08050866202436394
14.182268722466961,-0.031065218952109504
14.215638766519824,0.046366033335931124
14.249008810572688,0.14462373360762806
14.28237885462555,0.24963901946812353
14.315748898678414,0.3463305009705624
14.349118942731279,0.42397921264000893
14.382488986784141,0.4784961575810146
14.415859030837005,0.5108384456904763
14.449229074889868,0.5230259018393953
14.482599118942732,0.5145409603230922
14.515969162995596,0.48157165421663084
14.549339207048458,0.41971836728721396
14.582709251101322,0.3285029305370656
14.616079295154185,0.21471323769187226
14.649449339207049,0.09216238489564915
14.682819383259913,-0.022450094893988103
14.716189427312775,-0.11553676042651112
14.74955947136564,-0.18134089330742062
14.782929515418502,-0.2230343657128315
14.816299559471366,-0.24995047099556061
14.84966960352423,-0.2727277603351246
14.883039647577093,-0.29891494595620344
14.916409691629957,-0.33086875609965805
14.94977973568282,-0.36624398103622746
14.983149779735683,-0.40004112078314574
15.016519823788547,-0.4267265874735537
15.04988986784141,-0.44141960431061295
15.083259911894274,-0.44007915747575815
15.116629955947138,-0.41938819021931284
15.15,-0.37716271140894425
15.183370044052865,-0.31354834660512604
15.216740088105727,-0.23238177693708523
15.250110132158591,-0.14151995408682475
15.283480176211455,-0.051183005951323864
15.316850220264318,0.02956781658199699
15.350220264317182,0.09675339012069264
15.383590308370044,0.15358231034514863
15.416960352422908,0.20899063559727055
15.450330396475772,0.2725580283261506
15.483700440528635,0.34788607389546494
15.517070484581499,0.4279010953806432
15.550440528634361,0.4951431854837944
15.583810572687225,0.5278251662393807
15.61718061674009,0.50935111481235
15.650550660792952,0.4368001814145547
15.683920704845816,0.3239738386103924
15.717290748898678,0.19709246748252016
15.750660792951543,0.08484994632268085
15.784030837004407,0.007369008549911488
15.817400881057269,-0.030849084268630155
15.850770925110133,-0.04088048994371067
15.884140969162996,-0.04260894961495239
15.91751101321586,-0.05474819173038672
15.950881057268724,-0.08643940874851608
15.984251101321586,-0.13406079775790117
16.01762114537445,-0.18408982637472834
16.050991189427315,-0.2199939009792878
16.084361233480177,-0.22965735374319027
16.11773127753304,-0.210280140197629
16.151101321585905,-0.16934409868525854
16.184471365638768,-0.12193171783770355
16.21784140969163,-0.08559702331701734
16.251211453744492,-0.07420831607816787
16.284581497797358,-0.09229988714948155
16.31795154185022,-0.13176848947197006
16.351321585903083,-0.17278025957213808
16.38469162995595,-0.1897628515892414
16.41806167400881,-0.1611954378373041
16.451431718061674,-0.07952237685763541
16.48480176211454,0.043511565060590104
16.518171806167402,0.17938245028077707
16.551541850220264,0.2928980256874112
16.584911894273127,0.355729092645094
16.618281938325993,0.3571489817000086
16.651651982378855,0.30690536941612706
16.685022026431717,0.2290255151528324
16.718392070484583,0.1499374611979173
16.751762114537446,0.08706736346777907
16.785132158590308,0.04350552864516311
16.818502202643174,0.010760971357040289
16.851872246696036,-0.02289963960331331
16.8852422907489,-0.06391919597310743
16.91861233480176,-0.10975332157475191
16.951982378854627,-0.1517505922814781
16.98535242290749,-0.1821854505211475
17.01872246696035,-0.2005171843664226
17.052092511013218,-0.21459294111851435
17.08546255506608,-0.23583425207532177
17.118832599118942,-0.2713359205497726
17.152202643171808,-0.31784653939070284
17.18557268722467,-0.36156221721699006
17.218942731277533,-0.38421833945832057
