Time (s),Filtered Signal
0.0,-0.017534822753421712
0.03337000366703337,0.20630961598877862
0.06674000733406674,0.3974457966819218
0.1001100110011001,0.5296984657300798
0.13348001466813347,0.5877341734761918
0.16685001833516683,0.5676712454883396
0.2002200220022002,0.4753816092467101
0.2335900256692336,0.32445780935316604
0.26696002933626695,0.13477738370568482
0.3003300330033003,-0.06902461224911595
0.33370003667033366,-0.2604630340438927
0.36707004033736707,-0.41578499052752066
0.4004400440044004,-0.5188292593952991
0.4338100476714338,-0.5638845238437685
0.4671800513384672,-0.5550589608245668
0.5005500550055005,-0.5026886942404905
0.5339200586725339,-0.41915483634917355
0.5672900623395672,-0.316772370777723
0.6006600660066006,-0.20872960142498778
0.634030069673634,-0.11131198456887284
0.6674000733406673,-0.043737372061536904
0.7007700770077008,-0.022633051119301396
0.7341400806747341,-0.05179553291359832
0.7675100843417675,-0.11253809045944561
0.8008800880088008,-0.16237604202736902
0.8342500916758342,-0.1473552013824491
0.8676200953428675,-0.02609754438504295
0.9009900990099009,0.2047715642726383
0.9343601026769344,0.4982754432213723
0.9677301063439677,0.7682163700950685
1.001100110011001,0.9226758869039273
1.0344701136780343,0.9056659880815794
1.0678401173450678,0.7259224389276652
1.1012101210121013,0.45641482954405793
1.1345801246791345,0.20259232556134313
1.167950128346168,0.053958557464034135
1.2013201320132012,0.04284273160233048
1.2346901356802347,0.13087647966748142
1.268060139347268,0.22963831847563146
1.3014301430143014,0.24494877489193578
1.3348001466813346,0.12318610189496597
1.368170150348368,-0.12220614719288503
1.4015401540154016,-0.41587684542695336
1.4349101576824348,-0.654430439943801
1.4682801613494683,-0.7532218041795073
1.5016501650165015,-0.6848423642757845
1.535020168683535,-0.4919235135673665
1.5683901723505682,-0.2682803680222219
1.6017601760176017,-0.1165502294231234
1.6351301796846351,-0.10129997850190656
1.6685001833516684,-0.21911817412316237
1.7018701870187019,-0.39984601924069507
1.735240190685735,-0.5387591055760625
1.7686101943527686,-0.5448290093096926
1.8019801980198018,-0.3824957588572115
1.8353502016868353,-0.08773638588037115
1.8687202053538687,0.24807274308026164
1.902090209020902,0.5176205364505408
1.9354602126879354,0.6414252807329424
1.9688302163549687,0.5966294381744037
2.002200220022002,0.4203354753434507
2.0355702236890356,0.18938711897990135
2.0689402273560686,-0.011936629731151416
2.102310231023102,-0.12200780350851606
2.1356802346901356,-0.11907587447145537
2.169050238357169,-0.02194001483094861
2.2024202420242025,0.12310681096050913
2.2357902456912355,0.2623318230456016
2.269160249358269,0.3539280949480499
2.3025302530253025,0.3803472844170122
2.335900256692336,0.35015126596804796
2.369270260359369,0.28970365442091284
2.4026402640264024,0.22870852803207012
2.436010267693436,0.18589401497305394
2.4693802713604693,0.16090984772923078
2.502750275027503,0.13564282596844307
2.536120278694536,0.0838813991151647
2.5694902823615693,-0.015384435509224588
2.6028602860286028,-0.1670386202270986
2.636230289695636,-0.35578842311869757
2.6696002933626692,-0.5501276062015176
2.7029702970297027,-0.7119946319973964
2.736340300696736,-0.8078187957100471
2.7697103043637696,-0.8168082533948369
2.803080308030803,-0.734249925090752
2.836450311697836,-0.5701096615326323
2.8698203153648696,-0.34504002916542015
2.903190319031903,-0.08620681883042233
2.9365603226989365,0.17580516547032746
2.96993032636597,0.4094552824207032
3.003300330033003,0.5855515446202753
3.0366703337000365,0.6823653313693758
3.07004033736707,0.6916780727596938
3.1034103410341034,0.6229523703326079
3.1367803447011364,0.502410374813099
3.17015034836817,0.36568779146316155
3.2035203520352034,0.24611024286114355
3.236890355702237,0.16348196615432908
3.2702603593692703,0.11865077846763034
3.3036303630363033,0.09651584908608282
3.3370003667033368,0.07589043299737282
3.3703703703703702,0.04106821090498344
3.4037403740374037,-0.01091151407077894
3.4371103777044367,-0.07088240393051196
3.47048038137147,-0.1251749262152815
3.5038503850385037,-0.16532627038424053
3.537220388705537,-0.19372306775552733
3.5705903923725706,-0.22148378578891662
3.6039603960396036,-0.2597268510259756
3.637330399706637,-0.3096956339309938
3.6707004033736705,-0.35829064939612054
3.704070407040704,-0.38259357600298655
3.7374404107077375,-0.3616642020656012
3.7708104143747705,-0.28940766982819455
3.804180418041804,-0.18128669339444714
3.8375504217088374,-0.0706580662625608
3.870920425375871,0.004173570046209339
3.904290429042904,0.016352248143509
3.9376604327099374,-0.03727339724805714
3.971030436376971,-0.13366915191493037
4.004400440044004,-0.23200800673307487
4.037770443711038,-0.2891860493654902
4.071140447378071,-0.2757726974572495
4.104510451045105,-0.1858687844592863
4.137880454712137,-0.037334607587556086
4.171250458379171,0.13683886566940576
4.204620462046204,0.30161138331294857
4.237990465713238,0.4316559637108179
4.271360469380271,0.5173652899301711
4.304730473047305,0.5638030397917423
4.338100476714338,0.5845183096728972
4.3714704803813715,0.5938527942755842
4.404840484048405,0.6010006829175826
4.438210487715438,0.607284231780567
4.471580491382471,0.6062319143405963
4.5049504950495045,0.5852322485020504
4.538320498716538,0.5280224646590734
4.571690502383571,0.4182863751791848
4.605060506050605,0.24495998595452712
4.638430509717638,0.00876393933411083
4.671800513384672,-0.2724628689333653
4.705170517051705,-0.563229942239426
4.738540520718738,-0.8171256864095965
4.771910524385771,-0.98979215738518
4.805280528052805,-1.0532116920595782
4.838650531719838,-1.0047454757609287
4.872020535386872,-0.866515309171321
4.905390539053905,-0.6756141191973377
4.938760542720939,-0.47026671636471384
4.972130546387972,-0.2785804277764698
5.005500550055006,-0.11423190808994611
5.038870553722038,0.020834352595728686
5.072240557389072,0.13002350128032222
5.105610561056105,0.21613336015281298
5.138980564723139,0.2784264488472637
5.172350568390172,0.3131919479047165
5.2057205720572055,0.3168311302175471
5.239090575724239,0.28993338356271137
5.272460579391272,0.24053249875611837
5.305830583058306,0.18454904412744816
5.3392005867253385,0.1419218430108988
5.372570590392372,0.12875135856252037
5.405940594059405,0.1485258924608402
5.439310597726439,0.18747769560241165
5.472680601393472,0.21835495267424065
5.506050605060506,0.21285537521615586
5.539420608727539,0.15750081174001573
5.572790612394573,0.06431163046670446
5.606160616061606,-0.030925817195611535
5.63953061972864,-0.08378701525074032
5.672900623395672,-0.06304554374891452
5.706270627062706,0.03197830282227203
5.739640630729739,0.16815054800209625
5.773010634396773,0.2918555229055791
5.806380638063806,0.3527351435576253
5.83975064173084,0.32609009106579373
5.873120645397873,0.22284081286768276
5.9064906490649065,0.08243682214336438
5.93986065273194,-0.047096951923963765
5.9732306563989725,-0.1314577377603781
6.006600660066006,-0.16365934750060404
6.0399706637330395,-0.16313226230129813
6.073340667400073,-0.16231706794210843
6.106710671067106,-0.18864017162171598
6.14008067473414,-0.25092751033536803
6.173450678401173,-0.3358859778619572
6.206820682068207,-0.4148163539159426
6.24019068573524,-0.4562636202475164
6.273560689402273,-0.43865338727557834
6.306930693069306,-0.358096441556707
6.34030069673634,-0.22925624087199495
6.373670700403373,-0.08001794795366976
6.407040704070407,0.057382304769674534
6.44041070773744,0.15557899351226598
6.473780711404474,0.199184591195041
6.507150715071507,0.1886235815150564
6.540520718738541,0.14052860985335439
6.573890722405573,0.08471133442939413
6.607260726072607,0.05744537500353662
6.64063072973964,0.091095316951305
6.6740007334066735,0.2017132805676915
6.707370737073707,0.37856104953185565
6.7407407407407405,0.5808331654901159
6.774110744407774,0.7454206403740776
6.807480748074807,0.8052313679490454
6.840850751741841,0.7123481410183359
6.8742207554088735,0.4571347516226975
6.907590759075907,0.07531865764532943
6.94096076274294,-0.36018342175319984
6.974330766409974,-0.7597450769555999
7.007700770077007,-1.0422400020725955
7.041070773744041,-1.1563017062893466
7.074440777411074,-1.0913692591242674
7.107810781078108,-0.8765545458112632
7.141180784745141,-0.5694314698583798
7.174550788412174,-0.23926309296736495
7.207920792079207,0.050308249046825654
7.241290795746241,0.25493749713035124
7.274660799413274,0.35696814976195035
7.308030803080308,0.3655888738499325
7.341400806747341,0.31043721526665924
7.3747708104143745,0.2307207541828808
7.408140814081408,0.1629035001595312
7.4415108177484415,0.13039389647558988
7.474880821415475,0.13828638183191358
7.5082508250825075,0.17490920671287186
7.541620828749541,0.21978139564133684
7.5749908324165744,0.25506706903545556
7.608360836083608,0.2756891278106935
7.641730839750641,0.29304618620862805
7.675100843417675,0.32945164865536697
7.708470847084708,0.4046049713632927
7.741840850751742,0.5199278825333274
7.775210854418775,0.6489905954861593
7.808580858085808,0.7406056891863566
7.841950861752841,0.7355690573680143
7.875320865419875,0.5910009146025795
7.908690869086908,0.30155466612474163
7.942060872753942,-0.09277038063822761
7.975430876420975,-0.5167575305685111
8.008800880088009,-0.8843795997191277
8.042170883755041,-1.1272392286926654
8.075540887422076,-1.215107355084574
8.108910891089108,-1.1605685769141754
8.142280894756142,-1.0072739800833443
8.175650898423175,-0.8085976052368083
8.20902090209021,-0.6071425040692079
8.242390905757242,-0.42403417223758777
8.275760909424275,-0.26126951735086573
8.309130913091309,-0.11348494944265572
8.342500916758341,0.01914793779884719
8.375870920425376,0.12521673486668086
8.409240924092408,0.18726808232221037
8.442610927759443,0.19491270184402032
8.475980931426475,0.1577412582481539
8.50935093509351,0.10936473254797004
8.542720938760542,0.09822201462351819
8.576090942427575,0.16781017732992431
8.60946094609461,0.33502804232337685
8.642830949761642,0.5772047070973565
8.676200953428676,0.8350270070385619
8.709570957095709,1.0315256552327141
8.742940960762743,1.099902426683989
8.776310964429776,1.0087819029710772
8.80968096809681,0.7743819593143637
8.843050971763843,0.4546307051887018
8.876420975430875,0.12784434534107408
8.90979097909791,-0.13516135676193938
8.943160982764942,-0.2943432275838568
8.976530986431976,-0.3502822592281934
9.009900990099009,-0.33760337758723263
9.043270993766043,-0.3056560289425792
9.076640997433076,-0.29515130975018705
9.11001100110011,-0.3208993791657909
9.143381004767143,-0.36806380740138206
9.176751008434175,-0.4033221198784731
9.21012101210121,-0.39535429957373164
9.243491015768242,-0.33435921216850023
9.276861019435277,-0.24039813113484806
9.31023102310231,-0.15567884379971153
9.343601026769344,-0.12403267896567687
9.376971030436376,-0.16765047674428477
9.41034103410341,-0.27295761566228777
9.443711037770443,-0.39324445110112766
9.477081041437476,-0.46750217197556626
9.51045104510451,-0.4470386690357524
9.543821048771543,-0.3177466150477999
9.577191052438577,-0.10795313468210013
9.61056105610561,0.12167491224049319
9.643931059772644,0.30185629319991686
9.677301063439677,0.38204308128251624
9.710671067106711,0.3500639116765342
9.744041070773743,0.23611290290036724
9.777411074440776,0.09968735054530367
9.81078107810781,0.005097566491618872
9.844151081774843,-0.0042158450581283625
9.877521085441877,0.0779762346326415
9.91089108910891,0.22009937695995638
9.944261092775944,0.3675731112365256
9.977631096442977,0.46614527273478884
10.011001100110011,0.4834998632769708
10.044371103777044,0.4200235963245242
10.077741107444076,0.304796033961
10.11111111111111,0.17970249952552406
10.144481114778143,0.07984946647177942
10.177851118445178,0.019674503714480117
10.21122112211221,-0.009230042933882035
10.244591125779245,-0.028723616739877122
10.277961129446277,-0.05907550648798462
10.311331133113312,-0.10669386008190239
10.344701136780344,-0.16110903109271837
10.378071140447377,-0.2024272221008902
10.411441144114411,-0.21465550412160075
10.444811147781444,-0.197023957240637
10.478181151448478,-0.16649479640264042
10.51155115511551,-0.14953423454683537
10.544921158782545,-0.16727772617405312
10.578291162449577,-0.22208766825337314
10.611661166116612,-0.2930282127675495
10.645031169783644,-0.3432247660429183
10.678401173450677,-0.33592013254138
10.711771177117711,-0.25156928494979686
10.745141180784744,-0.09782931992513862
10.778511184451778,0.09207474458489515
10.81188118811881,0.2714506821401708
10.845251191785845,0.3968695491691897
10.878621195452878,0.44229340260954697
10.911991199119912,0.40550915945759686
10.945361202786945,0.30576031115220703
10.978731206453979,0.17497913186731773
11.012101210121012,0.04664713153531396
11.045471213788044,-0.053908288111507954
11.078841217455079,-0.11516839650721777
11.112211221122111,-0.1398824399998588
11.145581224789145,-0.14075630072936876
11.178951228456178,-0.13340602334731544
11.212321232123212,-0.129745024306417
11.245691235790245,-0.13477989783067937
11.27906123945728,-0.14789767975992732
11.312431243124312,-0.1669528315129947
11.345801246791344,-0.19158110091932004
11.379171250458379,-0.22270810074308542
11.412541254125411,-0.2581476302323666
11.445911257792446,-0.28761252649774166
11.479281261459478,-0.29182879867760697
11.512651265126513,-0.2484060267144932
11.546021268793545,-0.14270538639729718
11.57939127246058,0.021966872572839958
11.612761276127612,0.22114876088225777
11.646131279794645,0.4159331966227286
11.67950128346168,0.5670671387651103
11.712871287128712,0.6496519213335312
11.746241290795746,0.6611865651800297
11.779611294462779,0.6192222557601542
11.812981298129813,0.5502922535926624
11.846351301796846,0.47603880316933717
11.87972130546388,0.4034774475038824
11.913091309130913,0.32391086953478504
11.946461312797945,0.22060266311317095
11.97983131646498,0.08112679169916456
12.013201320132012,-0.09183266823453702
12.046571323799046,-0.2767082208816714
12.079941327466079,-0.4385480573603208
12.113311331133113,-0.5417776684923292
12.146681334800146,-0.5648295616339825
12.18005133846718,-0.5102379966680995
12.213421342134213,-0.4056077737180721
12.246791345801245,-0.2946967849759802
12.28016134946828,-0.22200340205392263
12.313531353135312,-0.2168786921617903
12.346901356802347,-0.283172505537007
12.38027136046938,-0.397946928066821
12.413641364136414,-0.5191811618793751
12.447011367803446,-0.5993099494053866
12.48038137147048,-0.599946231307582
12.513751375137513,-0.5033468420549396
12.547121378804546,-0.3175686755221689
12.58049138247158,-0.0741966078645718
12.613861386138613,0.18050821548117243
12.647231389805647,0.39857643124912
12.68060139347268,0.5439392311894536
12.713971397139714,0.6028850097870677
12.747341400806746,0.5880011678782125
12.78071140447378,0.5335813813996448
12.814081408140813,0.48289251481963336
12.847451411807846,0.4708740529969871
12.88082141547488,0.5086397442795083
12.914191419141913,0.5768390028895367
12.947561422808947,0.6322387268627805
12.98093142647598,0.6262032885061605
13.014301430143014,0.5275610345689601
13.047671433810047,0.3391433652504384
13.081041437477081,0.09944181377235797
13.114411441144114,-0.1321991114403541
13.147781444811146,-0.30018126011940277
13.18115144847818,-0.37538239082056657
13.214521452145213,-0.36541277467728756
13.247891455812248,-0.3082287704017666
13.28126145947928,-0.25312304080161463
13.314631463146315,-0.23875087089677996
13.348001466813347,-0.27835052076050393
13.381371470480381,-0.3579354469988077
13.414741474147414,-0.44659694927140764
13.448111477814447,-0.5125718049405711
13.481481481481481,-0.5368888338253688
13.514851485148514,-0.5186681527208076
13.548221488815548,-0.470906081209433
13.58159149248258,-0.4102125955242894
13.614961496149615,-0.34631708497749464
13.648331499816647,-0.27654805131235793
13.681701503483682,-0.1877314403478785
13.715071507150714,-0.06454128770080453
13.748441510817747,0.09938632652752236
13.781811514484781,0.2925263810856894
13.815181518151814,0.48321586867663774
13.848551521818848,0.626460789356923
13.88192152548588,0.6787955942399874
13.915291529152915,0.6164374602022642
13.948661532819948,0.44934534169920193
13.982031536486982,0.22392899441188296
14.015401540154015,0.010866580795312305
14.048771543821047,-0.11917372138151355
14.082141547488082,-0.1229105123453189
14.115511551155114,-0.003196791506358502
14.148881554822148,0.18987539775880585
14.182251558489181,0.3771796268191204
14.215621562156215,0.48113824094539415
14.248991565823248,0.45605471239010503
14.282361569490282,0.3054709337497209
14.315731573157315,0.07934854293101777
14.349101576824348,-0.14747319204264273
14.382471580491382,-0.3060922280205393
14.415841584158414,-0.3603297919331757
14.449211587825449,-0.3182163536965629
14.482581591492481,-0.2239592889182181
14.515951595159516,-0.13505720669093857
14.549321598826548,-0.09580501607147254
14.582691602493583,-0.11957703195062268
14.616061606160615,-0.18742592557394544
14.649431609827648,-0.2621221054755696
14.682801613494682,-0.3091140323867715
14.716171617161715,-0.3130207438108391
14.749541620828749,-0.28157940374533635
14.782911624495782,-0.23638426487475722
14.816281628162816,-0.1969392529412537
14.849651631829849,-0.16756006855661715
14.883021635496883,-0.13423750509051108
14.916391639163916,-0.07261500500934975
14.94976164283095,0.037639569548815664
14.983131646497982,0.19951506240927372
15.016501650165015,0.3925472582482777
15.04987165383205,0.5761896296791105
15.083241657499082,0.7009182020618879
15.116611661166116,0.7230147733665562
15.149981664833149,0.6186623604515361
15.183351668500183,0.3937422930101422
15.216721672167216,0.08656388075125025
15.25009167583425,-0.23836197339687126
15.283461679501283,-0.5056818026286098
15.316831683168315,-0.6508055829113819
15.35020168683535,-0.6413157918493909
15.383571690502382,-0.48983215572507777
15.416941694169417,-0.25175193336734164
15.45031169783645,-0.006884955975090727
15.483681701503484,0.16885184463749744
15.517051705170516,0.2304633212741889
15.55042170883755,0.17834863590972552
15.583791712504583,0.05425985554898419
15.617161716171616,-0.07896181961369012
15.65053171983865,-0.16445710149194487
15.683901723505683,-0.17329990341875076
15.717271727172717,-0.11256071779874759
15.75064173083975,-0.017660983192480873
15.784011734506784,0.06576638803189906
15.817381738173816,0.10158173195736375
15.85075174184085,0.07639381344421857
15.884121745507883,0.0026176296810720466
15.917491749174916,-0.08758785645687558
15.95086175284195,-0.15354698512516407
15.984231756508983,-0.15837830249655457
16.017601760176017,-0.07983826878028112
16.05097176384305,0.08158045280755494
16.084341767510082,0.2986888836082523
16.117711771177117,0.5200688945986877
16.15108177484415,0.6811061738152898
16.184451778511182,0.7231310884167361
16.217821782178216,0.6156908860016485
16.25119178584525,0.3730771069247993
16.284561789512285,0.05602189818549657
16.317931793179316,-0.245576747264361
16.35130179684635,-0.4444697628196513
16.384671800513384,-0.4899663355487277
16.41804180418042,-0.38871871823123566
16.45141180784745,-0.20197006111525148
16.484781811514484,-0.019463852005135143
16.51815181518152,0.07862424596200901
16.55152181884855,0.05452833991695741
16.584891822515583,-0.07408680138086342
16.618261826182618,-0.24583380015653272
16.651631829849652,-0.3852449204357922
16.685001833516683,-0.4357698191612396
16.718371837183717,-0.38131453921407654
16.75174184085075,-0.24832957432751032
16.785111844517782,-0.09022866247106838
16.818481848184817,0.036570946707148964
16.85185185185185,0.093797994233171
16.885221855518886,0.07205090638488698
16.918591859185916,-0.010453523380737633
16.95196186285295,-0.11767871198014893
16.985331866519985,-0.20882538802381517
17.01870187018702,-0.2503303415341606
17.05207187385405,-0.22452318304270513
17.085441877521085,-0.1340494600305484
17.11881188118812,-0.0014542683930304596
17.15218188485515,0.13667217913119672
17.185551888522184,0.24071378597751922
17.21892189218922,0.28191293142430923
17.252291895856253,0.2546010369874898
