Time (s),Filtered Signal
0.0,-0.00736883576276127
0.0334075723830735,-0.5295339492252513
0.066815144766147,-1.0176738871676132
0.1002227171492205,-1.4301061833490287
0.133630289532294,-1.7188111803488968
0.1670378619153675,-1.8438863676770487
0.200445434298441,-1.7936678536050146
0.23385300668151449,-1.597734952618871
0.267260579064588,-1.322387564658206
0.3006681514476615,-1.0477602648460573
0.334075723830735,-0.8367713618257742
0.3674832962138085,-0.7116276248386691
0.400890868596882,-0.6499705444430128
0.4342984409799555,-0.6020678504681379
0.46770601336302897,-0.5191684027424841
0.5011135857461025,-0.37782598375539356
0.534521158129176,-0.18834915383568093
0.5679287305122495,0.014942741743088834
0.601336302895323,0.1940768611059208
0.6347438752783965,0.32606166190065977
0.66815144766147,0.4100314411690512
0.7015590200445435,0.4608994519325304
0.734966592427617,0.49557121504096147
0.7683741648106905,0.5214162102171918
0.801781737193764,0.534173085797842
0.8351893095768375,0.5257638536237511
0.868596881959911,0.4959226855687367
0.9020044543429845,0.4590433388614169
0.9354120267260579,0.44055777064383733
0.9688195991091315,0.46365587866150065
1.002227171492205,0.5334448949879298
1.0356347438752784,0.6280710079209532
1.069042316258352,0.7033167627828231
1.1024498886414256,0.7101470018527543
1.135857461024499,0.6173542940733674
1.1692650334075725,0.4280055326800781
1.202672605790646,0.18099902559332606
1.2360801781737194,-0.06351306294312704
1.269487750556793,-0.24787953128091353
1.3028953229398665,-0.33853530368166956
1.33630289532294,-0.3357945437939786
1.3697104677060135,-0.2687719006670108
1.403118040089087,-0.17978119761209765
1.4365256124721606,-0.10683141260929613
1.469933184855234,-0.07213819120912213
1.5033407572383075,-0.08004086818459001
1.536748329621381,-0.12237977511916476
1.5701559020044544,-0.1861959802217109
1.603563474387528,-0.258882210325862
1.6369710467706016,-0.3288896916542265
1.670378619153675,-0.38366745990637735
1.7037861915367485,-0.40849444019144054
1.737193763919822,-0.38916454164213504
1.7706013363028954,-0.3185869778006867
1.804008908685969,-0.20402105454016622
1.8374164810690425,-0.06997431189920031
1.8708240534521159,0.04692789551284075
1.9042316258351895,0.11082987445825863
1.937639198218263,0.10231583760011394
1.9710467706013366,0.029170147743037292
2.00445434298441,-0.07419944277380047
2.0378619153674835,-0.15993132830247928
2.071269487750557,-0.18713029978569073
2.1046770601336307,-0.13988338393492977
2.138084632516704,-0.03393989359762928
2.1714922048997773,0.09119868594125781
2.204899777282851,0.1905058777743853
2.2383073496659245,0.23262808542777505
2.271714922048998,0.21091108200240302
2.3051224944320716,0.14219295914303312
2.338530066815145,0.05599140876495474
2.3719376391982183,-0.01894035327801854
2.405345211581292,-0.06387300818947067
2.4387527839643655,-0.07223812751808921
2.472160356347439,-0.04638318163725125
2.5055679287305126,0.006820438541599396
2.538975501113586,0.07813029308598601
2.5723830734966593,0.15546756367387965
2.605790645879733,0.22314311438044956
2.6391982182628064,0.26350315253997597
2.67260579064588,0.261752216633572
2.7060133630289536,0.21199166034817796
2.739420935412027,0.12111687414965074
2.7728285077951007,0.008115194961793354
2.806236080178174,-0.10123538078596134
2.8396436525612474,-0.1819743565439297
2.873051224944321,-0.2168197622091776
2.9064587973273945,-0.20011543625904998
2.939866369710468,-0.13829266935312243
2.9732739420935417,-0.047493687900514274
3.006681514476615,0.050583332005189094
3.0400890868596884,0.1336543617542927
3.073496659242762,0.18376757021906592
3.1069042316258355,0.1912262837503517
3.140311804008909,0.15657904334362938
3.1737193763919826,0.09012305805517763
3.207126948775056,0.00906064498659143
3.2405345211581293,-0.06696149985339338
3.273942093541203,-0.12100706804449556
3.3073496659242765,-0.14379048805172615
3.34075723830735,-0.13727238441795045
3.3741648106904236,-0.11528006444627953
3.407572383073497,-0.09946424546526386
3.4409799554565703,-0.11025402130169104
3.474387527839644,-0.15534490328300138
3.5077951002227175,-0.22120152304900562
3.541202672605791,-0.2736624191142242
3.5746102449888646,-0.27039779787789653
3.608017817371938,-0.18159543369381628
3.6414253897550113,-0.00931925734179421
3.674832962138085,0.20542818642025226
3.7082405345211584,0.3940054011773322
3.7416481069042318,0.486737884862722
3.7750556792873056,0.44341624276721764
3.808463251670379,0.27345097903005067
3.8418708240534527,0.03576270830092362
3.875278396436526,-0.1823905498006309
3.9086859688195994,-0.299075860007808
3.942093541202673,-0.26986529828998146
3.9755011135857465,-0.10524371697712989
4.00890868596882,0.13376457204511077
4.042316258351893,0.3595638989922184
4.075723830734967,0.4911833845531741
4.109131403118041,0.4828355410194742
4.142538975501114,0.3367986979849307
4.1759465478841875,0.09727917957249951
4.209354120267261,-0.16953546378557866
4.242761692650334,-0.3989790127415031
4.276169265033408,-0.5453761839683868
4.309576837416482,-0.5890475072345557
4.342984409799555,-0.5344036006009495
4.3763919821826285,-0.4038801766364501
4.409799554565702,-0.23162822351521625
4.443207126948775,-0.05770320425977575
4.476614699331849,0.07887316555653083
4.510022271714923,0.14925093101121284
4.543429844097996,0.14415639221894752
4.5768374164810695,0.0788437142393945
4.610244988864143,-0.010889522606794015
4.643652561247216,-0.0821327931657242
4.67706013363029,-0.10265783191322245
4.710467706013364,-0.06444970308305781
4.743875278396437,0.014409171316590863
4.77728285077951,0.1009759240677257
4.810690423162584,0.1658907697548056
4.844097995545657,0.198684074047984
4.877505567928731,0.21109961317667422
4.910913140311805,0.22650229823108078
4.944320712694878,0.2618520523121468
4.977728285077951,0.3135225650785108
5.011135857461025,0.35626246313144483
5.044543429844098,0.35674033311653236
5.077951002227172,0.2940094833740459
5.111358574610246,0.17449504166518837
5.144766146993319,0.031865319469636194
5.178173719376392,-0.08904828579670562
5.211581291759466,-0.15552735345471339
5.244988864142539,-0.16414239202651715
5.278396436525613,-0.14183063524030146
5.311804008908687,-0.1300520282172517
5.34521158129176,-0.16082125925504276
5.378619153674833,-0.2379251446604424
5.412026726057907,-0.3336053689418736
5.445434298440981,-0.40236608774345967
5.478841870824054,-0.4043425007586406
5.512249443207128,-0.32587770673433897
5.545657015590201,-0.18689076157281392
5.579064587973274,-0.03180729958092546
5.612472160356348,0.09081215219337857
5.645879732739422,0.14956215297979347
5.679287305122495,0.14222329075783047
5.712694877505569,0.09350431380315025
5.746102449888642,0.04070617625510997
5.779510022271715,0.015176624187161168
5.812917594654789,0.028791340428385263
5.846325167037863,0.07135171927860776
5.879732739420936,0.11877149482622062
5.91314031180401,0.14659243910889777
5.946547884187083,0.14148788309881843
5.979955456570156,0.10560057373829512
6.01336302895323,0.05307210266611099
6.046770601336304,0.002096685619505967
6.080178173719377,-0.03282746255974921
6.1135857461024505,-0.04520866079667511
6.146993318485524,-0.036826136274666355
6.180400890868597,-0.015276571411857025
6.213808463251671,0.009477510389275145
6.247216035634745,0.0284787270945476
6.280623608017818,0.03658610949855965
6.3140311804008915,0.03423722802820215
6.347438752783965,0.02738651385221035
6.380846325167038,0.02503864095309707
6.414253897550112,0.03481583383695126
6.447661469933186,0.058359632088250867
6.481069042316259,0.08905145483476537
6.5144766146993325,0.11376681910968567
6.547884187082406,0.11831357368765726
6.581291759465479,0.09400815901655396
6.614699331848553,0.04198186233079306
6.648106904231627,-0.027010251034939873
6.6815144766147,-0.09695203889807162
6.7149220489977735,-0.15250998198474044
6.748329621380847,-0.18345902276437207
6.78173719376392,-0.1859481122352729
6.815144766146994,-0.1612167793185638
6.848552338530068,-0.11378880688000474
6.881959910913141,-0.050837055677763573
6.915367483296214,0.017245691314288263
6.948775055679288,0.07664584716242054
6.982182628062361,0.1121221474722528
7.015590200445435,0.11159741183083768
7.048997772828509,0.07161831342134652
7.082405345211582,0.0006670197882733743
7.115812917594655,-0.08206783961377313
7.149220489977729,-0.15256906967489126
7.182628062360802,-0.19010210881074924
7.216035634743876,-0.18398100663356903
7.24944320712695,-0.13627498155869072
7.282850779510023,-0.059951354744547866
7.316258351893096,0.02597298100039638
7.34966592427617,0.10195826146609158
7.383073496659243,0.1525414036951811
7.416481069042317,0.16961756321010288
7.449888641425391,0.154565521221834
7.4832962138084635,0.11886781922760159
7.516703786191537,0.08203479247397524
7.550111358574611,0.0657391207649083
7.583518930957685,0.08476755637536401
7.616926503340758,0.13798278709729936
7.650334075723832,0.2041555613193996
7.683741648106905,0.24660398645877685
7.717149220489978,0.22682378882638318
7.750556792873052,0.1223537573255378
7.783964365256126,-0.05923975167765924
7.817371937639199,-0.27785715831410374
7.850779510022273,-0.47270229374259437
7.884187082405346,-0.584454586347905
7.917594654788419,-0.5783000725275378
7.951002227171493,-0.45735058686105023
7.984409799554567,-0.2602816673092269
8.01781737193764,-0.04456459621208957
8.051224944320714,0.13646080578222966
8.084632516703786,0.25187973138016245
8.118040089086861,0.2991546379701691
8.151447661469934,0.2969043724181891
8.184855233853007,0.27038787223793653
8.218262806236082,0.23839340058372768
8.251670378619155,0.2079295057697755
8.285077951002227,0.17755902609138197
8.318485523385302,0.14503262996210148
8.351893095768375,0.11305736712872248
8.385300668151448,0.0892228734134055
8.418708240534523,0.08051059931331378
8.452115812917596,0.08654539616828659
8.485523385300668,0.0966161376056142
8.518930957683743,0.09315211282461894
8.552338530066816,0.06033919253060954
8.585746102449889,-0.006677245168334315
8.619153674832964,-0.09714215895094239
8.652561247216036,-0.18739188776511273
8.68596881959911,-0.24986216662092878
8.719376391982184,-0.26421789785055677
8.752783964365257,-0.2256088906702498
8.78619153674833,-0.14673223262014878
8.819599109131405,-0.05333347677609371
8.853006681514477,0.0246389632738694
8.88641425389755,0.06283932267966834
8.919821826280625,0.050160096870334875
8.953229398663698,-0.00788223225921906
8.98663697104677,-0.09086029556004963
9.020044543429846,-0.16988734643554065
9.053452115812918,-0.21719884450766802
9.086859688195991,-0.2160498554058524
9.120267260579066,-0.16740244445383612
9.153674832962139,-0.09031726596484294
9.187082405345212,-0.014932475604383435
9.220489977728286,0.029993515176871103
9.25389755011136,0.030087213115227694
9.287305122494432,-0.007031241398160279
9.320712694877507,-0.05366372710748763
9.35412026726058,-0.07340965493881713
9.387527839643653,-0.03735518952568455
9.420935412026727,0.062110820746257275
9.4543429844098,0.20611043086294756
9.487750556792873,0.3550261490965138
9.521158129175948,0.46259685329293476
9.55456570155902,0.49238624572971657
9.587973273942094,0.4302230498394363
9.621380846325168,0.2885022469990715
9.654788418708241,0.10172678540263162
9.688195991091314,-0.08434767181610235
9.721603563474389,-0.22607680094188617
9.755011135857462,-0.2938251727755974
9.788418708240535,-0.27926107978199766
9.82182628062361,-0.196270538597606
9.855233853006682,-0.07544457853868614
9.888641425389755,0.04600273390970429
9.92204899777283,0.1355127852540434
9.955456570155903,0.1738904632564079
9.988864142538976,0.15875766771450595
10.02227171492205,0.10222528332228051
10.055679287305123,0.024483078719639714
10.089086859688196,-0.053725390658418436
10.12249443207127,-0.11693397981204776
10.155902004454344,-0.15755909373248328
10.189309576837417,-0.17533634110409974
10.222717149220491,-0.17478621383885287
10.256124721603564,-0.16226533866540727
10.289532293986637,-0.14383315761718807
10.322939866369712,-0.12443165440825486
10.356347438752785,-0.10804854730264138
10.389755011135858,-0.09796203692146076
10.423162583518932,-0.09619579079115569
10.456570155902005,-0.10205368975497606
10.489977728285078,-0.11066938670636817
10.523385300668153,-0.11310609721680084
10.556792873051226,-0.09901532974698536
10.590200445434299,-0.061290536077700485
10.623608017817373,-0.000493369214600143
10.657015590200446,0.07365691915856196
10.69042316258352,0.1451458734441195
10.723830734966594,0.19783427546080845
10.757238307349667,0.2218239315643622
10.790645879732741,0.21667615537387627
10.824053452115814,0.19002441563898942
10.857461024498887,0.15293183503594607
10.890868596881962,0.11519322765460652
10.924276169265035,0.08340499641018015
10.957683741648108,0.062296872960578016
10.991091314031182,0.05718906445009298
11.024498886414255,0.07440896859623312
11.057906458797328,0.11791598249660873
11.091314031180403,0.18342299446137902
11.124721603563476,0.2539728422774815
11.158129175946549,0.3012862185932564
11.191536748329623,0.2945857151123731
11.224944320712696,0.2141729371807577
11.25835189309577,0.063284715424846
11.291759465478844,-0.1288021677111182
11.325167037861917,-0.31582554383135497
11.35857461024499,-0.45282277841256574
11.391982182628064,-0.5151104604375293
11.425389755011137,-0.5080844036717163
11.45879732739421,-0.4622287641210165
11.492204899777285,-0.4155583818715648
11.525612472160358,-0.39270168086396506
11.55902004454343,-0.3918100164836769
11.592427616926505,-0.3862125421955805
11.625835189309578,-0.33969755498109944
11.659242761692651,-0.22709843087503162
11.692650334075726,-0.04939729519114906
11.726057906458799,0.1641512657377591
11.759465478841872,0.36747576622645783
11.792873051224946,0.5166217562895425
11.82628062360802,0.5868812052680397
11.859688195991092,0.5804100649731921
11.893095768374167,0.5217523172097637
11.92650334075724,0.4445557633529173
11.959910913140313,0.37647790684213384
11.993318485523387,0.3292648171391514
12.02672605790646,0.29764189693549437
12.060133630289533,0.2660013590574622
12.093541202672608,0.21838616384570086
12.12694877505568,0.14654311618547214
12.160356347438753,0.05276849745117432
12.193763919821828,-0.0525890534584196
12.227171492204901,-0.1565919573845761
12.260579064587974,-0.2489550842510698
12.293986636971049,-0.3247030256885948
12.327394209354122,-0.38353692564151637
12.360801781737194,-0.42679256445308017
12.39420935412027,-0.45382363231797956
12.427616926503342,-0.4597721591384754
12.461024498886415,-0.4360625815024476
12.49443207126949,-0.3738138034275327
12.527839643652563,-0.26906894785137053
12.561247216035635,-0.12773702754301114
12.59465478841871,0.03215450562734141
12.628062360801783,0.18262585953897714
12.661469933184856,0.2924868670684749
12.69487750556793,0.33682675051385164
12.728285077951004,0.30586274033165256
12.761692650334076,0.2094854500381711
12.795100222717151,0.07524442299288733
12.828507795100224,-0.05986064512831773
12.861915367483297,-0.1608012129309019
12.895322939866372,-0.20488910924978926
12.928730512249444,-0.18748231042376842
12.962138084632517,-0.12151231447724656
12.995545657015592,-0.031673106380084644
13.028953229398665,0.05431931938751441
13.062360801781738,0.11454188702811165
13.095768374164813,0.13927644738920597
13.129175946547885,0.13329694351261248
13.162583518930958,0.11326098961425135
13.195991091314033,0.10067778360109038
13.229398663697106,0.11248847496777069
13.262806236080179,0.15275354980016978
13.296213808463254,0.20937211037300274
13.329621380846326,0.2582832925938139
13.3630289532294,0.274258544716795
13.396436525612474,0.24361974388057056
13.429844097995547,0.17229360410737152
13.46325167037862,0.08420944527591658
13.496659242761694,0.009858629535762812
13.530066815144767,-0.029591268399477958
13.56347438752784,-0.03416564934685623
13.596881959910915,-0.025988900685400388
13.630289532293988,-0.037883205042365316
13.66369710467706,-0.09507021084623747
13.697104677060135,-0.19951887257377082
13.730512249443208,-0.3255377062410101
13.763919821826281,-0.42951524281202036
13.797327394209356,-0.4692939155862882
13.830734966592429,-0.4235729397392099
13.864142538975502,-0.30174451788889245
13.897550111358576,-0.13958953660985526
13.93095768374165,0.016533553295425926
13.964365256124722,0.12886684457048747
13.997772828507797,0.18161052941330583
14.03118040089087,0.18289756422416295
14.064587973273943,0.15588625159132266
14.097995545657017,0.12469249709698653
14.13140311804009,0.10273851920472231
14.164810690423163,0.08899940742903041
14.198218262806238,0.07299493032539503
14.23162583518931,0.0447162548081174
14.265033407572384,0.0033341212520645405
14.298440979955458,-0.04042141330564217
14.331848552338531,-0.06955897748934627
14.365256124721604,-0.07073215639262723
14.398663697104679,-0.04299511228954112
14.432071269487752,-0.00014514540662536034
14.465478841870825,0.03518513058497814
14.4988864142539,0.04300387573342992
14.532293986636972,0.017130392335703747
14.565701559020045,-0.0299633111123028
14.59910913140312,-0.07165061830818793
14.632516703786193,-0.0793270877036109
14.665924276169266,-0.03659966420232022
14.69933184855234,0.05150533818243788
14.732739420935413,0.15919032023917304
14.766146993318486,0.2505582157455871
14.79955456570156,0.29539037521762973
14.832962138084634,0.28228008618061173
14.866369710467707,0.222490055095637
14.899777282850781,0.14263322348388455
14.933184855233854,0.0701931986589759
14.966592427616927,0.01974386561826621
15.0,-0.012716004583486748
