Time (s),Filtered Signal
0.0,0.015963192091200652
0.0334075723830735,-0.4116732337069201
0.066815144766147,-0.7595665724790324
0.1002227171492205,-0.968543194849838
0.133630289532294,-1.0139692984222959
0.1670378619153675,-0.9090738752461311
0.200445434298441,-0.6972848781066378
0.23385300668151449,-0.4369895980314159
0.267260579064588,-0.18427048370323418
0.3006681514476615,0.020844687962021415
0.334075723830735,0.16092658754985015
0.3674832962138085,0.23958766000984325
0.400890868596882,0.2737018571883365
0.4342984409799555,0.2832101552616494
0.46770601336302897,0.2828121816179229
0.5011135857461025,0.2786212277438477
0.534521158129176,0.2702767112261412
0.5679287305122495,0.256204097908936
0.601336302895323,0.23821223868809246
0.6347438752783965,0.22238861765586088
0.66815144766147,0.21587630251526058
0.7015590200445435,0.22189137768842984
0.734966592427617,0.2364299364914815
0.7683741648106905,0.24889207998056756
0.801781737193764,0.24632280319836625
0.8351893095768375,0.21892350053114829
0.868596881959911,0.16410928020345392
0.9020044543429845,0.08751850029482998
0.9354120267260579,0.0009482568103908198
0.9688195991091315,-0.08175141917017752
1.002227171492205,-0.14941997842770055
1.0356347438752784,-0.19752570576447157
1.069042316258352,-0.22993398427069517
1.1024498886414256,-0.2575000349065995
1.135857461024499,-0.29343158340435
1.1692650334075725,-0.346805758061149
1.202672605790646,-0.4168997205010624
1.2360801781737194,-0.4912324893339193
1.269487750556793,-0.5489205280748837
1.3028953229398665,-0.568479136232083
1.33630289532294,-0.5367662955681649
1.3697104677060135,-0.4548208463385217
1.403118040089087,-0.33764949686239565
1.4365256124721606,-0.20799591255187588
1.469933184855234,-0.0871261392359763
1.5033407572383075,0.013003195656757055
1.536748329621381,0.09280016163410111
1.5701559020044544,0.1624589399507629
1.603563474387528,0.23549119922878173
1.6369710467706016,0.3215115542886709
1.670378619153675,0.42121958866854264
1.7037861915367485,0.5251672557481066
1.737193763919822,0.6162522805335788
1.7706013363028954,0.6746850081389599
1.804008908685969,0.6837405085075355
1.8374164810690425,0.6347545484101728
1.8708240534521159,0.5301754554180421
1.9042316258351895,0.38384140481789275
1.937639198218263,0.21813363795532842
1.9710467706013366,0.0584775283270071
2.00445434298441,-0.07325891545819276
2.0378619153674835,-0.16414143744806564
2.071269487750557,-0.21222041676182982
2.1046770601336307,-0.2245982474234665
2.138084632516704,-0.2128283528368917
2.1714922048997773,-0.18822730034416
2.204899777282851,-0.1593702280414708
2.2383073496659245,-0.13236755238715195
2.271714922048998,-0.11265437811291083
2.3051224944320716,-0.10619995721467768
2.338530066815145,-0.118697672497573
2.3719376391982183,-0.15285876739061266
2.405345211581292,-0.205343430593548
2.4387527839643655,-0.2652894751575801
2.472160356347439,-0.31567809226559934
2.5055679287305126,-0.3373966096225622
2.538975501113586,-0.31461343209854076
2.5723830734966593,-0.23960404054694093
2.605790645879733,-0.11558559166129301
2.6391982182628064,0.04297384619360075
2.67260579064588,0.21231994321996642
2.7060133630289536,0.3631144159217465
2.739420935412027,0.46545880182195054
2.7728285077951007,0.4949055135369254
2.806236080178174,0.43876128434047357
2.8396436525612474,0.3011926965559167
2.873051224944321,0.10494458626562664
2.9064587973273945,-0.11232895872233745
2.939866369710468,-0.30754021475318866
2.9732739420935417,-0.44521459320459894
3.006681514476615,-0.5094020954163342
3.0400890868596884,-0.5090859113097249
3.073496659242762,-0.47380795769447837
3.1069042316258355,-0.4404711122058299
3.140311804008909,-0.4366273907517709
3.1737193763919826,-0.4676409468104174
3.207126948775056,-0.5136362219548983
3.2405345211581293,-0.5376990968369769
3.273942093541203,-0.5015578917833104
3.3073496659242765,-0.3815158213943772
3.34075723830735,-0.1774319396565311
3.3741648106904236,0.08895185093172255
3.407572383073497,0.3847526462358055
3.4409799554565703,0.6796803936852274
3.474387527839644,0.955271717559746
3.5077951002227175,1.2046659106055615
3.541202672605791,1.4233669445161532
3.5746102449888646,1.5969853997132193
3.608017817371938,1.6945010973776762
3.6414253897550113,1.6732508222758948
3.674832962138085,1.495380115038996
3.7082405345211584,1.148319815103351
3.7416481069042318,0.6583073623847141
3.7750556792873056,0.08865701095430277
3.808463251670379,-0.4777152839622943
3.8418708240534527,-0.9635456275911167
3.875278396436526,-1.3182929863644102
3.9086859688195994,-1.5259592385959786
3.942093541202673,-1.5984098557069795
3.9755011135857465,-1.560673296666072
4.00890868596882,-1.437700282090066
4.042316258351893,-1.249113025699978
4.075723830734967,-1.0122021877544967
4.109131403118041,-0.7481608915410765
4.142538975501114,-0.48530176011919973
4.1759465478841875,-0.2558268748690251
4.209354120267261,-0.08722017894785165
4.242761692650334,0.007354638128091739
4.276169265033408,0.03470394332634777
4.309576837416482,0.0203078394625558
4.342984409799555,0.00019538790351691037
4.3763919821826285,0.008901316634323952
4.409799554565702,0.06791479322053685
4.443207126948775,0.17887277717933622
4.476614699331849,0.3240389003864221
4.510022271714923,0.47385849553468634
4.543429844097996,0.5985320070053705
4.5768374164810695,0.6788089657000633
4.610244988864143,0.7115250212943187
4.643652561247216,0.7078251064501674
4.67706013363029,0.685421244620148
4.710467706013364,0.6588883304523766
4.743875278396437,0.6325871674863847
4.77728285077951,0.5992006898613734
4.810690423162584,0.5441059245831529
4.844097995545657,0.4533008244579367
4.877505567928731,0.32134779215487874
4.910913140311805,0.1560089723276096
4.944320712694878,-0.022395692453259602
4.977728285077951,-0.18689488698535064
5.011135857461025,-0.312968060647135
5.044543429844098,-0.38728853773259064
5.077951002227172,-0.41234195478471813
5.111358574610246,-0.40463479624517673
5.144766146993319,-0.3870186105562555
5.178173719376392,-0.3785328946342498
5.211581291759466,-0.38652180863081365
5.244988864142539,-0.4047011610373233
5.278396436525613,-0.4178252536756545
5.311804008908687,-0.4102848125278943
5.34521158129176,-0.374166290129191
5.378619153674833,-0.3128929332985973
5.412026726057907,-0.23906145187908076
5.445434298440981,-0.16804522532934427
5.478841870824054,-0.11083616280682937
5.512249443207128,-0.06962924833475698
5.545657015590201,-0.0380190367473582
5.579064587973274,-0.005343915847649228
5.612472160356348,0.037173233946210416
5.645879732739422,0.09150721682676516
5.679287305122495,0.15144242073551276
5.712694877505569,0.20531918972365376
5.746102449888642,0.24157431054363002
5.779510022271715,0.25440149902592657
5.812917594654789,0.2467670238653384
5.846325167037863,0.22924449733112426
5.879732739420936,0.21510950519834326
5.91314031180401,0.21392064764774343
5.946547884187083,0.2265829930384201
5.979955456570156,0.24429133764835403
6.01336302895323,0.2520143644322782
6.046770601336304,0.23503950467917184
6.080178173719377,0.18555799725730643
6.1135857461024505,0.10618030001756298
6.146993318485524,0.008796678212289534
6.180400890868597,-0.09043672788020697
6.213808463251671,-0.1773263081948826
6.247216035634745,-0.24405715732641775
6.280623608017818,-0.28998333631666295
6.3140311804008915,-0.3189382166850476
6.347438752783965,-0.3348371470060981
6.380846325167038,-0.33795258834649927
6.414253897550112,-0.32374440640870833
6.447661469933186,-0.2848657050109508
6.481069042316259,-0.21547157057208435
6.5144766146993325,-0.11581992397357227
6.547884187082406,0.005125199404617703
6.581291759465479,0.13058788503031293
6.614699331848553,0.24029348400237263
6.648106904231627,0.31648311262549955
6.6815144766147,0.34904741172597853
6.7149220489977735,0.337597022520495
6.748329621380847,0.2898140942931683
6.78173719376392,0.21734564220982994
6.815144766146994,0.13177170268732524
6.848552338530068,0.04297840722436738
6.881959910913141,-0.039494141356160264
6.915367483296214,-0.10393536491783896
6.948775055679288,-0.13596503249095623
6.982182628062361,-0.12234498339269731
7.015590200445435,-0.05837380311537961
7.048997772828509,0.04519280792018527
7.082405345211582,0.16092035165505184
7.115812917594655,0.25205304437992876
7.149220489977729,0.28645667817482035
7.182628062360802,0.2506704676311298
7.216035634743876,0.15651282813955494
7.24944320712695,0.0360561051401087
7.282850779510023,-0.07312613664741205
7.316258351893096,-0.1452180715104381
7.34966592427617,-0.17725773078997054
7.383073496659243,-0.18865619094302555
7.416481069042317,-0.20979415748588337
7.449888641425391,-0.265789143924617
7.4832962138084635,-0.3634022353628217
7.516703786191537,-0.48666639516466087
7.550111358574611,-0.602004162647851
7.583518930957685,-0.6693797805666373
7.616926503340758,-0.6545361930124345
7.650334075723832,-0.538605470125579
7.683741648106905,-0.3236504105413719
7.717149220489978,-0.03416324356380508
7.750556792873052,0.28539211544907594
7.783964365256126,0.5774629582351255
7.817371937639199,0.7830464643415493
7.850779510022273,0.8568612762431375
7.884187082405346,0.7823236792645859
7.917594654788419,0.5806428514187506
7.951002227171493,0.30868028232003514
7.984409799554567,0.04368260833096415
8.01781737193764,-0.14135220943387675
8.051224944320714,-0.20276502552555653
8.084632516703786,-0.14131707594766052
8.118040089086861,-0.00034510029820645854
8.151447661469934,0.152636823059064
8.184855233853007,0.2531278430169616
8.218262806236082,0.26414600924090237
8.251670378619155,0.18820479844438
8.285077951002227,0.06275142316273112
8.318485523385302,-0.05789540301905531
8.351893095768375,-0.12590936574217412
8.385300668151448,-0.1189993655681276
8.418708240534523,-0.04796404943892969
8.452115812917596,0.049378977499841714
8.485523385300668,0.12454709617573449
8.518930957683743,0.1379251422638364
8.552338530066816,0.07371294595169187
8.585746102449889,-0.05500426856162861
8.619153674832964,-0.21206104570924367
8.652561247216036,-0.35171994570026055
8.68596881959911,-0.4342974702185182
8.719376391982184,-0.4383370206645205
8.752783964365257,-0.3657948255624843
8.78619153674833,-0.23962958196917614
8.819599109131405,-0.09571839415385429
8.853006681514477,0.02770201199915919
8.88641425389755,0.09997942668217527
8.919821826280625,0.10526509766681946
8.953229398663698,0.04599398193987249
8.98663697104677,-0.057679547949902654
9.020044543429846,-0.1724804208825634
9.053452115812918,-0.2602931749776415
9.086859688195991,-0.2889431529208553
9.120267260579066,-0.2429580885736763
9.153674832962139,-0.13059222282974842
9.187082405345212,0.016571718003825054
9.220489977728286,0.15307511829015988
9.25389755011136,0.23596042617169674
9.287305122494432,0.24210311120101044
9.320712694877507,0.17885715141891578
9.35412026726058,0.0823493664792798
9.387527839643653,0.002966690106639538
9.420935412026727,-0.016332162999456577
9.4543429844098,0.040621987036137244
9.487750556792873,0.15519526177881393
9.521158129175948,0.2814677892618379
9.55456570155902,0.36642720490838265
9.587973273942094,0.3740118613165891
9.621380846325168,0.3020919626394809
9.654788418708241,0.18435835104827228
9.688195991091314,0.07576333625717274
9.721603563474389,0.027680305892610675
9.755011135857462,0.06387471040859069
9.788418708240535,0.16832465056083507
9.82182628062361,0.29075047671057785
9.855233853006682,0.367704902245515
9.888641425389755,0.3499661438873355
9.92204899777283,0.2241141904548089
9.955456570155903,0.018849441808148945
9.988864142538976,-0.20651802187640672
10.02227171492205,-0.386150344194496
10.055679287305123,-0.47378343176759674
10.089086859688196,-0.4597476712745308
10.12249443207127,-0.37208138571471805
10.155902004454344,-0.26203259266448875
10.189309576837417,-0.18103743821185014
10.222717149220491,-0.15968562030898745
10.256124721603564,-0.19770990017264198
10.289532293986637,-0.26846229916315684
10.322939866369712,-0.3344540284890863
10.356347438752785,-0.36570736669897186
10.389755011135858,-0.35209025123727533
10.423162583518932,-0.30445134482741065
10.456570155902005,-0.24519408495387976
10.489977728285078,-0.19401602320891567
10.523385300668153,-0.15653255990291035
10.556792873051226,-0.12159571563106218
10.590200445434299,-0.06837571353598136
10.623608017817373,0.020852182821801627
10.657015590200446,0.14914068581456444
10.69042316258352,0.3006247421409253
10.723830734966594,0.44573629901261
10.757238307349667,0.5531049599779845
10.790645879732741,0.6020841042439269
10.824053452115814,0.5898043098320076
10.857461024498887,0.529762207214996
10.890868596881962,0.44348700653922346
10.924276169265035,0.35034364928182765
10.957683741648108,0.2611174415165415
10.991091314031182,0.1783538715168761
11.024498886414255,0.1020352627711958
11.057906458797328,0.03570011001422167
11.091314031180403,-0.012206535526849216
11.124721603563476,-0.033699076273334225
11.158129175946549,-0.03028392704266701
11.191536748329623,-0.019063228195386
11.224944320712696,-0.029837547078942213
11.25835189309577,-0.09201087902582944
11.291759465478844,-0.21679919176169166
11.325167037861917,-0.3846761140445644
11.35857461024499,-0.5469118016667307
11.391982182628064,-0.6432653039761466
11.425389755011137,-0.628773337943304
11.45879732739421,-0.49645372190861947
11.492204899777285,-0.28364715014428227
11.525612472160358,-0.057676437286214716
11.55902004454343,0.11279123449258942
11.592427616926505,0.18689157827350603
11.625835189309578,0.1673964520356401
11.659242761692651,0.09643748569197956
11.692650334075726,0.03424365505967022
11.726057906458799,0.03153667240083095
11.759465478841872,0.10797020055292463
11.792873051224946,0.24497837170279457
11.82628062360802,0.394404902987388
11.859688195991092,0.49791042587951334
11.893095768374167,0.5088635127750328
11.92650334075724,0.4087163863232525
11.959910913140313,0.212763795055696
11.993318485523387,-0.03577120046527544
12.02672605790646,-0.2804428170429574
12.060133630289533,-0.4693907105744921
12.093541202672608,-0.5697822422013283
12.12694877505568,-0.5741247373205854
12.160356347438753,-0.49732019462270544
12.193763919821828,-0.3672557734313465
12.227171492204901,-0.21397999039731155
12.260579064587974,-0.062054500401491235
12.293986636971049,0.07198544922447071
12.327394209354122,0.17824684912174366
12.360801781737194,0.2511041835437233
12.39420935412027,0.2883328940396613
12.427616926503342,0.2922372910564955
12.461024498886415,0.2711740858509617
12.49443207126949,0.2391065861710825
12.527839643652563,0.21183736286580832
12.561247216035635,0.20072588080777387
12.59465478841871,0.20672421035134209
12.628062360801783,0.21822753496171962
12.661469933184856,0.21495127479717843
12.69487750556793,0.17719981843543745
12.728285077951004,0.09678465457409263
12.761692650334076,-0.01582246069982926
12.795100222717151,-0.1325379590008134
12.828507795100224,-0.21779160262447816
12.861915367483297,-0.24399055392926758
12.895322939866372,-0.20526663207231366
12.928730512249444,-0.12239529561121915
12.962138084632517,-0.035455470241458294
12.995545657015592,0.01326499502013695
13.028953229398665,-0.001649540355598536
13.062360801781738,-0.07706636673799627
13.095768374164813,-0.18311829476616956
13.129175946547885,-0.2777620179353691
13.162583518930958,-0.3265899811570895
13.195991091314033,-0.3175961271981177
13.229398663697106,-0.2634831518075411
13.262806236080179,-0.19113257102687808
13.296213808463254,-0.12497502124413919
13.329621380846326,-0.07403801697274505
13.3630289532294,-0.0297126603288898
13.396436525612474,0.025426436242808576
13.429844097995547,0.10394095040631166
13.46325167037862,0.20363597882297244
13.496659242761694,0.30722584455591195
13.530066815144767,0.3911553580144162
13.56347438752784,0.4376279847215506
13.596881959910915,0.44231704117867165
13.630289532293988,0.41339281078862244
13.66369710467706,0.3632378166389001
13.697104677060135,0.2989021960477516
13.730512249443208,0.21807013498623157
13.763919821826281,0.1136220559408867
13.797327394209356,-0.015960516675441027
13.830734966592429,-0.15746443130240012
13.864142538975502,-0.28223513742947187
13.897550111358576,-0.35638522681746715
13.93095768374165,-0.3576175889256293
13.964365256124722,-0.28946126459188276
13.997772828507797,-0.1839429504083727
14.03118040089087,-0.08941257998255703
14.064587973273943,-0.0484582322136094
14.097995545657017,-0.0769142719535399
14.13140311804009,-0.15522003840204507
14.164810690423163,-0.2373836024160929
14.198218262806238,-0.27366630743845655
14.23162583518931,-0.2357589280572218
14.265033407572384,-0.131659994153623
14.298440979955458,-0.0025808603157428914
14.331848552338531,0.09667466546838377
14.365256124721604,0.12406406174025282
14.398663697104679,0.07037749166310657
14.432071269487752,-0.03654109380203689
14.465478841870825,-0.1448946226462231
14.4988864142539,-0.20243114499871886
14.532293986636972,-0.1789218462931608
14.565701559020045,-0.077487820744162
14.59910913140312,0.06942543762673982
14.632516703786193,0.21627669971463656
14.665924276169266,0.32446038997908105
14.69933184855234,0.3767735517694291
14.732739420935413,0.38033773831801243
14.766146993318486,0.35788421434871
14.79955456570156,0.3328529481433753
14.832962138084634,0.3163573942684318
14.866369710467707,0.3025585739058474
14.899777282850781,0.2742294556108803
14.933184855233854,0.21479369437633414
14.966592427616927,0.11979431475982381
15.0,0.0013184787097087808
