Time (s),Filtered Signal
0.0,-0.005426453723989256
0.033370535714285714,0.12097873502067263
0.06674107142857143,0.22317016324105365
0.10011160714285713,0.2865274141553405
0.13348214285714285,0.31066854874354594
0.16685267857142858,0.307269700594622
0.20022321428571427,0.29271615293864656
0.23359375,0.2798414881116636
0.2669642857142857,0.272965954698019
0.30033482142857143,0.2680599545429035
0.33370535714285715,0.2567965680179627
0.36707589285714287,0.23145394274425643
0.40044642857142854,0.18802157457402233
0.43381696428571426,0.12681655675352682
0.4671875,0.05176380167926187
0.5005580357142857,-0.03014516382884754
0.5339285714285714,-0.10887290062252059
0.5672991071428571,-0.17195053202086227
0.6006696428571429,-0.20708511180365885
0.6340401785714286,-0.2068310552225151
0.6674107142857143,-0.1733907384335644
0.70078125,-0.12051055159357177
0.7341517857142857,-0.07029045899508904
0.7675223214285715,-0.045258626226159795
0.8008928571428571,-0.0588445015299399
0.8342633928571428,-0.1087237597432012
0.8676339285714285,-0.1765100073483652
0.9010044642857142,-0.23437038251370831
0.934375,-0.2558596805041928
0.9677455357142857,-0.2263148824841833
1.0011160714285714,-0.14847944318274864
1.0344866071428571,-0.04132867325356322
1.0678571428571428,0.0669584714010101
1.1012276785714286,0.14876388056973924
1.1345982142857143,0.18585512322748762
1.16796875,0.17449998664893412
1.2013392857142857,0.125711925945197
1.2347098214285714,0.061037666459589225
1.2680803571428572,0.005450603965264892
1.3014508928571429,-0.020428032200405538
1.3348214285714286,-0.00643352636396848
1.3681919642857143,0.04454877842888221
1.4015625,0.11818907713987929
1.4349330357142858,0.19373145893118093
1.4683035714285715,0.25044931846232277
1.5016741071428572,0.27325031200043715
1.535044642857143,0.25585550980265465
1.5684151785714286,0.20124045851728853
1.6017857142857141,0.12003795245195292
1.6351562499999999,0.027824233855580686
1.6685267857142856,-0.05821543895556729
1.7018973214285713,-0.12314268899885553
1.735267857142857,-0.1583315710264226
1.7686383928571427,-0.16469035713069144
1.8020089285714285,-0.15342866187810794
1.8353794642857142,-0.14312104714609578
1.86875,-0.1532119430768622
1.9021205357142856,-0.1958887587116574
1.9354910714285714,-0.2694524102547736
1.968861607142857,-0.35623158312211
2.002232142857143,-0.42661555177989857
2.0356026785714287,-0.448427927178925
2.0689732142857142,-0.3985514162502973
2.10234375,-0.2724524066140666
2.1357142857142857,-0.08771896264789365
2.169084821428571,0.12012671919231474
2.202455357142857,0.308287668018694
2.2358258928571426,0.44000329252233755
2.2691964285714286,0.4956491870398357
2.302566964285714,0.47766572151108
2.3359375,0.40780259646935235
2.3693080357142855,0.3181254627855343
2.4026785714285714,0.2394743966722235
2.436049107142857,0.19170288091788507
2.469419642857143,0.17892003974702844
2.5027901785714284,0.19075083988785216
2.5361607142857143,0.20834562991312797
2.56953125,0.21237865752176496
2.6029017857142858,0.18996246926652044
2.6362723214285713,0.1381883905995588
2.669642857142857,0.06349467524520838
2.7030133928571427,-0.022284862479406784
2.7363839285714286,-0.10712304554394138
2.769754464285714,-0.18288120798691682
2.803125,-0.24664802491035007
2.8364955357142856,-0.29916635273197567
2.8698660714285715,-0.3416260919501853
2.903236607142857,-0.3728327362550744
2.936607142857143,-0.38845273481740156
2.9699776785714285,-0.3828818530484946
3.0033482142857144,-0.35285048137310004
3.03671875,-0.300839921510863
3.070089285714286,-0.23624252356341716
3.1034598214285714,-0.1731078787845981
3.1368303571428573,-0.12497474363139471
3.170200892857143,-0.09896828601056099
3.2035714285714283,-0.09213261712781708
3.2369419642857142,-0.09223649758924726
3.2703124999999997,-0.08317168600040245
3.3036830357142857,-0.05257792814685802
3.337053571428571,0.0021159681024471243
3.370424107142857,0.07250089416465272
3.4037946428571426,0.1437105078006859
3.4371651785714286,0.20245847690413094
3.470535714285714,0.2443002994362982
3.50390625,0.27594752233615805
3.5372767857142855,0.3109328818986825
3.5706473214285714,0.36061376530983735
3.604017857142857,0.4254368997778738
3.637388392857143,0.4917509163827886
3.6707589285714284,0.5366875674013021
3.7041294642857143,0.5390177228382753
3.7375,0.4900654391859337
3.7708705357142858,0.3982365357978102
3.8042410714285713,0.2841635653261812
3.837611607142857,0.16904605667052852
3.8709821428571427,0.06308710865237309
3.9043526785714286,-0.03882121434184957
3.937723214285714,-0.15120688346793046
3.97109375,-0.2851859027149945
4.004464285714286,-0.43641469045671966
4.0378348214285715,-0.5814504651895313
4.0712053571428575,-0.6854409548738327
4.1045758928571425,-0.7175317878151984
4.1379464285714285,-0.6658692802931433
4.171316964285714,-0.5441785252336837
4.2046875,-0.38646022353321924
4.238058035714285,-0.23268545816601233
4.271428571428571,-0.11289750462763469
4.304799107142857,-0.037463741114553445
4.338169642857142,0.0025425042863129223
4.371540178571428,0.026336580803139963
4.404910714285714,0.05139915593363309
4.43828125,0.08475440747119628
4.471651785714285,0.12130476625854929
4.505022321428571,0.14896479287128928
4.538392857142857,0.1571136532009569
4.571763392857143,0.1438229185298704
4.605133928571428,0.11844770635805948
4.638504464285714,0.0985665567825034
4.671875,0.10274124462331036
4.705245535714286,0.14223282098372092
4.738616071428571,0.215179599028924
4.771986607142857,0.3057596122544258
4.805357142857143,0.38887396331548685
4.838727678571429,0.4386285515547781
4.872098214285714,0.4372828952182342
4.90546875,0.3811114385679393
4.938839285714286,0.2809412726004696
4.972209821428572,0.15742242607582202
5.005580357142857,0.033291438765466336
5.038950892857143,-0.07402448904397381
5.072321428571429,-0.1566037777181517
5.105691964285715,-0.2158807318382599
5.1390625,-0.25900917609526636
5.172433035714286,-0.2939219192514501
5.2058035714285715,-0.32538877010067535
5.2391741071428575,-0.3534277941333736
5.2725446428571425,-0.37404715722049836
5.3059151785714285,-0.3812608021242543
5.339285714285714,-0.369128194617932
5.3726562499999995,-0.33317473632425626
5.406026785714285,-0.27140078136746654
5.439397321428571,-0.18546849823506967
5.472767857142857,-0.08219545075714277
5.506138392857142,0.025522029594031208
5.539508928571428,0.11994210076299346
5.572879464285714,0.18302879788811116
5.60625,0.20373782568580148
5.639620535714285,0.18516999443579446
5.672991071428571,0.14736986621481782
5.706361607142857,0.12244176150225042
5.739732142857143,0.14202231909362414
5.773102678571428,0.22161397740794303
5.806473214285714,0.3493242282815865
5.83984375,0.48588232521214064
5.873214285714286,0.5779750118090615
5.906584821428571,0.5800810916932864
5.939955357142857,0.47486820141714
5.973325892857143,0.2820596203582096
6.006696428571429,0.05101622257313535
6.040066964285714,-0.1595952993683213
6.0734375,-0.30521185590989086
6.106808035714286,-0.37078510209901655
6.140178571428572,-0.3716725441045571
6.173549107142857,-0.34113874199368516
6.206919642857143,-0.3120676570234588
6.240290178571429,-0.302434947547434
6.273660714285715,-0.3109111507549043
6.30703125,-0.322898461814528
6.340401785714286,-0.32191056036196786
6.3737723214285715,-0.29928326219746876
6.407142857142857,-0.25733689072011884
6.4405133928571425,-0.20560326022956407
6.4738839285714285,-0.15378406841837772
6.507254464285714,-0.10646887749219035
6.5406249999999995,-0.06279356878803684
6.573995535714285,-0.020544864920296408
6.607366071428571,0.018905692808046163
6.640736607142857,0.049062747080075596
6.674107142857142,0.0620880496796528
6.707477678571428,0.056030374954906724
6.740848214285714,0.040736494669863364
6.77421875,0.03763528035044254
6.807589285714285,0.07171402162542911
6.840959821428571,0.15867523261872318
6.874330357142857,0.2937609215548908
6.907700892857143,0.4488165072888656
6.941071428571428,0.5804576790269304
6.974441964285714,0.6465379759984811
7.0078125,0.6235655920507168
7.041183035714286,0.5168305568030429
7.074553571428571,0.35833692235067816
7.107924107142857,0.1934676109083031
7.141294642857143,0.06262478981356685
7.174665178571429,-0.013780623618128237
7.208035714285714,-0.04060271895217076
7.24140625,-0.04201887346713878
7.274776785714286,-0.048151337420154726
7.308147321428572,-0.08107393064770735
7.341517857142857,-0.14656123751912256
7.374888392857143,-0.234478556759289
7.408258928571429,-0.32621246556881917
7.441629464285715,-0.4043512081129691
7.475,-0.4594472581335929
7.508370535714286,-0.49103277356262176
7.5417410714285715,-0.5035646382134193
7.575111607142857,-0.5006271394602213
7.6084821428571425,-0.48119138984792253
7.6418526785714285,-0.4400516787138889
7.675223214285714,-0.3719270677943262
7.7085937499999995,-0.27666218966254186
7.741964285714285,-0.1624554681110893
7.775334821428571,-0.04510224586879815
7.808705357142857,0.0568407292680467
7.842075892857142,0.12918066244469234
7.875446428571428,0.16855720183898676
7.908816964285714,0.18524262481554513
7.9421875,0.20037417061413398
7.975558035714285,0.23778599546906545
8.008928571428571,0.3130202607774628
8.042299107142856,0.42389147968602325
8.075669642857143,0.5471630530870242
8.109040178571428,0.6439845548989085
8.142410714285715,0.6731945077968049
8.17578125,0.6078313269099137
8.209151785714285,0.4480370189070107
8.242522321428572,0.2243140764094286
8.275892857142857,-0.011165267998715712
8.309263392857142,-0.20230586083426094
8.342633928571429,-0.3088087266613
8.376004464285714,-0.31974161138969814
8.409375,-0.25557001373647986
8.442745535714286,-0.15838727805340483
8.47611607142857,-0.07502333520333
8.509486607142858,-0.04015775656030587
8.542857142857143,-0.06571724753076899
8.576227678571428,-0.13959391060029588
8.609598214285715,-0.23286137173748978
8.64296875,-0.311800587865574
8.676339285714285,-0.3499744387443159
8.709709821428572,-0.3362705102968579
8.743080357142857,-0.2767102330840627
8.776450892857143,-0.19015978000573747
8.809821428571428,-0.1001360846289709
8.843191964285714,-0.026055873938560337
8.8765625,0.02283872281330004
8.909933035714285,0.048963543498036784
8.94330357142857,0.063339878474921
8.976674107142857,0.07981969812880381
9.010044642857142,0.10918723179922793
9.04341517857143,0.15529637438714078
9.076785714285714,0.214136119358657
9.11015625,0.27539796448230885
9.143526785714286,0.32541286667995034
9.176897321428571,0.3504004162881823
9.210267857142856,0.33948809771551824
9.243638392857143,0.28737046171556935
9.277008928571428,0.19643764647459755
9.310379464285715,0.07779163114910165
9.34375,-0.049753973939117346
9.377120535714285,-0.16331639103735032
9.410491071428572,-0.24182920697555232
9.443861607142857,-0.27245128485347103
9.477232142857142,-0.2550109156065158
9.510602678571429,-0.2024409788672848
9.543973214285714,-0.13674175962387927
9.57734375,-0.0818962189320747
9.610714285714286,-0.05635136119406801
9.64408482142857,-0.06766711130192855
9.677455357142858,-0.11093941166982628
9.710825892857143,-0.17122733328017736
9.744196428571428,-0.22896090056958435
9.777566964285715,-0.2664205303172347
9.8109375,-0.27301175596546773
9.844308035714285,-0.24742061218480935
9.877678571428572,-0.19593136022361193
9.911049107142857,-0.12789192717122103
9.944419642857143,-0.050717440635844865
9.977790178571428,0.03291597259386249
10.011160714285714,0.1241896058735629
10.04453125,0.22409306768498674
10.077901785714285,0.32853963386087304
10.11127232142857,0.425619753919388
10.144642857142857,0.4970817109997024
10.178013392857142,0.5241051084460803
10.21138392857143,0.49519625348242974
10.244754464285714,0.4126449206662397
10.278125,0.29418136790709043
10.311495535714286,0.16832701287689356
10.344866071428571,0.06472881275751079
10.378236607142856,0.0032560457052603557
10.411607142857143,-0.01343433141974812
10.444977678571428,-0.0004180157105720541
10.478348214285715,0.01631644344813339
10.51171875,0.011080471865394794
10.545089285714285,-0.030876162706687294
10.578459821428572,-0.1078909835045077
10.611830357142857,-0.20362598849680236
10.645200892857142,-0.29471488372879584
10.678571428571429,-0.36053230660665503
10.711941964285714,-0.3907554942391468
10.745312499999999,-0.3878241439882574
10.778683035714286,-0.3639273536518646
10.81205357142857,-0.33449220112788747
10.845424107142858,-0.3113105273996292
10.878794642857143,-0.29809804606229484
10.912165178571428,-0.2898429956153349
10.945535714285715,-0.27559567976965865
10.97890625,-0.2431449574458702
11.012276785714285,-0.183685078663001
11.045647321428572,-0.09499088662920166
11.079017857142857,0.017589978093931376
11.112388392857143,0.14225177965926797
11.145758928571428,0.26337895115582555
11.179129464285714,0.36497572625501645
11.2125,0.4341581587079372
11.245870535714285,0.4640757930245732
11.27924107142857,0.4556728030754122
11.312611607142857,0.4177273365590813
11.345982142857142,0.364760213125156
11.37935267857143,0.3128400834709559
11.412723214285714,0.2740898370728225
11.44609375,0.25162850991010627
11.479464285714286,0.237257232052417
11.512834821428571,0.21377684427140528
11.546205357142856,0.16210944181005366
11.579575892857143,0.07089452808130957
11.612946428571428,-0.055751209015280315
11.646316964285715,-0.19665872021083097
11.6796875,-0.3201076395092459
11.713058035714285,-0.3962804259659202
11.746428571428572,-0.4100904843013757
11.779799107142857,-0.3680336050528393
11.813169642857142,-0.29538389508738666
11.846540178571429,-0.22490545685134786
11.879910714285714,-0.1826084121419067
11.913281249999999,-0.17746620326325646
11.946651785714286,-0.19969126301418566
11.98002232142857,-0.22756592292503083
12.013392857142858,-0.23859189116659676
12.046763392857143,-0.21909160161422625
12.080133928571428,-0.16796258920797752
12.113504464285715,-0.0938561220538824
12.146875,-0.008508172365746029
12.180245535714285,0.07949036407817107
12.213616071428572,0.16710172120041009
12.246986607142857,0.25464297216633514
12.280357142857143,0.3409538576187619
12.313727678571428,0.4193607579673021
12.347098214285714,0.4773262256078503
12.38046875,0.5004805479183196
12.413839285714285,0.47909023737463585
12.44720982142857,0.41339952344665504
12.480580357142857,0.3146545343769231
12.513950892857142,0.20087473666747202
12.54732142857143,0.08935972499421817
12.580691964285714,-0.010157779326579346
12.6140625,-0.09802682943840695
12.647433035714286,-0.18147437353528897
12.680803571428571,-0.26741482585444837
12.714174107142856,-0.3552384872366695
12.747544642857143,-0.43368318744295586
12.780915178571428,-0.4838563180558819
12.814285714285713,-0.4873167877097365
12.84765625,-0.4354649936568612
12.881026785714285,-0.3356521701655102
12.914397321428572,-0.21078702360092424
12.947767857142857,-0.09209691121670105
12.981138392857142,-0.0077676534632954465
13.014508928571429,0.02786749844061985
13.047879464285714,0.01989456756142967
13.081249999999999,-0.00956642914649673
13.114620535714286,-0.03105909984631391
13.14799107142857,-0.020763457212198976
13.181361607142858,0.02912615797620359
13.214732142857143,0.10757356011927065
13.248102678571428,0.1908132793919282
13.281473214285715,0.25424301750895023
13.31484375,0.28389711297948456
13.348214285714285,0.28160727586126144
13.381584821428572,0.261535347168736
13.414955357142857,0.2405791793958372
13.448325892857143,0.22842532781071492
13.481696428571428,0.22291411714514148
13.515066964285714,0.213061499118369
13.5484375,0.1875373365817789
13.581808035714285,0.14323747047465302
13.61517857142857,0.08857305120810467
13.648549107142857,0.039225932137259736
13.681919642857142,0.00861579046489873
13.71529017857143,-0.0013758020391893642
13.748660714285714,-0.003710169511631598
13.78203125,-0.020939982385348797
13.815401785714286,-0.07352408725447493
13.848772321428571,-0.16751403559747222
13.882142857142856,-0.2880841573024736
13.915513392857143,-0.40271165164684775
13.948883928571428,-0.4732143219755761
13.982254464285713,-0.47157462878455353
14.015625,-0.3924978312189173
14.048995535714285,-0.25686254680769627
14.082366071428572,-0.10414761020399153
14.115736607142857,0.0231072890171108
14.149107142857142,0.0959849963379937
14.182477678571429,0.10952666180477214
14.215848214285714,0.08217520371384922
14.249218749999999,0.04504169241934625
14.282589285714286,0.026650154524328576
14.31595982142857,0.04081311018833249
14.349330357142858,0.08322729210896683
14.382700892857143,0.1374012278221297
14.416071428571428,0.18547717768535685
14.449441964285715,0.21727901262019936
14.4828125,0.23268917687420954
14.516183035714285,0.23699365707692224
14.549553571428572,0.2332698047360606
14.582924107142857,0.21752662519575122
14.616294642857143,0.18023832342900217
14.649665178571428,0.11352943981524097
14.683035714285714,0.01936071702913065
14.71640625,-0.08690159497489798
14.749776785714285,-0.1805348736842371
14.78314732142857,-0.2375277880972341
14.816517857142857,-0.24533052440821954
14.849888392857142,-0.20840254223387802
14.88325892857143,-0.1456273058038956
14.916629464285714,-0.08124694259636626
14.95,-0.03436408619886984
14.983370535714286,-0.012339176465898749
15.016741071428571,-0.010709707936841149
15.050111607142856,-0.018485619202080486
15.083482142857143,-0.025129001036821218
15.116852678571428,-0.025428685237330072
15.150223214285713,-0.0204164419738086
15.18359375,-0.01493518534084785
15.216964285714285,-0.013975937845698616
15.250334821428572,-0.019867997250417758
15.283705357142857,-0.031301239943094285
15.317075892857142,-0.04395186551470332
15.350446428571429,-0.051909051389622755
15.383816964285714,-0.0492432150680562
15.417187499999999,-0.031467942976494315
15.450558035714286,0.0031739450926730924
15.48392857142857,0.0528423808012287
15.517299107142858,0.11210009332709388
15.550669642857143,0.17307433827295934
15.584040178571428,0.22749398992286324
15.617410714285715,0.26869889946052306
15.65078125,0.2925908697052677
15.684151785714285,0.29707799511643246
15.717522321428572,0.2805608378770583
15.750892857142857,0.24077845676030404
15.784263392857143,0.1752956217182206
15.817633928571428,0.08393739318072305
15.851004464285714,-0.027968866737358312
15.884375,-0.14771804352118198
15.917745535714285,-0.2567074900415329
15.95111607142857,-0.33568862013209483
15.984486607142857,-0.37196117345934215
16.017857142857142,-0.36506378730218275
16.05122767857143,-0.32766105605197116
16.084598214285712,-0.28046491292021125
16.11796875,-0.2431739292434713
16.151339285714286,-0.2257915335758784
16.18470982142857,-0.2247490906623881
16.218080357142856,-0.2257690425487962
16.251450892857143,-0.21173999308796315
16.28482142857143,-0.17124348809285178
16.318191964285713,-0.10333747028293783
16.3515625,-0.01664964453708244
16.384933035714287,0.0758791179338953
16.41830357142857,0.16313255518879105
16.451674107142857,0.23946270600045233
16.485044642857144,0.30439581875701077
16.518415178571427,0.35935481748052955
16.551785714285714,0.4038262344095174
16.58515625,0.433330914350428
16.618526785714284,0.4402867319797182
16.65189732142857,0.41726606845284187
16.685267857142858,0.36106102818785474
16.71863839285714,0.27571138176048127
16.752008928571428,0.17310899024645196
16.785379464285715,0.07066990259125662
16.81875,-0.013415513235722744
16.852120535714285,-0.06592343848433921
16.88549107142857,-0.08333715018266935
16.91886160714286,-0.0736592174024685
16.95223214285714,-0.05419612225199584
16.98560267857143,-0.045677793344364157
17.018973214285715,-0.06468300725786211
17.05234375,-0.11735930967629048
17.085714285714285,-0.19719305025342693
17.119084821428572,-0.2879539240781515
17.152455357142856,-0.3705326940261195
17.185825892857142,-0.4304195190897745
17.21919642857143,-0.4621874457484164
17.252566964285712,-0.4689065840772329
17.2859375,-0.4571547239521961
17.319308035714286,-0.4307122164642108
17.35267857142857,-0.38677351192233395
17.386049107142856,-0.3171347441402686
17.419419642857143,-0.21402999899858485
17.45279017857143,-0.07754428963799181
17.486160714285713,0.07970199103874093
17.51953125,0.23387249853349323
17.552901785714287,0.35760070485560197
17.58627232142857,0.4310018147817739
