Frequency (Hz),Amplitude
0.0,1.3106095887095266
0.01993355481727575,1.3170882815340927
0.0398671096345515,1.336310888685651
0.059800664451827246,1.3676669294766273
0.079734219269103,1.4102292402035663
0.09966777408637874,1.4628613256597356
0.11960132890365449,1.5243257203203755
0.13953488372093023,1.5933744073517717
0.159468438538206,1.6688129582444875
0.17940199335548174,1.7495387926415271
0.19933554817275748,1.8345586956694095
0.21926910299003324,1.9229919961829627
0.23920265780730898,2.014065077423353
0.25913621262458475,2.1071014379699795
0.27906976744186046,2.201510082973571
0.29900332225913623,2.2967738959945523
0.318936877076412,2.392438861886238
0.3388704318936877,2.488104520046993
0.3588039867109635,2.5834157420368853
0.37873754152823924,2.6780557760964334
0.39867109634551495,2.771740430978185
0.4186046511627907,2.864213247801338
0.4385382059800665,2.9552415096177187
0.4584717607973422,3.0446129511584723
0.47840531561461797,3.132133048557055
0.49833887043189373,3.21762278685344
0.5182724252491695,3.300916819891498
0.5382059800664452,3.3818619520443933
0.5581395348837209,3.460315883848995
0.5780730897009968,3.53614617419909
0.5980066445182725,3.609229380464288
0.6179401993355482,3.679450345032415
0.637873754152824,3.7467016025766298
0.6578073089700996,3.8108828870588876
0.6777408637873754,3.8719007213000016
0.6976744186046512,3.929668075042598
0.717607973421927,3.9841040799457565
0.7375415282392027,4.035133791992808
0.7574750830564785,4.082687993458025
0.7774086378737541,4.126703027937918
0.7973421926910299,4.167120663067642
0.8172757475083057,4.203887976460556
0.8372093023255814,4.236957261167186
0.8571428571428572,4.266285947579531
0.877076411960133,4.291836539233011
0.8970099667774087,4.313576560400695
0.9169435215946844,4.33147851374988
0.9368770764119602,4.3455198466523735
0.9568106312292359,4.355682925018185
0.9767441860465116,4.361955013767048
0.9966777408637875,4.364328263270831
1.0166112956810631,4.362799701299252
1.036544850498339,4.357371230187388
1.0564784053156147,4.348049629121426
1.0764119601328903,4.334846561614227
1.0963455149501662,4.31777858841943
1.1162790697674418,4.296867186316806
1.1362126245847177,4.2721387733982015
1.1561461794019936,4.243624741697809
1.176079734219269,4.211361498249845
1.196013289036545,4.175390515928022
1.2159468438538206,4.135758395733701
1.2358803986710964,4.092516942563699
1.255813953488372,4.045723256917442
1.275747508305648,3.9954398455118114
1.2956810631229239,3.9417347543805223
1.3156146179401993,3.8846817287659943
1.3355481727574752,3.824360404996044
1.3554817275747508,3.7608565406107446
1.3754152823920267,3.694262290313118
1.3953488372093024,3.6246765369167235
1.4152823920265782,3.55220528842507
1.435215946843854,3.4769621547891365
1.4551495016611296,3.3990689208593947
1.4750830564784054,3.318656235710039
1.495016611295681,3.235864443028321
1.514950166112957,3.1508445828249787
1.5348837209302328,3.0637596015582105
1.5548172757475083,2.974785816126914
1.5747508305647842,2.884114687341806
1.5946843853820598,2.791954970658449
1.6146179401993357,2.698535326281954
1.6345514950166113,2.6041074871009378
1.6544850498338872,2.5089501006309454
1.6744186046511629,2.4133733786136227
1.6943521594684385,2.317724701723834
1.7142857142857144,2.2223953305175
1.73421926910299,2.1278283557464825
1.754152823920266,2.03452796179917
1.7740863787375416,1.9430699444415018
1.7940199335548175,1.8541131696988291
1.8139534883720931,1.7684112168659538
1.8338870431893688,1.6868227338640478
1.8538205980066447,1.6103179791461693
1.8737541528239203,1.5399776448118105
1.893687707641196,1.4769785797695643
1.9136212624584719,1.4225600930319797
1.9335548172757475,1.377965283163281
1.9534883720930232,1.3443557883948198
1.9734219269102993,1.322706306330432
1.993355481727575,1.3136957132994307
2.0132890365448506,1.3176198116725217
2.0332225913621262,1.3343503313247402
2.0531561461794023,1.3633529948307082
2.073089700996678,1.4037589045823722
2.0930232558139537,1.4544680370797183
2.1129568106312293,1.514258650922365
2.132890365448505,1.5818818881161647
2.1528239202657806,1.6561311636983285
2.1727574750830567,1.7358852555408986
2.1926910299003324,1.820129535265064
2.212624584717608,1.9079616396998897
2.2325581395348837,1.9985874527514063
2.25249169435216,2.0913119009501577
2.2724252491694354,2.1855276031222055
2.292358803986711,2.2807032217246346
2.312292358803987,2.3763725198037178
2.332225913621263,2.47212458610839
2.352159468438538,2.5675953704516874
2.3720930232558137,2.6624604973368062
2.39202657807309,2.756429242042992
2.4119601328903655,2.8492395218405937
2.431893687707641,2.9406537518057383
2.4518272425249172,3.030455425471436
2.471760797342193,3.118446297089999
2.4916943521594686,3.204444060160426
2.511627906976744,3.2882804338768374
2.5315614617940203,3.36979958431086
2.551495016611296,3.44885682015881
2.5714285714285716,3.5253175138110735
2.5913621262458477,3.599056207540492
2.611295681063123,3.66995587201496
2.6312292358803986,3.7379072903774175
2.6511627906976742,3.8028085460408807
2.6710963455149503,3.8645645963242683
2.691029900332226,3.923086917280843
2.7109634551495017,3.9782932076895707
2.7308970099667778,4.030107142307451
2.7508305647840534,4.078458166215247
2.770764119601329,4.123281323504229
2.7906976744186047,4.164517114712852
2.810631229235881,4.202111378375617
2.8305647840531565,4.236015192835233
2.850498338870432,4.266184795122695
2.870431893687708,4.292581514256206
2.8903654485049834,4.315171716767905
2.910299003322259,4.333926762656205
2.9302325581395348,4.348822970292716
2.950166112956811,4.359841589100195
2.9700996677740865,4.366968779068764
2.990033222591362,4.3701955964020085
3.0099667774086383,4.369517984787632
3.029900332225914,4.36493677197648
3.0498338870431896,4.3564576715335095
3.0697674418604657,4.344091289800385
3.089700996677741,4.32785313828649
3.1096345514950166,4.307763651888345
3.129568106312292,4.2838482135318445
3.1495016611295683,4.256137186043447
3.169435215946844,4.2246659522912084
3.1893687707641196,4.189474964902251
3.2093023255813957,4.150609807168264
3.2292358803986714,4.108121267105229
3.249169435215947,4.062065427049857
3.2691029900332227,4.012503771668898
3.289036544850499,3.959503317846421
3.3089700996677744,3.9031367706210944
3.32890365448505,3.8434827101993454
3.3488372093023258,3.7806258161049007
3.3687707641196014,3.7146571357850657
3.388704318936877,3.6456744065324447
3.4086378737541527,3.573782441465512
3.428571428571429,3.4990935926254023
3.4485049833887045,3.4217283070927955
3.46843853820598,3.3418157955345142
3.4883720930232562,3.2594948369081083
3.508305647840532,3.1749147483684634
3.5282392026578075,3.0882365559485603
3.548172757475083,2.9996344095678302
3.5681063122923593,2.9092972956088903
3.588039867109635,2.8174311119249924
3.60797342192691,2.72426118383209
3.6279069767441863,2.630035315308535
3.647840531561462,2.535027486715253
3.6677740863787376,2.4395423274170938
3.6877076411960132,2.3439205056943893
3.7076411960132893,2.2485451834836447
3.727574750830565,2.1538496693741807
3.7475083056478407,2.0603263521532025
3.7674418604651168,1.9685368801576306
3.787375415282392,1.8791233244554617
3.807308970099668,1.7928196638002214
3.8272425249169437,1.710462279109865
3.8471760797342194,1.6329971745142795
3.867109634551495,1.5614803455680097
3.887043189368771,1.4970662700673512
3.9069767441860463,1.4409784374496628
3.9269102990033224,1.39445619806446
3.9468438538205985,1.3586754167208024
3.9667774086378738,1.3346474609966972
3.98671096345515,1.3231110334313425
4.0066445182724255,1.3244402011126224
4.026578073089701,1.3385935743059856
4.046511627906977,1.3651201683137333
4.0664451827242525,1.4032200899983933
4.086378737541528,1.4518417910772032
4.106312292358805,1.509790421456419
4.1262458471760795,1.5758253163483271
4.146179401993356,1.6487341871591714
4.166112956810632,1.727381194986303
4.186046511627907,1.8107323494634764
4.205980066445183,1.8978642006567967
4.225913621262459,1.9879617663600824
4.245847176079734,2.0803104358062265
4.26578073089701,2.1742851478135132
4.2857142857142865,2.2693389045868577
4.305647840531561,2.364991779858259
4.325581395348838,2.460820986390334
4.345514950166113,2.5564522082352785
4.365448504983389,2.6515522023208304
4.385382059800665,2.7458225730137764
4.40531561461794,2.8389945814146467
4.425249169435216,2.930824841961274
4.445182724252492,3.0210917664463715
4.465116279069767,3.109592630491967
4.485049833887043,3.1961411547449905
4.50498338870432,3.2805655099207347
4.524916943521594,3.3627066701020643
4.544850498338871,3.4424170519639428
4.5647840531561465,3.519559388802239
4.584717607973422,3.5940057975643986
4.604651162790698,3.6656370047441804
4.624584717607974,3.734341703265129
4.644518272425249,3.8000160175743187
4.664451827242526,3.862563058307542
4.6843853820598005,3.921892551247658
4.704318936877076,3.9779205280271395
4.724252491694353,4.030569068245171
4.7441860465116275,4.07976608447824
4.764119601328904,4.125445143140371
4.78405315614618,4.167545315359519
4.803986710963455,4.206011053031903
4.823920265780731,4.240792086037661
4.8438538205980075,4.271843337282641
4.863787375415282,4.299124852799686
4.883720930232559,4.32260174461938
4.9036544850498345,4.342244144524005
4.92358803986711,4.358027167142178
4.943521594684386,4.369930881139004
4.963455149501661,4.3779402875156554
4.983388704318937,4.382045304263247
5.003322259136213,4.382240756824058
5.023255813953488,4.378526374006285
5.043189368770764,4.370906789181316
5.063122923588041,4.359391546770392
5.083056478405315,4.343995114205617
5.102990033222592,4.324736899733598
5.122923588039868,4.3016412766234
5.142857142857143,4.274737614550144
5.162790697674419,4.244060319157152
5.182724252491695,4.209648881060779
5.20265780730897,4.1715479358605405
5.222591362126246,4.129807337063799
5.242524916943522,4.084482244239838
5.262458471760797,4.0356332291980745
5.282392026578074,3.983326403556716
5.3023255813953485,3.9276335717529234
5.322259136212625,3.868632414370973
5.342192691029901,3.8064067076636308
5.362126245847176,3.741046586355845
5.382059800664452,3.6726488582998886
5.4019933554817285,3.6013173813607446
5.421926910299003,3.5271635151293874
5.44186046511628,3.4503066627854504
5.4617940199335555,3.3708749217804805
5.48172757475083,3.2890058661312156
5.501661129568107,3.2048474881729843
5.5215946843853825,3.118559333826512
5.541528239202658,3.0303138730025436
5.561461794019934,2.940298155942632
5.5813953488372094,2.848715817284499
5.601328903654485,2.755789502573137
5.621262458471762,2.6617638067344838
5.641196013289036,2.566908830181988
5.661129568106313,2.4715244744307294
5.681063122923589,2.3759456125991214
5.700996677740864,2.2805482757449043
5.72093023255814,2.185756984227867
5.740863787375416,2.0920533082212267
5.760797342192691,1.999985637106873
5.780730897009967,1.910179933822968
5.800664451827243,1.823350890436005
5.820598006644518,1.7403123140294459
5.840531561461795,1.6619846891406793
5.8604651162790695,1.5893966678388094
5.880398671096346,1.5236758666484371
5.900332225913622,1.4660232449036203
5.920265780730897,1.4176654032472704
5.940199335548173,1.3797816705174444
5.960132890365449,1.3534089241140572
5.980066445182724,1.3393362688063843
6.0,1.338010703845706
6.0199335548172765,1.3494781348884255
6.039867109634551,1.373377198694665
6.059800664451828,1.4089878127379594
6.0797342192691035,1.455319801771353
6.099667774086379,1.511217820610802
6.119601328903655,1.5754600603994182
6.139534883720931,1.6468364848007666
6.159468438538206,1.7242018654892977
6.179401993355482,1.8065057506093258
6.1993355481727574,1.8928047313514318
6.219269102990033,1.982262852460653
6.23920265780731,2.0741450684051963
6.259136212624584,2.167807282723778
6.279069767441861,2.262685256539981
6.299003322259137,2.3582837208026266
6.318936877076412,2.454166381217029
6.338870431893688,2.5499471024494644
6.3588039867109645,2.6452823262494487
6.378737541528239,2.7398646562126703
6.398671096345516,2.833417486587265
6.418604651162791,2.925690535149856
6.438538205980066,3.016456142918552
6.458471760797343,3.105506215761917
6.4784053156146175,3.192649698838071
6.498338870431894,3.27771049107432
6.51827242524917,3.3605257220207996
6.538205980066445,3.440944326741479
6.558139534883721,3.5188258657919174
6.578073089700998,3.5940395468694875
6.598006644518272,3.666463412608899
6.617940199335549,3.735983665466709
6.6378737541528245,3.8024941059217667
6.6578073089701,3.865895664520201
6.677740863787376,3.926096011792147
6.6976744186046515,3.983009232913183
6.717607973421927,4.036555556299952
6.737541528239203,4.08666112721899
6.7574750830564785,4.13325781903193
6.777408637873754,4.176283075966063
6.797342192691031,4.21567978234013
6.8172757475083055,4.251396154034955
6.837209302325582,4.283385648710833
6.857142857142858,4.311606891867975
6.877076411960133,4.336023616344601
6.897009966777409,4.3566046132680505
6.9169435215946855,4.373323692833299
6.93687707641196,4.386159653591914
6.956810631229236,4.395096259204142
6.9767441860465125,4.400122221845239
6.996677740863787,4.401231191672357
7.016611295681064,4.398421751956539
7.036544850498339,4.3916974196709955
7.056478405315615,4.381066651508028
7.076411960132891,4.366542855476901
7.096345514950166,4.348144408419257
7.116279069767442,4.32589467997205
7.136212624584719,4.299822063716748
7.156146179401993,4.269960016482756
7.17607973421927,4.2363471070306495
7.196013289036546,4.199027075634382
7.21594684385382,4.158048906420888
7.235880398671097,4.113466914722039
7.2558139534883725,4.065340852161185
7.275747508305648,4.013736032752196
7.295681063122924,3.9587234839529835
7.3156146179402,3.9003801274139547
7.335548172757475,3.8387889951264214
7.355481727574752,3.7740394878451946
7.3754152823920265,3.7062276840824016
7.395348837209303,3.635456709705507
7.415282392026579,3.5618371802953477
7.435215946843854,3.4854877310206307
7.45514950166113,3.4065356519745644
7.475083056478406,3.3251176508306775
7.495016611295681,3.2413807694674452
7.514950166112956,3.155483487069169
7.5348837209302335,3.067597049337971
7.554817275747508,2.9779070720605847
7.574750830564784,2.886615477550709
7.5946843853820605,2.7939428345391066
7.614617940199336,2.700131185817637
7.634551495016611,2.6054474628788036
7.6544850498338874,2.510187601710883
7.674418604651163,2.414681486284619
7.694352159468439,2.3192988513329538
7.714285714285715,2.224456265306555
7.73421926910299,2.130625273528406
7.754152823920266,2.0383416873506914
7.774086378737542,1.9482158219613823
7.794019933554818,1.8609431627979875
7.813953488372093,1.777314414470391
7.83388704318937,1.6982230937394214
7.853820598006645,1.6246677477449096
7.8737541528239205,1.5577446140993703
7.893687707641197,1.4986254544068003
7.913621262458472,1.4485151499463518
7.9335548172757475,1.4085855924004826
7.953488372093024,1.3798875020588774
7.9734219269103,1.363249966143928
7.9933554817275745,1.3591862019499659
8.013289036544851,1.367828443761905
8.033222591362128,1.388910430746694
8.053156146179402,1.421802794281385
8.073089700996679,1.465590747397154
8.093023255813954,1.5191729374942995
8.11295681063123,1.5813592730770953
8.132890365448505,1.6509520454106514
8.152823920265782,1.7268036410997227
8.172757475083056,1.807851373968722
8.192691029900331,1.8931338868715328
8.21262458471761,1.9817946508821402
8.232558139534884,2.073077506200241
8.252491694352159,2.16631797961466
8.272425249169435,2.260932889776792
8.292358803986712,2.35640976947909
8.312292358803987,2.4522969408963666
8.332225913621263,2.548194632456681
8.352159468438538,2.643747258663205
8.372093023255815,2.7386368369090315
8.392026578073091,2.8325774429401265
8.411960132890366,2.9253105782776516
8.43189368770764,3.0166013188751455
8.451827242524917,3.106235122555586
8.471760797342194,3.1940151863733024
8.491694352159469,3.2797602601233864
8.511627906976745,3.363302836789202
8.53156146179402,3.444487653864314
8.551495016611296,3.5231704508912567
8.571428571428573,3.5992169382191705
8.591362126245848,3.6725019400368906
8.611295681063122,3.7429086813884647
8.6312292358804,3.810328194333731
8.651162790697676,3.8746588228762016
8.67109634551495,3.9358058099185453
8.691029900332227,3.9936809524725856
8.710963455149502,4.0482023137703615
8.730897009966778,4.0992939828996064
8.750830564784053,4.1468858742046635
8.77076411960133,4.190913560020991
8.790697674418604,4.231318131403995
8.81063122923588,4.268046082414842
8.830564784053157,4.301049214274658
8.850498338870432,4.330284556322305
8.870431893687707,4.355714301233686
8.890365448504983,4.377305752402811
8.91029900332226,4.395031281760212
8.930232558139535,4.4088682966278485
8.950166112956811,4.418799214491049
8.970099667774086,4.424811444816469
8.990033222591363,4.426897377268164
9.00996677740864,4.425054375879089
9.029900332225914,4.419284778927188
9.049833887043189,4.409595904450574
9.069767441860467,4.396000061519381
9.089700996677742,4.37851456756822
9.109634551495017,4.357161772287601
9.129568106312293,4.331969088781332
9.14950166112957,4.302969032924827
9.169435215946844,4.2701992721144375
9.189368770764121,4.233702684887127
9.209302325581396,4.193527433223211
9.22923588039867,4.149727049732648
9.249169435215949,4.102360542381699
9.269102990033224,4.051492519957034
9.289036544850498,3.997193342108505
9.308970099667773,3.9395392985846556
9.328903654485051,3.878612823205036
9.348837209302326,3.8145027492387853
9.368770764119601,3.747304614223672
9.388704318936878,3.677121023920329
9.408637873754152,3.6040620871208926
9.428571428571429,3.5282459355031657
9.448504983388705,3.4497993457425893
9.46843853820598,3.368858484785861
9.488372093023255,3.2855698036955676
9.508305647840533,3.2000911109588697
9.528239202657808,3.1125928627945196
9.548172757475083,3.0232597159729298
9.56810631229236,2.932292398137439
9.588039867109636,2.8399099616502697
9.60797342192691,2.74635249946657
9.627906976744187,2.6518844149765615
9.647840531561462,2.5567983509859458
9.667774086378738,2.4614198936753784
9.687707641196015,2.366113171126782
9.70764119601329,2.2712874551788165
9.727574750830565,2.1774048371641883
9.747508305647841,2.0849889619777078
9.767441860465118,1.994634639774182
9.787375415282392,1.9070178663901325
9.807308970099669,1.822905316956845
9.827242524916944,1.7431616770394969
9.84717607973422,1.6687522202120006
9.867109634551497,1.6007369106785423
9.887043189368772,1.5402512982610708
9.906976744186046,1.4884692089885077
9.926910299003321,1.446543688909384
9.9468438538206,1.4155268142493511
9.966777408637874,1.396275974832687
9.986710963455149,1.3893622592342585
10.006644518272426,1.3950016209063196
10.026578073089702,1.4130273060576934
10.046511627906977,1.4429115759877016
10.066445182724253,1.4838303411154805
10.086378737541528,1.534753082981474
10.106312292358805,1.5945372121371992
10.126245847176081,1.6620103879501922
10.146179401993356,1.7360322303830507
10.16611295681063,1.8155341065754114
10.186046511627907,1.8995401872832873
10.205980066445184,1.9871746995398838
10.225913621262459,2.0776601883267793
10.245847176079735,2.170310639729179
10.26578073089701,2.264522183052282
10.285714285714286,2.359763107391662
10.305647840531563,2.4555641984702996
10.325581395348838,2.5515099102457968
10.345514950166113,2.64723057958782
10.36544850498339,2.7423957151114617
10.385382059800666,2.836708297544767
10.40531561461794,2.9298999862569732
10.425249169435217,3.021727113183462
10.445182724252492,3.111967347783315
10.465116279069768,3.2004169267105413
10.485049833887045,3.2868883548917083
10.50498338870432,3.371208498139691
10.524916943521594,3.453217000019357
10.544850498338871,3.532764966865945
10.564784053156147,3.6097138744891883
10.584717607973422,3.683934658226678
10.604651162790697,3.7553069547858016
10.624584717607974,3.8237184699132603
10.64451827242525,3.889064450534609
10.664451827242525,3.951247243779985
10.684385382059801,4.010175928400413
10.704318936877076,4.0657660066069425
10.724252491694353,4.117939146434452
10.74418604651163,4.166622966429937
10.764119601328904,4.211750855860082
10.784053156146179,4.253261824783269
10.803986710963457,4.291100379281846
10.823920265780732,4.325216417940028
