Time (s),Filtered Signal
0.0,-0.033594264809237745
0.0334075723830735,-0.09889279022458347
0.066815144766147,-0.16352709976838667
0.1002227171492205,-0.2237913232655604
0.133630289532294,-0.27072345939731773
0.1670378619153675,-0.29252373121398306
0.200445434298441,-0.2798186697511455
0.23385300668151449,-0.23120896013540332
0.267260579064588,-0.15616565802618676
0.3006681514476615,-0.07342665233365905
0.334075723830735,-0.0050903511704730245
0.3674832962138085,0.03133884422581866
0.400890868596882,0.0295980313038807
0.4342984409799555,-0.002934544816334945
0.46770601336302897,-0.04822973973890009
0.5011135857461025,-0.08474274134419772
0.534521158129176,-0.09558527436133764
0.5679287305122495,-0.07418762601831133
0.601336302895323,-0.025127994993216267
0.6347438752783965,0.03986678232288031
0.66815144766147,0.1084368339610183
0.7015590200445435,0.17316700207629077
0.734966592427617,0.2333917373424059
0.7683741648106905,0.2924757612019335
0.801781737193764,0.35229588193587824
0.8351893095768375,0.40822040743907834
0.868596881959911,0.44771044611507443
0.9020044543429845,0.45382072921572086
0.9354120267260579,0.41229397262239464
0.9688195991091315,0.3189446228955179
1.002227171492205,0.18364926783483287
1.0356347438752784,0.028721340461933403
1.069042316258352,-0.11796411748534817
1.1024498886414256,-0.23229041902509745
1.135857461024499,-0.30174894245350287
1.1692650334075725,-0.3286136044286523
1.202672605790646,-0.3273563016009245
1.2360801781737194,-0.317705604712503
1.269487750556793,-0.3164647315106531
1.3028953229398665,-0.33145272307440526
1.33630289532294,-0.35974115057360284
1.3697104677060135,-0.3903885180237095
1.403118040089087,-0.41004494624928595
1.4365256124721606,-0.40883703489758233
1.469933184855234,-0.38410065434551693
1.5033407572383075,-0.34059325019976305
1.536748329621381,-0.2873056063548292
1.5701559020044544,-0.23237256907220175
1.603563474387528,-0.17839241301423045
1.6369710467706016,-0.1203930429616456
1.670378619153675,-0.047672080819440646
1.7037861915367485,0.05090801154943666
1.737193763919822,0.18022372199211256
1.7706013363028954,0.33372189460789303
1.804008908685969,0.492334027799472
1.8374164810690425,0.6284680000480748
1.8708240534521159,0.713958403214132
1.9042316258351895,0.7291235906927196
1.937639198218263,0.6695126068915772
1.9710467706013366,0.5477899619776807
2.00445434298441,0.3901119885610352
2.0378619153674835,0.22844708971931707
2.071269487750557,0.09168320649962552
2.1046770601336307,-0.0014815232714232268
2.138084632516704,-0.045888351805668574
2.1714922048997773,-0.04913653779530957
2.204899777282851,-0.02771742571069952
2.2383073496659245,-0.0017807059278528567
2.271714922048998,0.009918757412681408
2.3051224944320716,-0.006002850835310557
2.338530066815145,-0.05494598526111012
2.3719376391982183,-0.13314058777776352
2.405345211581292,-0.22805326314503876
2.4387527839643655,-0.32064767192836224
2.472160356347439,-0.38949320852001695
2.5055679287305126,-0.4160755926166005
2.538975501113586,-0.38996945512469905
2.5723830734966593,-0.3122346183608346
2.605790645879733,-0.19576676901447884
2.6391982182628064,-0.06230033630739094
2.67260579064588,0.06305948477230458
2.7060133630289536,0.15803340227976034
2.739420935412027,0.20820025229397557
2.7728285077951007,0.20956850424435394
2.806236080178174,0.16836047219489997
2.8396436525612474,0.09849329331852191
2.873051224944321,0.017588077043892886
2.9064587973273945,-0.057666798746003244
2.939866369710468,-0.11598742159958261
2.9732739420935417,-0.15481434826076226
3.006681514476615,-0.18129255679385484
3.0400890868596884,-0.2099154107162482
3.073496659242762,-0.25674263231699274
3.1069042316258355,-0.3316016153968703
3.140311804008909,-0.43113059448866536
3.1737193763919826,-0.5360276500390047
3.207126948775056,-0.6148056799559147
3.2405345211581293,-0.6338273235421936
3.273942093541203,-0.5703491462457663
3.3073496659242765,-0.4231675908474583
3.34075723830735,-0.215495571940505
3.3741648106904236,0.01262814815596709
3.407572383073497,0.22050454801387917
3.4409799554565703,0.3849649440622038
3.474387527839644,0.5116889654202743
3.5077951002227175,0.6325318978576634
3.541202672605791,0.7877219832441447
3.5746102449888646,0.9997068805246874
3.608017817371938,1.2513358355327207
3.6414253897550113,1.4811966874430167
3.674832962138085,1.6020003233231725
3.7082405345211584,1.5364635970792284
3.7416481069042318,1.254866376976927
3.7750556792873056,0.795379386855607
3.808463251670379,0.25515865747334404
3.8418708240534527,-0.24563935105996676
3.875278396436526,-0.6106940500128261
3.9086859688195994,-0.8029493449904443
3.942093541202673,-0.8520831540158489
3.9755011135857465,-0.831864507377352
4.00890868596882,-0.8202924352876972
4.042316258351893,-0.8629505812369456
4.075723830734967,-0.9565229366215732
4.109131403118041,-1.057686024606873
4.142538975501114,-1.1095878457500683
4.1759465478841875,-1.070725736900079
4.209354120267261,-0.9323076287143409
4.242761692650334,-0.7181840919244706
4.276169265033408,-0.47095126653947095
4.309576837416482,-0.2336611750326462
4.342984409799555,-0.03640446222460516
4.3763919821826285,0.10783459742889331
4.409799554565702,0.19960374014477206
4.443207126948775,0.24676392729068627
4.476614699331849,0.2603047929180626
4.510022271714923,0.2536290485211732
4.543429844097996,0.2432807897729742
4.5768374164810695,0.2478093619118218
4.610244988864143,0.28303591872727624
4.643652561247216,0.3551283354347111
4.67706013363029,0.4553184097793592
4.710467706013364,0.5600904328515802
4.743875278396437,0.6381167961113904
4.77728285077951,0.6615965093243253
4.810690423162584,0.6170834731753586
4.844097995545657,0.5108590253591089
4.877505567928731,0.36643620556285783
4.910913140311805,0.21549578568562078
4.944320712694878,0.08648073752997942
4.977728285077951,-0.004218664967159067
5.011135857461025,-0.05523603794273495
5.044543429844098,-0.07708470730177094
5.077951002227172,-0.08529573089495598
5.111358574610246,-0.09336948723289198
5.144766146993319,-0.10841557534124388
5.178173719376392,-0.13057412087785464
5.211581291759466,-0.15545875475945617
5.244988864142539,-0.17777140689517473
5.278396436525613,-0.1941952786431207
5.311804008908687,-0.20443984921463335
5.34521158129176,-0.21038203049508591
5.378619153674833,-0.21411149672522223
5.412026726057907,-0.21603294037403495
5.445434298440981,-0.2139682231798907
5.478841870824054,-0.20363341027774134
5.512249443207128,-0.18023298741688593
5.545657015590201,-0.1404718642418176
5.579064587973274,-0.08417949391013015
5.612472160356348,-0.014976834819037534
5.645879732739422,0.060140706782457386
5.679287305122495,0.13202100389811405
5.712694877505569,0.19092490587783614
5.746102449888642,0.22811556681156014
5.779510022271715,0.23735626763705228
5.812917594654789,0.21627990406714448
5.846325167037863,0.16741521114442487
5.879732739420936,0.09838276256230734
5.91314031180401,0.020727447265037467
5.946547884187083,-0.05274595490921631
5.979955456570156,-0.11151467694196991
6.01336302895323,-0.15043642938373483
6.046770601336304,-0.17092115864605076
6.080178173719377,-0.17933447491533994
6.1135857461024505,-0.1830715943465931
6.146993318485524,-0.18607506625046422
6.180400890868597,-0.18620057038691212
6.213808463251671,-0.17623184961009186
6.247216035634745,-0.14857454366392092
6.280623608017818,-0.1014981843686156
6.3140311804008915,-0.04344317803001712
6.347438752783965,0.007662304087381449
6.380846325167038,0.030836003134062356
6.414253897550112,0.011859069151825778
6.447661469933186,-0.0481450468470674
6.481069042316259,-0.12996110232024444
6.5144766146993325,-0.2014170237124711
6.547884187082406,-0.22865353660467908
6.581291759465479,-0.18874434518675118
6.614699331848553,-0.07826367126406568
6.648106904231627,0.08554487955759688
6.6815144766147,0.27085278965218346
6.7149220489977735,0.44143790614465406
6.748329621380847,0.5667485921219005
6.78173719376392,0.6286028668018346
6.815144766146994,0.6233891288116202
6.848552338530068,0.560509991807774
6.881959910913141,0.4586114834351471
6.915367483296214,0.34089969158763717
6.948775055679288,0.2302323546303183
6.982182628062361,0.14437481639175492
7.015590200445435,0.09203629629400477
7.048997772828509,0.07070681921750632
7.082405345211582,0.06734116485078465
7.115812917594655,0.0622719018749124
7.149220489977729,0.03554927136569162
7.182628062360802,-0.026240406024959615
7.216035634743876,-0.12511041753338464
7.24944320712695,-0.2506766080483521
7.282850779510023,-0.3835473531010204
7.316258351893096,-0.5019059534419608
7.34966592427617,-0.5887830003167415
7.383073496659243,-0.6371899768485292
7.416481069042317,-0.6511061100295062
7.449888641425391,-0.6419633348447773
7.4832962138084635,-0.6221052500994944
7.516703786191537,-0.5979812375615151
7.550111358574611,-0.5660517056025852
7.583518930957685,-0.5133860190861222
7.616926503340758,-0.42305207007347756
7.650334075723832,-0.28233865503128724
7.683741648106905,-0.09049069881024054
7.717149220489978,0.1373618286167924
7.750556792873052,0.3719419540153377
7.783964365256126,0.5767943981371151
7.817371937639199,0.7180006007667573
7.850779510022273,0.7733210863096495
7.884187082405346,0.7380765670847278
7.917594654788419,0.6265702105967708
7.951002227171493,0.469216974270493
7.984409799554567,0.30617260798482226
8.01781737193764,0.17834775042720305
8.051224944320714,0.11697318375372222
8.084632516703786,0.1337959074166629
8.118040089086861,0.2151053603987522
8.151447661469934,0.3229829556434709
8.184855233853007,0.4054561643097697
8.218262806236082,0.4137160097878998
8.251670378619155,0.32069701426236574
8.285077951002227,0.1333408928352736
8.318485523385302,-0.10757287695647005
8.351893095768375,-0.3411727017855025
8.385300668151448,-0.5087527182682386
8.418708240534523,-0.5752243541858534
8.452115812917596,-0.5405256764578703
8.485523385300668,-0.4363154838047536
8.518930957683743,-0.31007884604006863
8.552338530066816,-0.20440441068575338
8.585746102449889,-0.14093492850080377
8.619153674832964,-0.11567523139615397
8.652561247216036,-0.10658176049787742
8.68596881959911,-0.0885956396486561
8.719376391982184,-0.04824609822282412
8.752783964365257,0.00914538249444532
8.78619153674833,0.06255220627340151
8.819599109131405,0.08646188214891283
8.853006681514477,0.06447829693940803
8.88641425389755,-0.0011024775287861838
8.919821826280625,-0.08795541611022625
8.953229398663698,-0.16111464564263878
8.98663697104677,-0.18604971851385937
9.020044543429846,-0.14236845221981131
9.053452115812918,-0.03300855605840159
9.086859688195991,0.11461989799987321
9.120267260579066,0.2564217078209542
9.153674832962139,0.3461917995456826
9.187082405345212,0.3522161114051469
9.220489977728286,0.26982396206072773
9.25389755011136,0.12464060320259487
9.287305122494432,-0.03557636378164317
9.320712694877507,-0.1581235268780756
9.35412026726058,-0.20516115682843397
9.387527839643653,-0.16817827059744267
9.420935412026727,-0.07096473334989808
9.4543429844098,0.04044977889998925
9.487750556792873,0.11694278146693912
9.521158129175948,0.1266036635771467
9.55456570155902,0.06760725574464639
9.587973273942094,-0.03185372674300446
9.621380846325168,-0.12650112172242403
9.654788418708241,-0.17401459961555704
9.688195991091314,-0.1532300673927507
9.721603563474389,-0.07236350034985438
9.755011135857462,0.03626129233452929
9.788418708240535,0.13215995263309663
9.82182628062361,0.18541258837719893
9.855233853006682,0.1890123958331691
9.888641425389755,0.15901986221759568
9.92204899777283,0.12306108277066893
9.955456570155903,0.1038046979803311
9.988864142538976,0.10657561089868738
10.02227171492205,0.11775307270273129
10.055679287305123,0.11440384603184799
10.089086859688196,0.07922203529862108
10.12249443207127,0.011949497973615641
10.155902004454344,-0.06932149004623933
10.189309576837417,-0.13758589499971385
10.222717149220491,-0.17155817203237592
10.256124721603564,-0.1671544011931719
10.289532293986637,-0.13950347485871728
10.322939866369712,-0.11461224491376953
10.356347438752785,-0.11542377877721384
10.389755011135858,-0.1497007469688232
10.423162583518932,-0.20574920750025413
10.456570155902005,-0.25764203313530726
10.489977728285078,-0.27688607424377704
10.523385300668153,-0.244786071386201
10.556792873051226,-0.1600635457436689
10.590200445434299,-0.03895367218856442
10.623608017817373,0.09153801692177888
10.657015590200446,0.20384362231298586
10.69042316258352,0.279125574778284
10.723830734966594,0.3120923898233569
10.757238307349667,0.3099147648842104
10.790645879732741,0.2863819921287434
10.824053452115814,0.25439672689663434
10.857461024498887,0.22043361872477638
10.890868596881962,0.18343000623858802
10.924276169265035,0.1382571482084887
10.957683741648108,0.08156422240494555
10.991091314031182,0.016575223111694664
11.024498886414255,-0.046045031841630356
11.057906458797328,-0.09214043840971
11.091314031180403,-0.11123117125565522
11.124721603563476,-0.10348566950471583
11.158129175946549,-0.08274698263047771
11.191536748329623,-0.0732223713046172
11.224944320712696,-0.1000850110993348
11.25835189309577,-0.1772123420454104
11.291759465478844,-0.2973386954001121
11.325167037861917,-0.42986395251458076
11.35857461024499,-0.5289422359881324
11.391982182628064,-0.5499716889749932
11.425389755011137,-0.46813843575913355
11.45879732739421,-0.29064342190716924
11.492204899777285,-0.05624092891047503
11.525612472160358,0.1786832539250972
11.55902004454343,0.36167254557915485
11.592427616926505,0.4635517497621641
11.625835189309578,0.4866983755990353
11.659242761692651,0.45899508342062784
11.692650334075726,0.41742451942984415
11.726057906458799,0.3900340688445146
11.759465478841872,0.38489373916147085
11.792873051224946,0.3901957648981643
11.82628062360802,0.38367132145848515
11.859688195991092,0.34533507792901935
11.893095768374167,0.2670478140878103
11.92650334075724,0.1551247153226357
11.959910913140313,0.02621861985207241
11.993318485523387,-0.10026151307449956
12.02672605790646,-0.20913446937533753
12.060133630289533,-0.29304380263158436
12.093541202672608,-0.3520839803307635
12.12694877505568,-0.3907218364064261
12.160356347438753,-0.41403779142789426
12.193763919821828,-0.4249892307066126
12.227171492204901,-0.4235007326898931
12.260579064587974,-0.40728243523821195
12.293986636971049,-0.3736973071973334
12.327394209354122,-0.32178409988557927
12.360801781737194,-0.25360781476670063
12.39420935412027,-0.17439054450457014
12.427616926503342,-0.0913427572474252
12.461024498886415,-0.01166715924351255
12.49443207126949,0.05938438598369365
12.527839643652563,0.11950828468386933
12.561247216035635,0.16897039467210728
12.59465478841871,0.20914409830985617
12.628062360801783,0.2408345369717229
12.661469933184856,0.2633390918883746
12.69487750556793,0.27473010558737304
12.728285077951004,0.27312194332817574
12.761692650334076,0.25813387267190957
12.795100222717151,0.23169247255515127
12.828507795100224,0.19774023247913855
12.861915367483297,0.16104908782028104
12.895322939866372,0.1257922772102743
12.928730512249444,0.09455902362643237
12.962138084632517,0.06814888775568771
12.995545657015592,0.04603473989791787
13.028953229398665,0.027119152239917774
13.062360801781738,0.010408824032699883
13.095768374164813,-0.00463276066325262
13.129175946547885,-0.01817231332039725
13.162583518930958,-0.030548992378028265
13.195991091314033,-0.043107992617419884
13.229398663697106,-0.0588897704766959
13.262806236080179,-0.08254395606276319
13.296213808463254,-0.11896015814208583
13.329621380846326,-0.17064545971741787
13.3630289532294,-0.23465353727673544
13.396436525612474,-0.30049624892335147
13.429844097995547,-0.35054561837190795
13.46325167037862,-0.36375876006365754
13.496659242761694,-0.3222513717853335
13.530066815144767,-0.21876265753131083
13.56347438752784,-0.06206624439012653
13.596881959910915,0.12247812408054282
13.630289532293988,0.29850873406895556
13.66369710467706,0.42914158148357967
13.697104677060135,0.4886699086525282
13.730512249443208,0.47076567083513804
13.763919821826281,0.38961903687169375
13.797327394209356,0.27347468767717753
13.830734966592429,0.15346721114443157
13.864142538975502,0.05271785530780034
13.897550111358576,-0.019760100226132685
13.93095768374165,-0.06840419010790906
13.964365256124722,-0.10506767394289382
13.997772828507797,-0.1412451119525044
14.03118040089087,-0.18237319778278088
14.064587973273943,-0.22630604296917642
14.097995545657017,-0.26563414347392045
14.13140311804009,-0.29175684823643805
14.164810690423163,-0.2983368044983068
14.198218262806238,-0.28281798405713293
14.23162583518931,-0.24618088136328148
14.265033407572384,-0.19202236033351344
14.298440979955458,-0.1259157416585709
14.331848552338531,-0.05516830105604352
14.365256124721604,0.011644206524664212
14.398663697104679,0.06600461127028463
14.432071269487752,0.10160106889788616
14.465478841870825,0.11644985838089071
14.4988864142539,0.11386907901494876
14.532293986636972,0.10163709820819418
14.565701559020045,0.08955306310023237
14.59910913140312,0.08635999242962435
14.632516703786193,0.09719433028322978
14.665924276169266,0.12237198786191252
14.69933184855234,0.15769340032077483
14.732739420935413,0.19589555649534773
14.766146993318486,0.22861018070176367
14.79955456570156,0.24822246592741704
14.832962138084634,0.24924352828849022
14.866369710467707,0.22905830044148004
14.899777282850781,0.1880886387626232
14.933184855233854,0.12949915965680286
14.966592427616927,0.05859985659042542
15.0,-0.0179069345278148
