Frequency (Hz),Amplitude
0.0,2.707286787695478
0.019867549668874173,2.7061300213124926
0.039735099337748346,2.7026613065048033
0.059602649006622516,2.6968853987497168
0.07947019867549669,2.6888102320846325
0.09933774834437085,2.678446931695965
0.11920529801324503,2.6658098320010257
0.13907284768211922,2.65091650069427
0.15894039735099338,2.6337877693837792
0.17880794701986755,2.614447771614568
0.1986754966887417,2.5929239892662537
0.2185430463576159,2.5692473085297904
0.23841059602649006,2.5434520869161608
0.2582781456953642,2.515576233037949
0.27814569536423844,2.485661301239173
0.2980132450331126,2.453752603540891
0.31788079470198677,2.419899341830664
0.33774834437086093,2.384154763766905
0.3576158940397351,2.346576346510741
0.3774834437086093,2.3072260131558813
0.3973509933774834,2.2661703876235957
0.4172185430463576,2.2234810948477417
0.4370860927152318,2.179235114320709
0.45695364238410596,2.1335151965308157
0.4768211920529801,2.0864103535213747
0.49668874172185434,2.038016436759235
0.5165562913907285,1.9884368177231324
0.5364238410596026,1.9377831890895714
0.5562913907284769,1.886176507041113
0.5761589403973509,1.8337480979089111
0.5960264900662252,1.7806409548208084
0.6158940397350993,1.727011251796723
0.6357615894039735,1.6730301030448604
0.6556291390728477,1.6188855928356223
0.6754966887417219,1.5647850943598114
0.695364238410596,1.510957881554056
0.7152317880794702,1.457658011861815
0.7350993377483444,1.405167414574221
0.7549668874172186,1.3537990513585512
0.7748344370860927,1.303899914199849
0.7947019867549668,1.2558534830691905
0.8145695364238411,1.2100810773786768
0.8344370860927152,1.167041309690757
0.8543046357615894,1.127226618787229
0.8741721854304636,1.091155691855521
0.8940397350993378,1.059360600969707
0.9139072847682119,1.0323678365307598
0.9337748344370861,1.0106732699411467
0.9536423841059603,0.9947124550356992
0.9735099337748344,0.984829368717373
0.9933774834437087,0.9812481622998211
1.0132450331125828,0.9840530206961186
1.033112582781457,0.9931802587065408
1.0529801324503312,1.0084243783166125
1.0728476821192052,1.029456757233513
1.0927152317880795,1.0558530881643473
1.1125827814569538,1.087124509264029
1.1324503311258278,1.1227477150908318
1.1523178807947019,1.1621907246577095
1.1721854304635762,1.204932681469794
1.1920529801324504,1.2504774980020152
1.2119205298013245,1.2983620786183998
1.2317880794701985,1.3481602704258253
1.2516556291390728,1.3994837429518994
1.271523178807947,1.4519808468260982
1.2913907284768211,1.5053342740383564
1.3112582781456954,1.559258113706218
1.3311258278145695,1.6134947033808666
1.3509933774834437,1.6678115271354557
1.370860927152318,1.7219983052596404
1.390728476821192,1.7758643484515964
1.410596026490066,1.8292362032581446
1.4304635761589404,1.8819555875601914
1.4503311258278146,1.9338775991973045
1.4701986754966887,1.9848691730417434
1.4900662251655628,2.0348077589608384
1.5099337748344372,2.083580193133632
1.5298013245033113,2.1310817368068347
1.5496688741721854,2.1772152589674194
1.5695364238410596,2.221890542077506
1.5894039735099337,2.2650236926744776
1.609271523178808,2.3065366411310313
1.6291390728476822,2.346356717122949
1.6490066225165563,2.38441628934263
1.6688741721854303,2.4206524597267576
1.6887417218543048,2.455006803955125
1.7086092715231789,2.4874251512486647
1.728476821192053,2.5178573975753022
1.7483443708609272,2.5462573472875354
1.7682119205298013,2.5725825789903096
1.7880794701986755,2.5967943320931743
1.8079470198675496,2.618857411055309
1.8278145695364238,2.6387401048026247
1.847682119205298,2.6564141191964232
1.8675496688741722,2.6718545207749576
1.8874172185430464,2.6850396902824003
1.9072847682119205,2.695951284753734
1.9271523178807946,2.7045742071445824
1.9470198675496688,2.710896582689866
1.9668874172185429,2.7149097413484786
1.9867549668874174,2.716608205848379
2.0066225165562916,2.715989684991167
2.0264900662251657,2.7130550720112168
2.0463576158940397,2.7078084479159177
2.066225165562914,2.700257089861937
2.086092715231788,2.6904114847532994
2.1059602649006623,2.678285348381649
2.1258278145695364,2.6638956505717806
2.1456953642384105,2.6472626469496223
2.165562913907285,2.628409918119459
2.185430463576159,2.607364417226804
2.205298013245033,2.584156527097509
2.2251655629139075,2.55882012838948
2.2450331125827816,2.5313926804761606
2.2649006622516556,2.501915317110189
2.2847682119205297,2.4704329592996324
2.3046357615894038,2.436994448279649
2.324503311258278,2.4016527019924165
2.3443708609271523,2.3644648991118618
2.364238410596027,2.3254926953858246
2.384105960264901,2.284802477935224
2.403973509933775,2.242465664170289
2.423841059602649,2.1985590531810284
2.443708609271523,2.1531652388564195
2.463576158940397,2.106373095606022
2.4834437086092715,2.0582783494133032
2.5033112582781456,2.0089842490429755
2.52317880794702,1.9586023545295639
2.543046357615894,1.9072534625216462
2.562913907284768,1.8550686904996756
2.5827814569536423,1.8021907440599856
2.6026490066225163,1.748775392907933
2.622516556291391,1.694993181183981
2.642384105960265,1.6410313950799928
2.662251655629139,1.5870963035821333
2.6821192052980134,1.533415673917783
2.7019867549668874,1.4802415380400435
2.7218543046357615,1.427853144992712
2.741721854304636,1.3765599695218271
2.76158940397351,1.3267045520813683
2.781456953642384,1.2786648122162754
2.801324503311258,1.2328553031083684
2.821192052980132,1.189726667515451
2.8410596026490067,1.1497623432255217
2.8609271523178808,1.113471412211155
2.8807947019867552,1.081376497914903
2.9006622516556293,1.0539959317101555
2.9205298013245033,1.0318201684267636
2.9403973509933774,1.0152836709994517
2.9602649006622515,1.0047350299144815
2.9801324503311255,1.0004094751740193
3.0,1.0024085308078596
3.0198675496688745,1.0106908299279969
3.0397350993377485,1.0250760308107398
3.0596026490066226,1.0452609891295752
3.0794701986754967,1.0708448697482311
3.0993377483443707,1.1013585717925487
3.119205298013245,1.1362939408851087
3.1390728476821192,1.1751293901966182
3.1589403973509933,1.2173501038946193
3.1788079470198674,1.2624623949004372
3.198675496688742,1.3100027455248116
3.218543046357616,1.359542540843793
3.23841059602649,1.410689620664948
3.2582781456953644,1.463087673674986
3.2781456953642385,1.5164142995942949
3.2980132450331126,1.5703783513420786
3.3178807947019866,1.6247169802184198
3.3377483443708607,1.6791926576847196
3.3576158940397347,1.7335903377489275
3.3774834437086096,1.787714848148839
3.3973509933774837,1.8413885486964734
3.4172185430463577,1.894449264073896
3.437086092715232,1.946748480202386
3.456953642384106,1.9981497836621223
3.47682119205298,2.0485275194061883
3.4966887417218544,2.097765641068421
3.5165562913907285,2.145756729104831
3.5364238410596025,2.1924011539354633
3.556291390728477,2.2376063636088483
3.576158940397351,2.2812862779629373
3.596026490066225,2.3233607736162907
3.615894039735099,2.3637552462956104
3.6357615894039736,2.4024002389483337
3.6556291390728477,2.4392311257953807
3.6754966887417218,2.4741878439571754
3.695364238410596,2.5072146655566674
3.7152317880794703,2.5382600042881616
3.7350993377483444,2.5672762513638445
3.754966887417219,2.594219636534281
3.774834437086093,2.619050110544081
3.794701986754967,2.641731245948832
3.814569536423841,2.6622301536993453
3.834437086092715,2.680517413308221
3.854304635761589,2.6965670147638803
3.8741721854304636,2.7103563106577986
3.8940397350993377,2.7218659772508893
3.9139072847682117,2.7310799834319686
3.9337748344370858,2.7379855667210062
3.9536423841059607,2.742573215648111
3.9735099337748347,2.744836658000508
3.993377483443709,2.7447728545782395
4.013245033112583,2.7423819982388506
4.033112582781457,2.7376675181452135
4.052980132450331,2.7306360892623385
4.072847682119205,2.7212976472814683
4.0927152317880795,2.709665409286568
4.112582781456953,2.6957559006224314
4.132450331125828,2.679588988578593
4.152317880794702,2.661187923673601
4.172185430463576,2.6405793895132645
4.19205298013245,2.6177935624099478
4.211920529801325,2.592864182193359
4.231788079470199,2.5658286359225886
4.251655629139073,2.536728056532787
4.271523178807947,2.5056074388256215
4.291390728476821,2.472515775651951
4.311258278145695,2.4375062176485267
4.33112582781457,2.400636260492787
4.3509933774834435,2.3619679643453253
4.370860927152318,2.3215682109763756
4.390728476821192,2.279509005038192
4.410596026490066,2.2358678270696313
4.43046357615894,2.190728047119087
4.450331125827815,2.1441794093626036
4.470198675496689,2.0963185997795324
4.490066225165563,2.047249910819043
4.509933774834438,1.997086019006675
4.529801324503311,1.945948893515205
4.549668874172186,1.8939708556958683
4.569536423841059,1.8412958111520576
4.589403973509934,1.7880806766737167
4.6092715231788075,1.7344970234989436
4.629139072847682,1.6807329547906897
4.649006622516556,1.6269952272088672
4.66887417218543,1.5735116115472012
4.688741721854305,1.5205334621324342
4.708609271523179,1.4683384244441684
4.728476821192054,1.417233149499343
4.748344370860927,1.3675557956864597
4.768211920529802,1.3196779786226123
4.788079470198675,1.274005676103628
4.80794701986755,1.2309784170170244
4.827814569536423,1.1910659071286087
4.847682119205298,1.1547611259150243
4.867549668874172,1.1225689563091297
4.887417218543046,1.094989699163359
4.9072847682119205,1.072497483378679
4.927152317880794,1.0555146376582243
4.947019867549669,1.0443843962900503
4.966887417218543,1.0393455018929907
4.986754966887418,1.0405128236674734
5.006622516556291,1.0478675919293383
5.026490066225166,1.0612591978476993
5.04635761589404,1.080418182423141
5.066225165562914,1.1049778480609644
5.086092715231788,1.1345006056222076
5.105960264900662,1.1685050183144068
5.125827814569536,1.2064903138887413
5.14569536423841,1.24795641255497
5.1655629139072845,1.2924187716545676
5.185430463576159,1.3394182826690266
5.205298013245033,1.388526990202866
5.225165562913908,1.4393505974546066
5.245033112582782,1.4915286936986272
5.264900662251656,1.5447334957321974
5.28476821192053,1.5986677151958886
5.304635761589404,1.6530619922078404
5.324503311258278,1.7076721929965994
5.344370860927152,1.7622767600241562
5.364238410596027,1.8166742245779035
5.3841059602649,1.870680938166122
5.403973509933775,1.9241290441157195
5.4238410596026485,1.9768646891850836
5.443708609271523,2.028746462552191
5.463576158940397,2.0796440431049077
5.483443708609272,2.1294370333470516
5.503311258278146,2.178013957938448
5.52317880794702,2.2252714059165277
5.543046357615895,2.2711132973605066
5.562913907284768,2.3154502572585116
5.582781456953643,2.3581990813838805
5.602649006622516,2.399282280944224
5.622516556291391,2.438627694565927
5.642384105960264,2.476168157788325
5.662251655629139,2.5118412216608825
5.682119205298013,2.545588913271214
5.701986754966887,2.57735753209775
5.7218543046357615,2.6070974769953037
5.741721854304636,2.634763099404801
5.7615894039735105,2.66031257904637
5.781456953642384,2.6837078189258343
5.801324503311259,2.7049143569717327
5.821192052980132,2.723901292037238
5.841059602649007,2.7406412223594394
5.860927152317881,2.7551101948773176
5.880794701986755,2.7672876640777164
5.900662251655629,2.7771564592726787
5.920529801324503,2.784702759418451
5.940397350993377,2.7899160747706957
5.960264900662251,2.792789234837724
5.980132450331126,2.7933183822473766
6.0,2.79150297228751
6.0198675496688745,2.7873457780184268
6.039735099337749,2.780852900991264
6.059602649006623,2.772033787742527
6.079470198675497,2.760901252374657
6.099337748344371,2.7474715056795387
6.119205298013245,2.7317641914188044
6.139072847682119,2.713802430546424
6.158940397350993,2.693612874348796
6.178807947019867,2.6712257676902578
6.198675496688741,2.646675023793154
6.218543046357616,2.6199983122568637
6.23841059602649,2.5912371623368338
6.258278145695365,2.5604370838704473
6.2781456953642385,2.5276477086603597
6.298013245033113,2.4929229556183565
6.317880794701987,2.4563212235449083
6.337748344370861,2.417905616084458
6.357615894039735,2.3777442041670023
6.377483443708609,2.335910332136809
6.397350993377484,2.2924829747916355
6.417218543046357,2.247547153720065
6.437086092715232,2.2011944226347233
6.456953642384105,2.1535234328465576
6.47682119205298,2.1046405915835407
6.496688741721854,2.0546608274666194
6.516556291390729,2.003708479007445
6.5364238410596025,1.9519183232990804
6.556291390728477,1.8994367628281792
6.5761589403973515,1.8464231880655486
6.596026490066225,1.793051531461156
6.6158940397351,1.7395120235914436
6.635761589403973,1.686013152910565
6.655629139072848,1.6327838146391183
6.675496688741721,1.580075608821642
6.695364238410596,1.5281652087221025
6.715231788079469,1.477356664093439
6.735099337748344,1.427983425033515
6.754966887417219,1.3804097681644831
6.774834437086093,1.335031179016401
6.794701986754967,1.2922731027778314
6.814569536423841,1.2525873449453702
6.8344370860927155,1.2164453301504026
6.854304635761589,1.1843274818294536
6.874172185430464,1.1567082532463016
6.894039735099337,1.1340368947195711
6.913907284768212,1.1167148913187972
6.933774834437086,1.1050720324104826
6.95364238410596,1.0993440046724436
6.973509933774834,1.0996548541519102
6.993377483443709,1.1060073151076986
7.013245033112583,1.118282786038276
7.033112582781457,1.136250947160636
7.052980132450331,1.159587230723761
7.072847682119205,1.1878951459952378
7.0927152317880795,1.2207301208149626
7.112582781456954,1.2576219797424293
7.132450331125828,1.2980941084080162
7.152317880794702,1.3416783767424412
7.172185430463576,1.3879257381103347
7.19205298013245,1.4364129715645437
7.211920529801324,1.486746299857009
7.231788079470198,1.5385626694715742
7.251655629139073,1.5915294060857141
7.271523178807947,1.645342829219329
7.291390728476822,1.6997262692461075
7.311258278145695,1.7544278031224159
7.33112582781457,1.8092179220395297
7.3509933774834435,1.8638872659807928
7.370860927152318,1.9182445039319882
7.390728476821192,1.9721143998762793
7.410596026490066,2.0253360793360957
7.430463576158941,2.0777614953651833
7.450331125827814,2.129254083608896
7.470198675496689,2.17968759115699
7.490066225165562,2.228945061851558
7.509933774834438,2.2769179604052536
7.52980132450331,2.3235054184046535
7.549668874172186,2.368613586545321
7.569536423841059,2.412155078964822
7.589403973509934,2.454048497121409
7.6092715231788075,2.4942180222003363
7.629139072847682,2.5325930664569585
7.649006622516557,2.5691079751987336
7.66887417218543,2.603701772258897
7.6887417218543055,2.6363179428254258
7.708609271523178,2.666904248370009
7.728476821192054,2.695412569185096
7.748344370860927,2.7217987706959272
7.768211920529802,2.746022590282403
7.788079470198675,2.768047541834654
7.80794701986755,2.787840835687781
7.827814569536423,2.8053733119457642
7.847682119205298,2.8206193855203323
7.8675496688741715,2.8335570014862004
7.887417218543046,2.844167599596009
7.907284768211921,2.852436087012104
7.927152317880795,2.858350818504425
7.9470198675496695,2.8619035835372224
7.966887417218543,2.8630895998279606
7.986754966887418,2.8619075131116256
8.006622516556291,2.8583594029878374
8.026490066225167,2.8524507948686284
8.046357615894038,2.844190678185214
8.066225165562914,2.8335915311560385
8.086092715231787,2.82066935256806
8.105960264900663,2.8054437011829068
8.125827814569536,2.7879377435524773
8.14569536423841,2.7681783112181537
8.165562913907285,2.74619596847936
8.185430463576159,2.7220250921543823
8.205298013245034,2.69570396502544
8.225165562913906,2.6672748849663366
8.245033112582782,2.636784292101839
8.264900662251655,2.6042829167501043
8.28476821192053,2.5698259513617843
8.304635761589404,2.5334732502002546
8.324503311258278,2.4952895611155745
8.344370860927151,2.4553447944596414
8.364238410596027,2.4137143349782884
8.3841059602649,2.3704794034035817
8.403973509933774,2.325727475454985
8.42384105960265,2.2795527670333504
8.443708609271523,2.232056795533194
8.463576158940398,2.183349028359643
8.483443708609272,2.1335476308379513
8.503311258278146,2.082780326609482
8.52317880794702,2.031185384110472
8.543046357615895,1.9789127425032105
8.562913907284768,1.9261252889916145
8.582781456953642,1.8730002960989445
8.602649006622515,1.819731021212616
8.62251655629139,1.7665284601209668
8.642384105960264,1.7136232295264946
8.66225165562914,1.6612675282537277
8.682119205298013,1.6097370902617878
8.701986754966887,1.5593329916313206
8.721854304635762,1.510383105932271
8.741721854304636,1.463242917123801
8.76158940397351,1.418295299770008
8.781456953642383,1.375948773582266
8.801324503311259,1.3366336551325675
8.821192052980132,1.300795500704367
8.841059602649008,1.2688853118028807
8.86092715231788,1.241346216129392
8.880794701986755,1.2185967842360308
8.90066225165563,1.201011789126303
8.920529801324504,1.188901970871395
8.940397350993377,1.1824950390871996
8.960264900662251,1.181920478387696
8.980132450331126,1.1872004976407267
9.0,1.1982486264656569
9.019867549668875,1.214876190112892
9.039735099337747,1.2368055532791136
9.059602649006623,1.2636880117892992
9.079470198675496,1.2951237795530712
9.099337748344372,1.33068168384197
9.119205298013245,1.3699167669508838
9.139072847682119,1.4123847415506148
9.158940397350994,1.4576529417295412
9.178807947019868,1.5053079273089067
9.198675496688743,1.5549602045751767
9.218543046357615,1.606246652367834
9.23841059602649,1.6588312434943604
9.258278145695364,1.712404581963143
9.27814569536424,1.7666826780177265
9.298013245033111,1.8214052818465354
9.317880794701987,1.876334007065374
9.33774834437086,1.9312504020206245
9.357615894039736,1.985954071047999
9.37748344370861,2.0402609070165467
9.397350993377483,2.0940014679089445
9.417218543046358,2.147019510952668
9.437086092715232,2.1991706854224584
9.456953642384107,2.250321377679005
9.47682119205298,2.3003476977726396
9.496688741721854,2.3491345949107028
9.516556291390728,2.3965750884750987
9.536423841059603,2.442569601534733
9.556291390728477,2.4870253845586214
9.57615894039735,2.5298560180549945
9.596026490066224,2.570980983984236
9.6158940397351,2.61032529692266
9.635761589403973,2.6478191870341417
9.655629139072847,2.6833978279054285
9.675496688741722,2.717001103207717
9.695364238410596,2.748573406955772
9.715231788079471,2.778063472852082
9.735099337748345,2.805424228832166
9.754966887417218,2.8306126734769856
9.774834437086092,2.8535897714382163
9.794701986754967,2.8743203654405605
9.814569536423841,2.892773102790105
9.834437086092716,2.9089203746374874
9.854304635761588,2.92273826652485
9.874172185430464,2.9342065189937347
9.894039735099337,2.943308497251621
9.913907284768213,2.9500311690934846
9.933774834437086,2.95436509045503
9.95364238410596,2.9563043981413695
9.973509933774835,2.955846809430806
9.993377483443709,2.9529936284034934
10.013245033112582,2.947749758989729
10.033112582781456,2.9401237248783767
10.052980132450331,2.9301276965728
10.072847682119205,2.9177775260344956
10.09271523178808,2.903092789515799
10.112582781456952,2.886096839356034
10.132450331125828,2.866816865703496
10.152317880794701,2.8452839693328644
10.172185430463577,2.821533246958369
10.192052980132452,2.795603890700322
10.211920529801324,2.7675393036536136
10.2317880794702,2.7373872338342524
10.251655629139073,2.7051999291511915
10.271523178807948,2.6710343164702914
10.29139072847682,2.6349522083106205
10.311258278145695,2.597020541245799
10.331125827814569,2.55731165067695
10.350993377483444,2.5159035873007656
10.370860927152318,2.472880481311309
10.390728476821192,2.4283329611373032
10.410596026490065,2.3823586343048113
10.43046357615894,2.3350626387904674
10.450331125827816,2.286558273927385
10.470198675496688,2.2369677204462928
10.490066225165563,2.186422859424444
10.509933774834437,2.1350661995499025
10.529801324503312,2.0830519208621068
10.549668874172186,2.0305470405371047
10.56953642384106,1.9777327017049369
10.589403973509933,1.924805578846148
10.609271523178808,1.8719793818748425
10.629139072847682,1.8194864241421016
10.649006622516556,1.7675791955899574
10.66887417218543,1.716531849327559
10.688741721854305,1.6666414663665277
10.70860927152318,1.6182289083541022
10.728476821192054,1.5716390030042067
10.748344370860927,1.5272397361867391
