Frequency (Hz),Amplitude
0.0,0.6264745231870636
0.019867549668874173,0.6261939843449583
0.039735099337748346,0.6253526944922043
0.059602649006622516,0.62395163388334
0.07947019867549669,0.621992437065343
0.09933774834437085,0.6194773940966782
0.11920529801324503,0.6164094523255965
0.13907284768211922,0.6127922188011782
0.15894039735099338,0.6086299634159825
0.17880794701986755,0.6039276229068844
0.1986754966887417,0.5986908058721382
0.2185430463576159,0.5929257989998411
0.23841059602649006,0.5866395747459985
0.2582781456953642,0.5798398007512932
0.27814569536423844,0.5725348513470139
0.2980132450331126,0.5647338215741526
0.31788079470198677,0.556446544228767
0.33774834437086093,0.5476836105557402
0.3576158940397351,0.5384563953466768
0.3774834437086093,0.5287770873613453
0.3973509933774834,0.5186587261970586
0.4172185430463576,0.5081152469817168
0.4370860927152318,0.4971615345836088
0.45695364238410596,0.48581348942560537
0.4768211920529801,0.4740881074899166
0.49668874172185434,0.46200357772641937
0.5165562913907285,0.44957940087172604
0.5364238410596026,0.4368365346920924
0.5562913907284769,0.4237975719394391
0.5761589403973509,0.4104869589294083
0.5960264900662252,0.3969312647014543
0.6158940397350993,0.38315951330832504
0.6357615894039735,0.36920359502053157
0.6556291390728477,0.35509877623064495
0.6754966887417219,0.34088433267365637
0.695364238410596,0.326604336201772
0.7152317880794702,0.3123086314674543
0.7350993377483444,0.2980540446564413
0.7549668874172186,0.2839058700392763
0.7748344370860927,0.26993967789187057
0.7947019867549668,0.2562434723695971
0.8145695364238411,0.24292018807306429
0.8344370860927152,0.23009042952686917
0.8543046357615894,0.21789519965195545
0.8741721854304636,0.20649809693421406
0.8940397350993378,0.19608606372761836
0.9139072847682119,0.1868672758014542
0.9337748344370861,0.179064355391497
0.9536423841059603,0.1729011803255213
0.9735099337748344,0.16858275129103034
0.9933774834437087,0.16627023251444048
1.0132450331125828,0.16605671287297427
1.033112582781457,0.1679512969520778
1.0529801324503312,0.17187748669586506
1.0728476821192052,0.17768649731871408
1.0927152317880795,0.18518040867816649
1.1125827814569538,0.1941375297978773
1.1324503311258278,0.20433380476399707
1.1523178807947019,0.2155574521824775
1.1721854304635762,0.22761694829566093
1.1920529801324504,0.2403439454777213
1.2119205298013245,0.2535929834199779
1.2317880794701985,0.2672395028375344
1.2516556291390728,0.281177175546023
1.271523178807947,0.295315141981866
1.2913907284768211,0.3095754549154484
1.3112582781456954,0.32389085059052725
1.3311258278145695,0.3382028715393578
1.3509933774834437,0.3524603181989788
1.370860927152318,0.36661798756839226
1.390728476821192,0.38063565299733326
1.410596026490066,0.3944772419940992
1.4304635761589404,0.40811017446981185
1.4503311258278146,0.42150482996891603
1.4701986754966887,0.4346341181901255
1.4900662251655628,0.44747313210087686
1.5099337748344372,0.45999886711237004
1.5298013245033113,0.4721899931657058
1.5496688741721854,0.48402666929031196
1.5695364238410596,0.4954903923460712
1.5894039735099337,0.5065638733609534
1.609271523178808,0.5172309362150203
1.6291390728476822,0.5274764344778142
1.6490066225165563,0.537286183039069
1.6688741721854303,0.546646901830547
1.6887417218543048,0.555546169458781
1.7086092715231789,0.5639723849827347
1.728476821192053,0.571914736401053
1.7483443708609272,0.57936317467852
1.7682119205298013,0.5863083923535424
1.7880794701986755,0.5927418059406996
1.8079470198675496,0.5986555414815444
1.8278145695364238,0.6040424227099686
1.847682119205298,0.6088959613919074
1.8675496688741722,0.6132103494752602
1.8874172185430464,0.6169804527497262
1.9072847682119205,0.620201805769064
1.9271523178807946,0.6228706078332203
1.9470198675496688,0.6249837198654271
1.9668874172185429,0.6265386620525546
1.9867549668874174,0.6275336121454314
2.0066225165562916,0.6279674043414147
2.0264900662251657,0.6278395286945262
2.0463576158940397,0.6271501310202809
2.066225165562914,0.6259000132824822
2.086092715231788,0.6240906344698655
2.1059602649006623,0.6217241119904174
2.1258278145695364,0.6188032236327878
2.1456953642384105,0.6153314101664692
2.165562913907285,0.6113127786774095
2.185430463576159,0.6067521067632616
2.205298013245033,0.6016548477438488
2.2251655629139075,0.596027137078925
2.2450331125827816,0.589875800227549
2.2649006622516556,0.5832083622338634
2.2847682119205297,0.5760330593837891
2.3046357615894038,0.5683588533493613
2.324503311258278,0.5601954483243556
2.3443708609271523,0.5515533117611104
2.364238410596027,0.5424436994480925
2.384105960264901,0.5328786858272412
2.403973509933775,0.5228712006472002
2.423841059602649,0.5124350732927125
2.443708609271523,0.5015850864345041
2.463576158940397,0.49033704102414305
2.4834437086092715,0.47870783513439114
2.5033112582781456,0.4667155597449146
2.52317880794702,0.45437961532794563
2.543046357615894,0.4417208540422219
2.562913907284768,0.4287617535485929
2.5827814569536423,0.4155266299835649
2.6026490066225163,0.4020418995474396
2.622516556291391,0.3883364005735818
2.642384105960265,0.37444179094607183
2.662251655629139,0.3603930394157266
2.6821192052980134,0.34622903378374403
2.7019867549668874,0.33199333402170156
2.7218543046357615,0.3177351038858446
2.741721854304636,0.30351025969260353
2.76158940397351,0.2893828779745504
2.781456953642384,0.275426901418762
2.801324503311258,0.2617281686718799
2.821192052980132,0.24838675762612147
2.8410596026490067,0.2355195564448765
2.8609271523178808,0.22326283676616254
2.8807947019867552,0.21177436911474265
2.9006622516556293,0.20123427066889799
2.9205298013245033,0.1918433362458738
2.9403973509933774,0.1838172179492271
2.9602649006622515,0.17737482730797707
2.9801324503311255,0.17272025360277524
3.0,0.17001970429643082
3.0198675496688745,0.16937805241093717
3.0397350993377485,0.17082181411558744
3.0596026490066226,0.1742945995282733
3.0794701986754967,0.17966678620921622
3.0993377483443707,0.18675575108024026
3.119205298013245,0.19534988247798982
3.1390728476821192,0.2052301385762205
3.1589403973509933,0.21618573654332598
3.1788079470198674,0.22802344097269533
3.198675496688742,0.24057163889101246
3.218543046357616,0.253680905062445
3.23841059602649,0.2672225695758065
3.2582781456953644,0.28108636706954376
3.2781456953642385,0.29517783299559514
3.2980132450331126,0.30941580652297423
3.3178807947019866,0.3237302041926092
3.3377483443708607,0.3380601161288451
3.3576158940397347,0.35235221846322917
3.3774834437086096,0.3665594695162691
3.3973509933774837,0.3806400486839704
3.4172185430463577,0.3945564971647942
3.437086092715232,0.4082750237350604
3.456953642384106,0.4217649441444632
3.47682119205298,0.4349982280876635
3.4966887417218544,0.44794913255784946
3.5165562913907285,0.4605939045212595
3.5364238410596025,0.472910539263459
3.556291390728477,0.48487858352044344
3.576158940397351,0.4964789747200342
3.596026490066225,0.5076939094170219
3.615894039735099,0.518506735399705
3.6357615894039736,0.5289018630470633
3.6556291390728477,0.5388646923894338
3.6754966887417218,0.5483815530159623
3.695364238410596,0.5574396545219299
3.7152317880794703,0.5660270456255679
3.7350993377483444,0.5741325804334962
3.754966887417219,0.5817458906134712
3.774834437086093,0.5888573624584085
3.794701986754967,0.5954581180074112
3.814569536423841,0.6015399995370935
3.834437086092715,0.6070955568566647
3.854304635761589,0.6121180369389877
3.8741721854304636,0.6166013755006649
3.8940397350993377,0.6205401902119078
3.9139072847682117,0.6239297752726718
3.9337748344370858,0.6267660971393842
3.9536423841059607,0.6290457912263705
3.9735099337748347,0.63076615944096
3.993377483443709,0.6319251684415355
4.013245033112583,0.6325214485343722
4.033112582781457,0.6325542931496699
4.052980132450331,0.6320236588596072
4.072847682119205,0.6309301659225641
4.0927152317880795,0.6292750993587316
4.112582781456953,0.6270604105833117
4.132450331125828,0.6242887196452459
4.152317880794702,0.6209633181426163
4.172185430463576,0.6170881729110257
4.19205298013245,0.612667930609231
4.211920529801325,0.6077079233582682
4.231788079470199,0.6022141756265061
4.251655629139073,0.5961934125960575
4.271523178807947,0.5896530702959053
4.291390728476821,0.5826013078468911
4.311258278145695,0.5750470222351499
4.33112582781457,0.566999866116912
4.3509933774834435,0.5584702692620435
4.370860927152318,0.5494694643711274
4.390728476821192,0.540009518157205
4.410596026490066,0.5301033687751139
4.43046357615894,0.5197648709186169
4.450331125827815,0.5090088501992097
4.470198675496689,0.4978511687863055
4.490066225165563,0.4863088047435623
4.509933774834438,0.47439994806669133
4.529801324503311,0.4621441171411274
4.549668874172186,0.44956230023333743
4.569536423841059,0.436677127752411
4.589403973509934,0.4235130824247892
4.6092715231788075,0.41009675628146575
4.629139072847682,0.39645716553658905
4.649006622516556,0.3826261371140742
4.66887417218543,0.3686387838134318
4.688741721854305,0.3545340889077398
4.708609271523179,0.3403556252329879
4.728476821192054,0.3261524382217379
4.748344370860927,0.311980126070635
4.768211920529802,0.2979021517066081
4.788079470198675,0.28399141739691813
4.80794701986755,0.2703321183234233
4.827814569536423,0.25702185711718134
4.847682119205298,0.2441739329978197
4.867549668874172,0.23191959681434782
4.887417218543046,0.22040986408154664
4.9072847682119205,0.20981618809744088
4.927152317880794,0.20032893848992944
4.947019867549669,0.19215232104381755
4.966887417218543,0.18549437323700432
4.986754966887418,0.18055137122112463
5.006622516556291,0.17748769771336534
5.026490066225166,0.17641469407856047
5.04635761589404,0.17737404655811487
5.066225165562914,0.18033112103851096
5.086092715231788,0.18518064306318355
5.105960264900662,0.19176266246957957
5.125827814569536,0.19988353031944478
5.14569536423841,0.2093362535041258
5.1655629139072845,0.21991650670045587
5.185430463576159,0.23143307351727677
5.205298013245033,0.24371328087025723
5.225165562913908,0.2566047641326584
5.245033112582782,0.26997494010812073
5.264900662251656,0.28370926915065914
5.28476821192053,0.29770902996034115
5.304635761589404,0.3118890342861539
5.324503311258278,0.3261755030067698
5.344370860927152,0.3405041976248052
5.364238410596027,0.3548188294314241
5.3841059602649,0.36906973216180466
5.403973509933775,0.38321276821929645
5.4238410596026485,0.3972084340695573
5.443708609271523,0.41102113155326797
5.463576158940397,0.42461857545894727
5.483443708609272,0.4379713120460943
5.503311258278146,0.4510523274776539
5.52317880794702,0.4638367289477052
5.543046357615895,0.4763014845558675
5.562913907284768,0.488425210690037
5.582781456953643,0.5001879978873247
5.602649006622516,0.5115712679242093
5.622516556291391,0.5225576563142297
5.642384105960264,0.5331309155310406
5.662251655629139,0.5432758351836564
5.682119205298013,0.5529781760950987
5.701986754966887,0.5622246158146518
5.7218543046357615,0.5710027035560944
5.741721854304636,0.5793008229259593
5.7615894039735105,0.5871081611037118
5.781456953642384,0.5944146833767144
5.801324503311259,0.601211112127887
5.821192052980132,0.6074889095321927
5.841059602649007,0.6132402633478742
5.860927152317881,0.6184580752943641
5.880794701986755,0.6231359515963556
5.900662251655629,0.6272681953464897
5.920529801324503,0.6308498003995521
5.940397350993377,0.6338764465625525
5.960264900662251,0.6363444958882439
5.980132450331126,0.6382509899173028
6.0,0.6395936477470666
6.0198675496688745,0.6403708648332118
6.039735099337749,0.6405817124573794
6.059602649006623,0.6402259378176344
6.079470198675497,0.6393039647213062
6.099337748344371,0.6378168948822921
6.119205298013245,0.63576650984688
6.139072847682119,0.6331552735950966
6.158940397350993,0.6299863358887027
6.178807947019867,0.626263536463062
6.198675496688741,0.6219914101891169
6.218543046357616,0.6171751933642221
6.23841059602649,0.6118208313279009
6.258278145695365,0.6059349876419673
6.2781456953642385,0.5995250551251583
6.298013245033113,0.5925991690924413
6.317880794701987,0.5851662232209245
6.337748344370861,0.5772358885502455
6.357615894039735,0.5688186362288512
6.377483443708609,0.559925764743681
6.397350993377484,0.5505694325238175
6.417218543046357,0.5407626969961962
6.437086092715232,0.5305195614012738
6.456953642384105,0.5198550309599183
6.47682119205298,0.508785180332081
6.496688741721854,0.4973272347403151
6.516556291390729,0.48549966766708874
6.5364238410596025,0.47332231869989333
6.556291390728477,0.4608165359228623
6.5761589403973515,0.4480053482760979
6.596026490066225,0.43491367456688856
6.6158940397351,0.42156857736918846
6.635761589403973,0.40799957193815295
6.655629139072848,0.3942390025362852
6.675496688741721,0.380322501231375
6.695364238410596,0.36628954723786145
6.715231788079469,0.3521841480639885
6.735099337748344,0.33805566669353504
6.754966887417219,0.3239598209527407
6.774834437086093,0.3099598805406442
6.794701986754967,0.29612808118493145
6.814569536423841,0.2825472593799255
6.8344370860927155,0.2693126777622543
6.854304635761589,0.25653394943309044
6.874172185430464,0.2443368650908583
6.894039735099337,0.23286476497081252
6.913907284768212,0.22227887276562303
6.933774834437086,0.21275674555503588
6.95364238410596,0.2044877811483949
6.973509933774834,0.19766474843083945
6.993377483443709,0.1924708356144204
7.013245033112583,0.1890629528843028
7.033112582781457,0.18755382771439844
7.052980132450331,0.18799702347972647
7.072847682119205,0.19037922700395946
7.0927152317880795,0.1946223132811621
7.112582781456954,0.20059449003626026
7.132450331125828,0.2081270129758565
7.152317880794702,0.21703198516108824
7.172185430463576,0.22711767663513407
7.19205298013245,0.23819960951471736
7.211920529801324,0.2501072749778686
7.231788079470198,0.26268728223135834
7.251655629139073,0.2758040248610719
7.271523178807947,0.28933884730275927
7.291390728476822,0.3031884451965918
7.311258278145695,0.31726298094927086
7.33112582781457,0.3314841972271826
7.3509933774834435,0.34578367501805424
7.370860927152318,0.36010129827321996
7.390728476821192,0.3743839388059805
7.410596026490066,0.3885843500547029
7.430463576158941,0.4026602471464355
7.450331125827814,0.4165735472906536
7.470198675496689,0.43028974514319634
7.490066225165562,0.4437774002334173
7.509933774834438,0.4570077166428579
7.52980132450331,0.4699541982455894
7.549668874172186,0.4825923656765705
7.569536423841059,0.4948995236793103
7.589403973509934,0.5068545695792842
7.6092715231788075,0.5184378353636392
7.629139072847682,0.5296309572664406
7.649006622516557,0.5404167679102192
7.66887417218543,0.5507792069854381
7.6887417218543055,0.5607032472005733
7.708609271523178,0.5701748328408004
7.728476821192054,0.5791808287613744
7.748344370860927,0.5877089780361778
7.768211920529802,0.5957478668009315
7.788079470198675,0.6032868950892551
7.80794701986755,0.610316252670505
7.827814569536423,0.6168268990701659
7.847682119205298,0.6228105470945093
7.8675496688741715,0.6282596492972121
7.887417218543046,0.6331673869216082
7.907284768211921,0.6375276609319763
7.927152317880795,0.6413350848141421
7.9470198675496695,0.6445849788819643
7.966887417218543,0.6472733658741641
7.986754966887418,0.6493969676672358
8.006622516556291,0.6509532029662584
8.026490066225167,0.651940185866704
8.046357615894038,0.6523567252097658
8.066225165562914,0.6522023246791698
8.086092715231787,0.6514771836131352
8.105960264900663,0.6501821985284242
8.125827814569536,0.6483189653778791
8.14569536423841,0.6458897825868369
8.165562913907285,0.6428976549396266
8.185430463576159,0.6393462984147531
8.205298013245034,0.6352401460976399
8.225165562913906,0.6305843553334471
8.245033112582782,0.6253848163212629
8.264900662251655,0.6196481623948682
8.28476821192053,0.6133817822872186
8.304635761589404,0.6065938347363009
8.324503311258278,0.5992932658620538
8.344370860927151,0.5914898298296444
8.364238410596027,0.5831941134172461
8.3841059602649,0.5744175652301506
8.403973509933774,0.5651725304526942
8.42384105960265,0.5554722922106632
8.443708609271523,0.5453311208380934
8.463576158940398,0.5347643326109952
8.483443708609272,0.5237883598400354
8.503311258278146,0.5124208346162212
8.52317880794702,0.5006806889966803
8.543046357615895,0.48858827502010854
8.562913907284768,0.4761655086778687
8.582781456953642,0.46343604286319146
8.602649006622515,0.45042547540546074
8.62251655629139,0.4371615995979029
8.642384105960264,0.42367470616546116
8.66225165562914,0.40999794739923523
8.682119205298013,0.3961677761719342
8.701986754966887,0.38222447463991055
8.721854304635762,0.3682127893994244
8.741721854304636,0.3541826912384733
8.76158940397351,0.3401902775778095
8.781456953642383,0.3262988327812103
8.801324503311259,0.31258005335059247
8.821192052980132,0.29911542784278633
8.841059602649008,0.28599772956181607
8.86092715231788,0.2733325260708303
8.880794701986755,0.2612395243819392
8.90066225165563,0.24985344695596703
8.920529801324504,0.2393239728119785
8.940397350993377,0.22981410397532617
8.960264900662251,0.22149619582929478
8.980132450331126,0.21454494297943769
9.0,0.20912700229459374
9.019867549668875,0.20538777737342848
9.039735099337747,0.20343708858920947
9.059602649006623,0.20333656387972351
9.079470198675496,0.20509190924813847
9.099337748344372,0.20865225909968751
9.119205298013245,0.21391679319346676
9.139072847682119,0.22074670054695708
9.158940397350994,0.228979400732542
9.178807947019868,0.23844206577592905
9.198675496688743,0.24896251498040495
9.218543046357615,0.26037677755365984
9.23841059602649,0.27253353159808297
9.258278145695364,0.2852960869317105
9.27814569536424,0.2985426766114417
9.298013245033111,0.3121657201809257
9.317880794701987,0.32607055142035685
9.33774834437086,0.3401739387752713
9.357615894039736,0.3544025969385526
9.37748344370861,0.36869179728389007
9.397350993377483,0.382984126512223
9.417218543046358,0.3972284080687172
9.437086092715232,0.4113787817413255
9.456953642384107,0.42539392747137716
9.47682119205298,0.4392364157787893
9.496688741721854,0.4528721667582912
9.516556291390728,0.46627000077126096
9.536423841059603,0.47940126582665304
9.556291390728477,0.49223952870552845
9.57615894039735,0.5047603188748946
9.596026490066224,0.5169409160354279
9.6158940397351,0.5287601737115943
9.635761589403973,0.540198372620312
9.655629139072847,0.5512370986638759
9.675496688741722,0.5618591413115077
9.695364238410596,0.5720484088892157
9.715231788079471,0.5817898579167076
9.735099337748345,0.5910694341360581
9.754966887417218,0.5998740232908957
9.774834437086092,0.6081914100526539
9.794701986754967,0.6160102437675374
9.814569536423841,0.6233200099249628
9.834437086092716,0.6301110064346982
9.854304635761588,0.63637432395403
9.874172185430464,0.6421018296335854
9.894039735099337,0.6472861537563989
9.913907284768213,0.6519206788330871
9.933774834437086,0.6559995307903733
9.95364238410596,0.659517571952899
9.973509933774835,0.6624703955719609
9.993377483443709,0.6648543217005954
10.013245033112582,0.6666663942549825
10.033112582781456,0.6679043791374871
10.052980132450331,0.6685667633283199
10.072847682119205,0.6686527548826982
10.09271523178808,0.6681622837970558
10.112582781456952,0.6670960037348828
10.132450331125828,0.6654552946284623
10.152317880794701,0.6632422661991232
10.172185430463577,0.6604597624661941
10.192052980132452,0.6571113673439158
10.211920529801324,0.6532014114573055
10.2317880794702,0.6487349803430782
10.251655629139073,0.6437179242417475
10.271523178807948,0.6381568697319537
10.29139072847682,0.6320592335104932
10.311258278145695,0.6254332386829384
10.331125827814569,0.6182879340006469
10.350993377483444,0.6106332165655587
10.370860927152318,0.6024798586238147
10.390728476821192,0.5938395391897755
10.410596026490065,0.5847248813854227
10.43046357615894,0.5751494965518937
10.450331125827816,0.5651280363975072
10.470198675496688,0.5546762546953009
10.490066225165563,0.5438110803437338
10.509933774834437,0.5325507039656575
10.529801324503312,0.5209146806559276
10.549668874172186,0.5089240520099436
10.56953642384106,0.4966014911887508
10.589403973509933,0.4839714755161297
