Frequency (Hz),Amplitude
0.0,0.8110764740673182
0.01993355481727575,0.8109244268255464
0.0398671096345515,0.8104686812998926
0.059800664451827246,0.8097104262041256
0.079734219269103,0.8086516431061384
0.09966777408637874,0.8072951069792711
0.11960132890365449,0.8056443869419082
0.13953488372093023,0.8037038471517786
0.159468438538206,0.801478647810299
0.17940199335548174,0.7989747462203222
0.19933554817275748,0.7961988978262966
0.21926910299003324,0.7931586571510525
0.23920265780730898,0.7898623785251625
0.25913621262458475,0.7863192164858562
0.27906976744186046,0.7825391256992189
0.29900332225913623,0.7785328602351275
0.318936877076412,0.774311971995444
0.3388704318936877,0.7698888080651833
0.3588039867109635,0.7652765067215115
0.37873754152823924,0.7604889917975264
0.39867109634551495,0.7555409650569026
0.4186046511627907,0.7504478961916977
0.4385382059800665,0.7452260100092475
0.4584717607973422,0.7398922703271148
0.47840531561461797,0.7344643600465195
0.49833887043189373,0.7289606568286008
0.5182724252491695,0.7234002037540828
0.5382059800664452,0.7178026743091916
0.5581395348837209,0.7121883310115129
0.5780730897009968,0.7065779769726674
0.5980066445182725,0.700992899694181
0.6179401993355482,0.695454806413228
0.637873754152824,0.6899857503615174
0.6578073089700996,0.6846080473777996
0.6777408637873754,0.6793441824274891
0.6976744186046512,0.6742167057367601
0.717607973421927,0.6692481184451239
0.7375415282392027,0.6644607479231823
0.7574750830564785,0.6598766131896636
0.7774086378737541,0.6555172811906647
0.7973421926910299,0.6514037150683436
0.8172757475083057,0.6475561159347373
0.8372093023255814,0.6439937600650503
0.8571428571428572,0.6407348338153723
0.877076411960133,0.6377962689304311
0.8970099667774087,0.6351935812148579
0.9169435215946844,0.6329407157710563
0.9368770764119602,0.6310499021365401
0.9568106312292359,0.6295315226626063
0.9767441860465116,0.6283939973517496
0.9966777408637875,0.6276436881061294
1.0166112956810631,0.6272848249370415
1.036544850498339,0.6273194561581318
1.0564784053156147,0.6277474239549385
1.0764119601328903,0.6285663660203935
1.0963455149501662,0.6297717432069553
1.1162790697674418,0.6313568924090246
1.1362126245847177,0.6333131031947222
1.1561461794019936,0.6356297160881914
1.176079734219269,0.638294239892271
1.196013289036545,0.6412924850571863
1.2159468438538206,0.6446087098550441
1.2358803986710964,0.6482257760137389
1.255813953488372,0.6521253104906273
1.275747508305648,0.6562878702102797
1.2956810631229239,0.6606931068321711
1.3156146179401993,0.6653199289304306
1.3355481727574752,0.6701466593334057
1.3554817275747508,0.6751511857635203
1.3754152823920267,0.6803111033154466
1.3953488372093024,0.6856038476968744
1.4152823920265782,0.6910068185150956
1.435215946843854,0.6964974922165414
1.4551495016611296,0.7020535245672851
1.4750830564784054,0.7076528427986719
1.495016611295681,0.7132737277332204
1.514950166112957,0.7188948863536309
1.5348837209302328,0.7244955153854501
1.5548172757475083,0.7300553565371973
1.5747508305647842,0.7355547440839847
1.5946843853820598,0.7409746454982944
1.6146179401993357,0.7462966958284217
1.6345514950166113,0.7515032265067492
1.6544850498338872,0.756577289239155
1.6744186046511629,0.7615026755889871
1.6943521594684385,0.7662639328240761
1.7142857142857144,0.7708463765496031
1.73421926910299,0.7752361006008245
1.754152823920266,0.7794199846234079
1.7740863787375416,0.783385699722339
1.7940199335548175,0.7871217125182459
1.8139534883720931,0.7906172879084999
1.8338870431893688,0.7938624907936269
1.8538205980066447,0.7968481869957205
1.8737541528239203,0.7995660435641413
1.893687707641196,0.8020085286367244
1.9136212624584719,0.8041689110000002
1.9335548172757475,0.8060412594696162
1.9534883720930232,0.807620442193525
1.9734219269102993,0.8089021259629741
1.993355481727575,0.8098827756011353
2.0132890365448506,0.8105596534863142
2.0332225913621262,0.8109308192541733
2.0531561461794023,0.8109951297129979
2.073089700996678,0.8107522389957696
2.0930232558139537,0.8102025989636765
2.1129568106312293,0.8093474598666159
2.132890365448505,0.8081888712574481
2.1528239202657806,0.8067296831475338
2.1727574750830567,0.8049735473814672
2.1926910299003324,0.8029249191991599
2.212624584717608,0.8005890589415317
2.2325581395348837,0.7979720338440021
2.25249169435216,0.7950807198476748
2.2724252491694354,0.7919228033421976
2.292358803986711,0.7885067827361677
2.312292358803987,0.7848419697301764
2.332225913621263,0.7809384901444348
2.352159468438538,0.7768072841262581
2.3720930232558137,0.772460105532931
2.39202657807309,0.7679095202523964
2.4119601328903655,0.7631689031870885
2.431893687707641,0.7582524335857653
2.4518272425249172,0.7531750883640139
2.471760797342193,0.7479526330069033
2.4916943521594686,0.7426016095968803
2.511627906976744,0.7371393214581083
2.5315614617940203,0.7315838138559836
2.551495016611296,0.7259538501381315
2.5714285714285716,0.7202688826550789
2.5913621262458477,0.7145490177550482
2.611295681063123,0.7088149741133687
2.6312292358803986,0.7030880336356993
2.6511627906976742,0.6973899841701104
2.6710963455149503,0.6917430532818083
2.691029900332226,0.6861698323904937
2.7109634551495017,0.6806931906510263
2.7308970099667778,0.6753361780769533
2.7508305647840534,0.6701219175707136
2.770764119601329,0.6650734857359534
2.7906976744186047,0.660213782609781
2.810631229235881,0.6555653907650502
2.8305647840531565,0.6511504245915325
2.850498338870432,0.6469903709628055
2.870431893687708,0.6431059229213386
2.8903654485049834,0.6395168084508118
2.910299003322259,0.6362416168328944
2.9302325581395348,0.6332976254794109
2.950166112956811,0.630700630465894
2.9700996677740865,0.6284647842390967
2.990033222591362,0.626602444105626
3.0099667774086383,0.6251240351085288
3.029900332225914,0.6240379307486006
3.0498338870431896,0.6233503547020608
3.0697674418604657,0.6230653062289498
3.089700996677741,0.6231845113740128
3.1096345514950166,0.6237074013586329
3.129568106312292,0.6246311187846693
3.1495016611295683,0.6259505514593412
3.169435215946844,0.6276583928497622
3.1893687707641196,0.6297452274283518
3.2093023255813957,0.6321996385163978
3.2292358803986714,0.6350083357022688
3.249169435215947,0.6381562985246344
3.2691029900332227,0.6416269328800118
3.289036544850499,0.6454022365359078
3.3089700996677744,0.649462970197157
3.32890365448505,0.653788830762754
3.3488372093023258,0.6583586237021979
3.3687707641196014,0.6631504318455272
3.388704318936877,0.6681417782937253
3.4086378737541527,0.6733097815898491
3.428571428571429,0.6786313017242039
3.4485049833887045,0.6840830759596882
3.46843853820598,0.6896418438433408
3.4883720930232562,0.6952844611064001
3.508305647840532,0.700988002443555
3.5282392026578075,0.7067298533994235
3.548172757475083,0.7124877917787508
3.5681063122923593,0.7182400591387804
3.588039867109635,0.7239654230221128
3.60797342192691,0.7296432306520517
3.6279069767441863,0.7352534548448949
3.647840531561462,0.7407767329012207
3.6677740863787376,0.7461943992254053
3.6877076411960132,0.7514885123951549
3.7076411960132893,0.7566418773640905
3.727574750830565,0.7616380634347286
3.7475083056478407,0.7664614185889226
3.7674418604651168,0.7710970807107325
3.787375415282392,0.775530986184569
3.807308970099668,0.7797498763006114
3.8272425249169437,0.7837413018510151
3.8471760797342194,0.7874936262548103
3.867109634551495,0.7909960275075024
3.887043189368771,0.7942384992128373
3.9069767441860463,0.7972118509193935
3.9269102990033224,0.7999077079534758
3.9468438538205985,0.8023185109121791
3.9667774086378738,0.8044375149556542
3.98671096345515,0.806258789016267
4.0066445182724255,0.8077772150231991
4.026578073089701,0.8089884872244247
4.046511627906977,0.8098891116735958
4.0664451827242525,0.8104764059363168
4.086378737541528,0.810748499059075
4.106312292358805,0.8107043318338103
4.1262458471760795,0.8103436573817908
4.146179401993356,0.8096670420716793
4.166112956810632,0.8086758667781851
4.186046511627907,0.8073723284793795
4.205980066445183,0.8057594421819568
4.225913621262459,0.803841043154613
4.245847176079734,0.801621789439603
4.26578073089701,0.7991071646013405
4.2857142857142865,0.7963034806583735
4.305647840531561,0.7932178811304126
4.325581395348838,0.7898583441157969
4.345514950166113,0.786233685295587
4.365448504983389,0.7823535607383543
4.385382059800665,0.7782284693550416
4.40531561461794,0.7738697548240974
4.425249169435216,0.769289606774804
4.445182724252492,0.7645010609793984
4.465116279069767,0.7595179982638126
4.485049833887043,0.7543551418006381
4.50498338870432,0.7490280523974931
4.524916943521594,0.7435531213394421
4.544850498338871,0.7379475602854596
4.5647840531561465,0.7322293876571478
4.584717607973422,0.7264174108949663
4.604651162790698,0.7205312038932379
4.624584717607974,0.7145910788645164
4.644518272425249,0.7086180518276866
4.664451827242526,0.7026338008676234
4.6843853820598005,0.6966606162808898
4.704318936877076,0.690721341708398
4.724252491694353,0.6848393053663813
4.7441860465116275,0.679038240531571
4.764119601328904,0.6733421945179577
4.78405315614618,0.6677754255119054
4.803986710963455,0.6623622868150284
4.823920265780731,0.6571270982829076
4.8438538205980075,0.6520940050519269
4.863787375415282,0.6472868240080221
4.883720930232559,0.6427288788753864
4.9036544850498345,0.6384428252735597
4.92358803986711,0.6344504676004052
4.943521594684386,0.6307725701208152
4.963455149501661,0.6274286651560548
4.983388704318937,0.6244368617423651
5.003322259136213,0.6218136585275383
5.023255813953488,0.6195737649680758
5.043189368770764,0.6177299350408285
5.063122923588041,0.616292817669735
5.083056478405315,0.6152708278683051
5.102990033222592,0.6146700422088184
5.122923588039868,0.6144941216524474
5.142857142857143,0.6147442640405489
5.162790697674419,0.6154191876796599
5.182724252491695,0.6165151465097912
5.20265780730897,0.6180259763714393
5.222591362126246,0.6199431709416177
5.242524916943522,0.6222559850466423
5.262458471760797,0.624951562322607
5.282392026578074,0.6280150836221893
5.3023255813953485,0.6314299321761084
5.322259136212625,0.6351778713203563
5.342192691029901,0.6392392305852548
5.362126245847176,0.6435930960968885
5.382059800664452,0.6482175015322303
5.4019933554817285,0.653089616269586
5.421926910299003,0.65818592784884
5.44186046511628,0.663482416367848
5.4617940199335555,0.6689547189629396
5.48172757475083,0.6745782830278485
5.501661129568107,0.6803285072944072
5.5215946843853825,0.6861808703193365
5.541528239202658,0.6921110462835373
5.561461794019934,0.6980950083107099
5.5813953488372094,0.7041091197513999
5.601328903654485,0.7101302140599259
5.621262458471762,0.7161356640198245
5.641196013289036,0.7221034411563055
5.661129568106313,0.7280121662166559
5.681063122923589,0.7338411516121224
5.700996677740864,0.7395704367001996
5.72093023255814,0.7451808167540698
5.740863787375416,0.7506538664196089
5.760797342192691,0.755971958405028
5.780730897009967,0.7611182780878922
5.800664451827243,0.766076834661292
5.820598006644518,0.7708324693783098
5.840531561461795,0.7753708613930396
5.8604651162790695,0.7796785316386035
5.880398671096346,0.7837428451282344
5.900332225913622,0.7875520120162995
5.920265780730897,0.791095087710388
5.940199335548173,0.7943619722853058
5.960132890365449,0.797343409413523
5.980066445182724,0.8000309849946645
6.0,0.8024171256386686
6.0199335548172765,0.804495097132713
6.039867109634551,0.8062590030010383
6.059800664451828,0.8077037832483718
6.0797342192691035,0.8088252133620751
6.099667774086379,0.8096199036343951
6.119601328903655,0.8100852988547628
6.139534883720931,0.8102196784114643
6.159468438538206,0.8100221568335741
6.179401993355482,0.809492684795018
6.1993355481727574,0.8086320505959324
6.219269102990033,0.8074418821283553
6.23920265780731,0.8059246493264146
6.259136212624584,0.8040836670930708
6.279069767441861,0.8019230986872316
6.299003322259137,0.7994479595454914
6.318936877076412,0.7966641215020036
6.338870431893688,0.7935783173574603
6.3588039867109645,0.7901981457334757
6.378737541528239,0.7865320761313453
6.398671096345516,0.7825894540942353
6.418604651162791,0.7783805063478725
6.438538205980066,0.7739163457671792
6.458471760797343,0.7692089759844807
6.4784053156146175,0.7642712954174473
6.498338870431894,0.7591171004526976
6.51827242524917,0.7537610874723742
6.538205980066445,0.7482188533568759
6.558139534883721,0.7425068940356402
6.578073089700998,0.736642600591074
6.598006644518272,0.7306442523475799
6.617940199335549,0.7245310062993302
6.6378737541528245,0.7183228821483373
6.6578073089701,0.7120407421400817
6.677740863787376,0.7057062648003961
6.6976744186046515,0.6993419115976546
6.717607973421927,0.6929708854841153
6.737541528239203,0.6866170802136772
6.7574750830564785,0.6803050192996009
6.777408637873754,0.6740597834704989
6.797342192691031,0.6679069255181324
6.8172757475083055,0.6618723715132955
6.837209302325582,0.6559823075096094
6.857142857142858,0.6502630510663943
6.877076411960133,0.6447409072115406
6.897009966777409,0.6394420088375187
6.9169435215946855,0.6343921419814104
6.93687707641196,0.6296165569785532
6.956810631229236,0.6251397670888392
6.9767441860465125,0.6209853368567063
6.996677740863787,0.6171756631522791
7.016611295681064,0.6137317525177216
7.036544850498339,0.6106729990661165
7.056478405315615,0.608016967702536
7.076411960132891,0.6057791878108064
7.096345514950166,0.6039729627278144
7.116279069767442,0.6026092002754059
7.136212624584719,0.6016962693122208
7.156146179401993,0.601239886700846
7.17607973421927,0.6012430382731762
7.196013289036546,0.6017059363550986
7.21594684385382,0.6026260152353827
7.235880398671097,0.6039979647030639
7.2558139534883725,0.6058138005092869
7.275747508305648,0.6080629694133671
7.295681063122924,0.6107324854184489
7.3156146179402,0.6138070929492923
7.335548172757475,0.6172694521109874
7.355481727574752,0.621100340813082
7.3754152823920265,0.6252788684451777
7.395348837209303,0.6297826959282775
7.415282392026579,0.6345882573053475
7.435215946843854,0.6396709785315039
7.45514950166113,0.6450054897297871
7.475083056478406,0.6505658278457337
7.495016611295681,0.6563256273183464
7.514950166112956,0.6622582970509644
7.5348837209302335,0.6683371825829083
7.554817275747508,0.6745357129137061
7.574750830564784,0.6808275319017401
7.5946843853820605,0.6871866145460719
7.614617940199336,0.693587368763324
7.634551495016611,0.700004723495958
7.6544850498338874,0.706414204142957
7.674418604651163,0.7127919963977192
7.694352159468439,0.7191149996207156
7.714285714285715,0.7253608708771743
7.73421926910299,0.731508060741169
7.754152823920266,0.7375358419157623
7.774086378737542,0.7434243316513915
7.794019933554818,0.7491545088675212
7.813953488372093,0.7547082268005465
7.83388704318937,0.7600682219172703
7.853820598006645,0.7652181197519022
7.8737541528239205,0.7701424382464778
7.893687707641197,0.77482658910081
7.913621262458472,0.7792568775719617
7.9335548172757475,0.7834205011008548
7.953488372093024,0.787305547089875
7.9734219269103,0.7909009901062379
7.9933554817275745,0.794196688743476
8.013289036544851,0.797183382336102
8.033222591362128,0.7998526876909391
8.053156146179402,0.8021970959705108
8.073089700996679,0.8042099698412994
8.093023255813954,0.8058855409794842
8.11295681063123,0.8072189080106413
8.132890365448505,0.8082060349458515
8.152823920265782,0.8088437501652056
8.172757475083056,0.8091297459903988
8.192691029900331,0.809062578879534
8.21262458471761,0.8086416702708583
8.232558139534884,0.8078673080957826
8.252491694352159,0.8067406489761276
8.272425249169435,0.8052637211151737
8.292358803986712,0.8034394278863217
8.312292358803987,0.8012715521175567
8.332225913621263,0.7987647610625846
8.352159468438538,0.7959246120416725
8.372093023255815,0.7927575587252867
8.392026578073091,0.789270958021745
8.411960132890366,0.7854730775157831
8.43189368770764,0.781373103387178
8.451827242524917,0.7769811487169735
8.471760797342194,0.7723082620640094
8.491694352159469,0.7673664361623563
8.511627906976745,0.7621686165548598
8.53156146179402,0.7567287099339899
8.551495016611296,0.7510615919107605
8.571428571428573,0.7451831138741616
8.591362126245848,0.7391101085350648
8.611295681063122,0.73286039367261
8.6312292358804,0.72645277351343
8.651162790697676,0.7199070370784002
8.67109634551495,0.7132439527253354
8.691029900332227,0.7064852580026839
8.710963455149502,0.699653643809105
8.730897009966778,0.6927727317307345
8.750830564784053,0.6858670433065204
8.77076411960133,0.6789619598569622
8.790697674418604,0.6720836714126206
8.81063122923588,0.665259113203688
8.830564784053157,0.6585158881336421
8.850498338870432,0.6518821736725849
8.870431893687707,0.6453866116832377
8.890365448504983,0.6390581798527494
8.91029900332226,0.632926043661543
8.930232558139535,0.6270193881916943
8.950166112956811,0.6213672295722911
8.970099667774086,0.615998206484008
8.990033222591363,0.6109403528955085
9.00996677740864,0.6062208540670591
9.029900332225914,0.6018657888036834
9.049833887043189,0.5978998619303603
9.069767441860467,0.5943461319386456
9.089700996677742,0.5912257396497991
9.109634551495017,0.5885576444780609
9.129568106312293,0.5863583753813321
9.14950166112957,0.5846418037840588
9.169435215946844,0.5834189455943203
9.189368770764121,0.5826977988819877
9.209302325581396,0.5824832228391509
9.22923588039867,0.5827768623440065
9.249169435215949,0.5835771208639516
9.269102990033224,0.5848791826648365
9.289036544850498,0.5866750834578369
9.308970099667773,0.5889538268415915
9.328903654485051,0.5917015423030523
9.348837209302326,0.5949016792278823
9.368770764119601,0.5985352304102044
9.388704318936878,0.6025809779802802
9.408637873754152,0.6070157544889951
9.428571428571429,0.6118147120698398
9.448504983388705,0.6169515930884188
9.46843853820598,0.6223989964164895
9.488372093023255,0.6281286343537417
9.508305647840533,0.6341115761905903
9.528239202657808,0.640318475391823
9.548172757475083,0.6467197783255862
9.56810631229236,0.6532859133249749
9.588039867109636,0.6599874596218523
9.60797342192691,0.6667952963191797
9.627906976744187,0.6736807320670433
9.647840531561462,0.6806156164819226
9.667774086378738,0.6875724346111645
9.687707641196015,0.6945243859078845
9.70764119601329,0.7014454492633281
9.727574750830565,0.7083104356586186
9.747508305647841,0.715095029963236
9.767441860465118,0.7217758233346295
9.787375415282392,0.7283303375768126
9.807308970099669,0.7347370427029131
9.827242524916944,0.7409753688262561
9.84717607973422,0.7470257133836745
9.867109634551497,0.7528694445752003
9.887043189368772,0.7584889017920982
9.906976744186046,0.7638673937002717
9.926910299003321,0.7689891945502781
9.9468438538206,0.77383953919976
9.966777408637874,0.7784046172571505
9.986710963455149,0.7826715666893563
10.006644518272426,0.7866284671776438
10.026578073089702,0.7902643334563512
10.046511627906977,0.793569108826788
10.066445182724253,0.7965336590028016
10.086378737541528,0.7991497664149647
10.106312292358805,0.8014101250757657
10.126245847176081,0.8033083360881246
10.146179401993356,0.804838903863473
10.16611295681063,0.8059972331028975
10.186046511627907,0.8067796265848352
10.205980066445184,0.807183283794958
10.225913621262459,0.8072063004282639
10.245847176079735,0.8068476687889989
10.26578073089701,0.806107279110574
10.285714285714286,0.8049859218155458
10.305647840531563,0.8034852907331758
10.325581395348838,0.8016079872904551
10.345514950166113,0.7993575256899346
10.36544850498339,0.7967383390847992
10.385382059800666,0.793755786757656
10.40531561461794,0.7904161623040031
10.425249169435217,0.7867267028138372
10.445182724252492,0.7826955990348773
10.465116279069768,0.778332006487806
10.485049833887045,0.7736460574868658
10.50498338870432,0.7686488739974361
10.524916943521594,0.7633525812349128
10.544850498338871,0.7577703218753328
10.564784053156147,0.7519162707063456
10.584717607973422,0.7458056494963495
10.604651162790697,0.7394547417984435
10.624584717607974,0.7328809073324707
10.64451827242525,0.7261025955025179
10.664451827242525,0.7191393575057373
10.684385382059801,0.7120118563716302
