Time (s),Filtered Signal
0.0,-0.0008723074347013703
0.03337004405286344,-0.011036418162203398
0.06674008810572687,0.04748039878266143
0.10011013215859031,0.21008965772828447
0.13348017621145375,0.460534252574703
0.16685022026431717,0.7355313858984714
0.20022026431718062,0.9504649366362689
0.23359030837004408,1.0346969125678047
0.2669603524229075,0.9608261223126785
0.3003303964757709,0.7552005382084078
0.33370044052863435,0.48579722061281866
0.3670704845814978,0.23393430372784332
0.40044052863436125,0.0631310961197608
0.43381057268722467,-0.0013900936908060482
0.46718061674008815,0.024754180211217076
0.5005506607929515,0.09882834847746276
0.533920704845815,0.17216273846416857
0.5672907488986785,0.20818215006536087
0.6006607929515418,0.1903838467702694
0.6340308370044053,0.11990066127256993
0.6674008810572687,0.007638718899804321
0.7007709251101322,-0.13264556908704833
0.7341409691629956,-0.2866636467878402
0.767511013215859,-0.43804881409180424
0.8008810572687225,-0.5667064471543735
0.834251101321586,-0.6506391461755214
0.8676211453744493,-0.6719062982937144
0.9009911894273128,-0.6239374610429327
0.9343612334801763,-0.5158504248864448
0.9677312775330397,-0.3707402513901145
1.001101321585903,-0.21818678596755706
1.0344713656387665,-0.0843651557735277
1.06784140969163,0.01571989963525069
1.1012114537444935,0.08069333425468642
1.134581497797357,0.11958148723778288
1.1679515418502202,0.14512011244374665
1.2013215859030837,0.16699121605379588
1.2346916299559472,0.18785750867559112
1.2680616740088106,0.20342968122797764
1.3014317180616741,0.2059429125709036
1.3348017621145374,0.18906626860833786
1.3681718061674009,0.1518306353855682
1.4015418502202643,0.0997349456671139
1.4349118942731278,0.04257122473478177
1.4682819383259913,-0.009837345537222361
1.5016519823788548,-0.05164296548830016
1.535022026431718,-0.08243632803804266
1.5683920704845815,-0.10528091925381541
1.601762114537445,-0.12251327144355938
1.6351321585903085,-0.1320338434989547
1.668502202643172,-0.12674746551220237
1.7018722466960352,-0.09803627584633944
1.7352422907488987,-0.04165850665418418
1.7686123348017622,0.037224623171953464
1.8019823788546256,0.12303556107404542
1.8353524229074891,0.19398380463958514
1.8687224669603526,0.23003779897720322
1.9020925110132159,0.2212348804335762
1.9354625550660793,0.17253902038362418
1.9688325991189428,0.10285693476504057
2.002202643171806,0.038337730982726734
2.0355726872246698,0.0025917490224152606
2.068942731277533,0.007846631784911521
2.1023127753303967,0.05067423415884277
2.13568281938326,0.11393772794476129
2.1690528634361232,0.17394008592035307
2.202422907488987,0.20961706401536787
2.23579295154185,0.20992778415784547
2.269162995594714,0.1765769238408649
2.302533039647577,0.12135004750725782
2.3359030837004404,0.05969574729643085
2.369273127753304,0.0037274120185233858
2.4026431718061674,-0.042128530469553636
2.436013215859031,-0.08106746657414941
2.4693832599118943,-0.11992602072646619
2.5027533039647576,-0.16373369045237512
2.5361233480176213,-0.21185014141551053
2.5694933920704845,-0.2576963987612905
2.6028634361233483,-0.29199302210281614
2.6362334801762115,-0.3074607580720044
2.6696035242290748,-0.3022166351278384
2.7029735682819385,-0.27998999781534256
2.7363436123348017,-0.2472326235290832
2.7697136563876654,-0.20904064784193993
2.8030837004405287,-0.16646076873204188
2.8364537444933924,-0.11685764775768474
2.8698237885462556,-0.05712870521805542
2.903193832599119,0.012214214019282727
2.9365638766519826,0.08469100329676899
2.969933920704846,0.1489125838557964
3.0033039647577096,0.1927902393966392
3.036674008810573,0.20874226674567123
3.070044052863436,0.1970456704261523
3.1034140969162998,0.1654685310792909
3.136784140969163,0.12547236429445507
3.1701541850220267,0.08727764183118311
3.20352422907489,0.056642110387410606
3.2368942731277532,0.034927871798341815
3.270264317180617,0.021776972083823013
3.30363436123348,0.018005547462879044
3.337004405286344,0.02632529625562943
3.370374449339207,0.04919821959424929
3.4037444933920704,0.08534790084166723
3.437114537444934,0.12764278285714004
3.4704845814977974,0.1643675438018705
3.503854625550661,0.18370876720529294
3.5372246696035243,0.17901956481502235
3.5705947136563876,0.15161781416388798
3.6039647577092513,0.10915415477889885
3.6373348017621145,0.06027610275546128
3.6707048458149782,0.008792464121800049
3.7040748898678415,-0.04877742601448735
3.737444933920705,-0.12008310850698695
3.7708149779735685,-0.20933395551396025
3.8041850220264317,-0.3093381869538203
3.8375550660792954,-0.39834886839704425
3.8709251101321587,-0.44501584742048067
3.9042951541850224,-0.42065766607931143
3.9376651982378856,-0.31374066775549403
3.971035242290749,-0.1392910911345968
4.004405286343612,0.06248758983099484
4.037775330396476,0.23922913007896449
4.0711453744493395,0.3460048175735503
4.104515418502203,0.36276672272389116
4.137885462555066,0.30153764933274163
4.171255506607929,0.20002671542696907
4.2046255506607935,0.10475572954901897
4.237995594713657,0.051516974601883064
4.27136563876652,0.051802882944739115
4.304735682819383,0.09064846332794638
4.3381057268722465,0.13594197272398262
4.371475770925111,0.15431267398437393
4.404845814977974,0.1263012566846022
4.438215859030837,0.0544176461770864
4.4715859030837,-0.03880845546281202
4.504955947136564,-0.12126853222655638
4.538325991189428,-0.16527622298846423
4.571696035242291,-0.15910193016530674
4.605066079295154,-0.1114772677861564
4.638436123348018,-0.04766698506883591
4.671806167400881,0.0008869454847796115
4.705176211453745,0.009029589958370198
4.738546255506608,-0.032368098818416874
4.7719162995594715,-0.1129746615548011
4.805286343612335,-0.20699917444460234
4.838656387665198,-0.2829782849752293
4.872026431718062,-0.3155181626409521
4.905396475770925,-0.2943864874410152
4.938766519823789,-0.2273898659576272
4.972136563876652,-0.13604692695238002
5.005506607929515,-0.04615314223569565
5.038876651982379,0.02247436622926402
5.072246696035243,0.0625744532547114
5.105616740088106,0.07975682597776751
5.138986784140969,0.08704890593984796
5.172356828193832,0.09685711988480228
5.2057268722466965,0.11449750903483258
5.23909691629956,0.1363182458206683
5.272466960352423,0.15290217831960667
5.305837004405286,0.15526344578168724
5.3392070484581495,0.1406192701974634
5.372577092511014,0.11478648283914267
5.405947136563877,0.09013909409181692
5.43931718061674,0.08031081582124519
5.4726872246696034,0.09429115422203807
5.506057268722468,0.13260078762686564
5.539427312775331,0.18697962436505797
5.572797356828194,0.24325865589198872
5.606167400881057,0.2857676608850696
5.639537444933921,0.3013544945816216
5.672907488986785,0.28181379214657026
5.706277533039648,0.22465717240672742
5.739647577092511,0.1329764067396849
5.7730176211453745,0.015218591571701835
5.806387665198238,-0.11492412047667633
5.839757709251102,-0.23911516819725678
5.873127753303965,-0.3364456663534444
5.9064977973568284,-0.38751971876967256
5.939867841409692,-0.3799612542564577
5.973237885462555,-0.31354106446425645
6.006607929515419,-0.2026099206534859
6.039977973568282,-0.07414510470486088
6.073348017621146,0.03871372183917572
6.106718061674009,0.10593787525141933
6.140088105726872,0.10970319240895436
6.173458149779736,0.05010493957938576
6.2068281938325995,-0.05470510032220227
6.240198237885463,-0.17423939944103717
6.273568281938326,-0.2753596552566185
6.306938325991189,-0.3324775519813909
6.3403083700440535,-0.33461455883259095
6.373678414096917,-0.2869719840710628
6.40704845814978,-0.20692290830568125
6.440418502202643,-0.11650110023342536
6.4737885462555065,-0.0345548734496719
6.507158590308371,0.028618065813534613
6.540528634361234,0.07275656797323557
6.573898678414097,0.10549429802610344
6.60726872246696,0.1379617727352345
6.640638766519824,0.17980451056308264
6.674008810572688,0.23499113075127942
6.707378854625551,0.2993278398722409
6.740748898678414,0.3602738957713105
6.774118942731278,0.3994255729846869
6.807488986784141,0.3976221936017029
6.840859030837005,0.34180476014548955
6.874229074889868,0.2316651215917342
6.9075991189427315,0.08333706735322653
6.940969162995595,-0.07235991666554345
6.974339207048458,-0.1979179822205099
7.007709251101322,-0.26144241307696514
7.041079295154185,-0.24876977909206738
7.074449339207049,-0.17003789606881983
7.107819383259912,-0.05703342183965082
7.141189427312775,0.04849962141080861
7.174559471365639,0.11109127163613189
7.207929515418503,0.11526183571274311
7.241299559471366,0.07039819652553934
7.274669603524229,0.004402442486241863
7.308039647577092,-0.05090778247176226
7.3414096916299565,-0.0755250711418239
7.37477973568282,-0.07026871000694983
7.408149779735683,-0.05454151025101364
7.441519823788546,-0.054057258188949506
7.47488986784141,-0.08508653060190714
7.508259911894274,-0.14370562596441225
7.541629955947137,-0.20588652837419608
7.575,-0.23840080380935733
7.608370044052863,-0.2147109130578675
7.641740088105728,-0.12757547548027665
7.675110132158591,0.0077105579084125525
7.708480176211454,0.16015695656335682
7.741850220264317,0.29544804063094227
7.775220264317181,0.3871199950740279
7.808590308370045,0.4217006073017737
7.841960352422908,0.39731978700374526
7.875330396475771,0.31917207133476955
7.9087004405286345,0.1962039695774785
7.942070484581498,0.04118379928737863
7.975440528634362,-0.12724596086123804
8.008810572687224,-0.28413489236715483
8.042180616740088,-0.40222672953441435
8.075550660792953,-0.4600109035609953
8.108920704845815,-0.45011363637980356
8.142290748898679,-0.3832368056192809
8.175660792951541,-0.2848088931936704
8.209030837004406,-0.1853063518507169
8.24240088105727,-0.10856216288223539
8.275770925110132,-0.06342883812913412
8.309140969162996,-0.04245423914324814
8.342511013215859,-0.027796276726667297
8.375881057268723,-0.0012481564204775578
8.409251101321587,0.046441638604801626
8.44262114537445,0.11113305902233195
8.475991189427313,0.1774238168019281
8.509361233480176,0.22593907006007807
8.54273127753304,0.24213953660722468
8.576101321585904,0.2225800232069912
8.609471365638766,0.1760090753822362
8.64284140969163,0.11924441893859852
8.676211453744493,0.07012875815493119
8.709581497797357,0.04096320924393681
8.742951541850221,0.035208453877120155
8.776321585903084,0.04837286821991557
8.809691629955948,0.07190861342976315
8.84306167400881,0.09768299765119987
8.876431718061674,0.12072935875575085
8.909801762114538,0.13928099562239896
8.9431718061674,0.1527393695671653
8.976541850220265,0.159311826322646
9.009911894273127,0.15505334249339178
9.043281938325991,0.13506198698960176
9.076651982378856,0.09622048477164993
9.110022026431718,0.039912318107138536
9.143392070484582,-0.02691849689522781
9.176762114537445,-0.09315167222727745
9.210132158590309,-0.1468542540037165
9.243502202643173,-0.17918668454200673
9.276872246696035,-0.1872092786117707
9.3102422907489,-0.17453240755717045
9.343612334801762,-0.14972835110162117
9.376982378854626,-0.12325921080602463
9.41035242290749,-0.1040535700792768
9.443722466960352,-0.09680044243812695
9.477092511013216,-0.10073127729899818
9.510462555066079,-0.11028488778362043
9.543832599118943,-0.11758967444254563
9.577202643171807,-0.11610219726902216
9.61057268722467,-0.10412067925492556
9.643942731277534,-0.08657606815411516
9.677312775330396,-0.07385589585244641
9.71068281938326,-0.07752532573832147
9.744052863436124,-0.10430347883877591
9.777422907488987,-0.15082019890570855
9.81079295154185,-0.20184245198775116
9.844162995594713,-0.23356294581366516
9.877533039647577,-0.22151111291198733
9.910903083700441,-0.15047231724628132
9.944273127753304,-0.022446300682903778
9.977643171806168,0.141111257255717
10.01101321585903,0.3045678182802127
10.044383259911895,0.42963967591490315
10.077753303964759,0.488966339506705
10.111123348017621,0.4761875894657013
10.144493392070485,0.4080386691947595
10.177863436123348,0.3171749781278047
10.211233480176212,0.23842801744385514
10.244603524229076,0.19418958090819588
10.277973568281938,0.1852229687007624
10.311343612334802,0.19104035586589102
10.344713656387665,0.17990425873958527
10.378083700440529,0.12423431265719119
10.411453744493393,0.014639475532150694
10.444823788546255,-0.1337939492161815
10.47819383259912,-0.2859875952660439
10.511563876651982,-0.4003274299347775
10.544933920704846,-0.4452113532386009
10.57830396475771,-0.41144923160823377
10.611674008810573,-0.31529257644525566
10.645044052863437,-0.19123403594120492
10.678414096916299,-0.07825008230021137
10.711784140969163,-0.005692547521913589
10.745154185022027,0.015478104678563726
10.77852422907489,-0.006572480012321872
10.811894273127754,-0.050785684509393775
10.845264317180618,-0.09272615756329568
10.87863436123348,-0.1132186023504261
10.912004405286345,-0.10333692362499823
10.945374449339207,-0.06509118913105894
10.978744493392071,-0.008802077723705698
11.012114537444935,0.051214744786081165
11.045484581497798,0.10120166631168231
11.078854625550662,0.13172295018900612
11.112224669603524,0.1399217997960549
11.145594713656388,0.12975896813243798
11.178964757709252,0.11006509691029814
11.212334801762115,0.09086927671818568
11.245704845814979,0.0792260885498687
11.279074889867841,0.07623240953061197
11.312444933920705,0.07668771765731108
11.34581497797357,0.07181606936448415
11.379185022026432,0.05401992446290943
11.412555066079296,0.02149591970903445
11.445925110132158,-0.01961719351252878
11.479295154185023,-0.05685602373555882
11.512665198237887,-0.07632536291664237
11.546035242290749,-0.06873438588686118
11.579405286343613,-0.033825804275819826
11.612775330396476,0.018807862563788132
11.64614537444934,0.07283163135158907
11.679515418502204,0.11078392919312202
11.712885462555066,0.11989428621928509
11.74625550660793,0.09603968665070657
11.779625550660793,0.04478529311821257
11.812995594713657,-0.020455948444987784
11.846365638766521,-0.08241764744883125
11.879735682819383,-0.1251008885635881
11.913105726872248,-0.13879250897401704
11.94647577092511,-0.12350903607785838
11.979845814977974,-0.08938186429706362
12.013215859030838,-0.05317375102231631
12.0465859030837,-0.03159670191891746
12.079955947136565,-0.03383131095879867
12.113325991189427,-0.056613365207279144
12.146696035242291,-0.08463379399214453
12.180066079295155,-0.09678335086830554
12.213436123348018,-0.07591370272965543
12.246806167400882,-0.017750500654810705
12.280176211453744,0.06542476460803176
12.313546255506608,0.14849647153392015
12.346916299559473,0.20334812506188826
12.380286343612335,0.21051363708497542
12.413656387665199,0.16737574708430927
12.447026431718061,0.08923130124815334
12.480396475770926,0.0028990655755517115
12.51376651982379,-0.06405393228661081
12.547136563876652,-0.09363010219764469
12.580506607929516,-0.08303833048626946
12.613876651982379,-0.043883104456096673
12.647246696035243,0.00393239723338687
12.680616740088107,0.04042240574738459
12.71398678414097,0.05234098133574969
12.747356828193833,0.036275816555889344
12.780726872246696,-0.0023821688931387596
12.81409691629956,-0.05323128052991919
12.847466960352424,-0.1051882895811904
12.880837004405286,-0.14940296374740528
12.91420704845815,-0.17994977457006253
12.947577092511013,-0.19286637223704492
12.980947136563877,-0.18499442218040307
13.014317180616741,-0.15399767628725308
13.047687224669604,-0.0999323217028574
13.081057268722468,-0.02742297879006137
13.11442731277533,0.05330197757152118
13.147797356828194,0.12795348856082447
13.181167400881058,0.18239271183338948
13.21453744493392,0.20794501722175218
13.247907488986785,0.2052758065772127
13.281277533039647,0.18463402219919736
13.314647577092511,0.16186051159111087
13.348017621145376,0.1516242112730221
13.381387665198238,0.16083714541160476
13.414757709251102,0.18531435963414997
13.448127753303964,0.21135586361859848
13.481497797356829,0.22165510125609977
13.514867841409693,0.20287265033545976
13.548237885462555,0.1513826882707151
13.58160792951542,0.0745482432304798
13.614977973568282,-0.01296891030393672
13.648348017621146,-0.095940951684173
13.68171806167401,-0.16493751568320142
13.715088105726872,-0.21911858891549607
13.748458149779736,-0.26411679141585465
13.781828193832599,-0.30629119323347587
13.815198237885463,-0.34667128328221797
13.848568281938327,-0.37821638025250304
13.88193832599119,-0.38829495650683926
13.915308370044054,-0.36535929927746646
13.948678414096916,-0.3062484309007694
13.98204845814978,-0.2199064090761372
14.015418502202644,-0.12506002902180915
14.048788546255507,-0.04266718210304868
14.08215859030837,0.013114376995485025
14.115528634361233,0.04078265369531639
14.148898678414097,0.051175193571283376
14.182268722466961,0.06125400415501909
14.215638766519824,0.08530715353157589
14.249008810572688,0.12807009785208404
14.28237885462555,0.18307035394245882
14.315748898678414,0.23668192121573398
14.349118942731279,0.2754967035356954
14.382488986784141,0.29313547694386916
14.415859030837005,0.29314214926358284
14.449229074889868,0.28668805366780503
14.482599118942732,0.2863278515888513
14.515969162995596,0.2988264688726835
14.549339207048458,0.3204342013247907
14.582709251101322,0.3369072167795368
14.616079295154185,0.3285699022079183
14.649449339207049,0.27857615249834927
14.682819383259913,0.18104144253467494
14.716189427312775,0.045486139545158594
14.74955947136564,-0.10472646414769334
14.782929515418502,-0.23987732105359308
14.816299559471366,-0.33456197725608533
14.84966960352423,-0.37707861463800074
14.883039647577093,-0.3732655216087961
14.916409691629957,-0.34280782565810786
14.94977973568282,-0.3095080870134147
14.983149779735683,-0.2900211213600388
15.016519823788547,-0.28649665527062296
15.04988986784141,-0.2868065984587073
15.083259911894274,-0.2723052972199003
15.116629955947138,-0.22923187712876328
15.15,-0.15791603852545016
15.183370044052865,-0.07494483156189741
15.216740088105727,-0.006897210618396142
15.250110132158591,0.021598806087571292
15.283480176211455,-5.863841150940396e-05
15.316850220264318,-0.06191221452576595
15.350220264317182,-0.13563071098786622
15.383590308370044,-0.1847066213970405
15.416960352422908,-0.17847972502474407
15.450330396475772,-0.10421336864962227
15.483700440528635,0.02766564425880194
15.517070484581499,0.18720010152538707
15.550440528634361,0.3358949178018487
15.583810572687225,0.4407380697437043
15.61718061674009,0.48583827200939145
15.650550660792952,0.4772123161538276
15.683920704845816,0.43883184290759863
15.717290748898678,0.40137373454331
15.750660792951543,0.3880744081041184
15.784030837004407,0.4035305252602107
15.817400881057269,0.4304581838095568
15.850770925110133,0.43635560318843297
15.884140969162996,0.3877508723050252
15.91751101321586,0.2660565856573562
15.950881057268724,0.07783181707088015
15.984251101321586,-0.14560705564723325
16.01762114537445,-0.3594601596138354
16.050991189427315,-0.5225555597903657
16.084361233480177,-0.6122914539123023
16.11773127753304,-0.6305176568883435
16.151101321585905,-0.5981963319432198
16.184471365638768,-0.5424571375367241
16.21784140969163,-0.4832778732662553
16.251211453744492,-0.4265644425992851
16.284581497797358,-0.3663374836419628
16.31795154185022,-0.293517058405087
16.351321585903083,-0.2053785403792676
16.38469162995595,-0.1098946304523458
16.41806167400881,-0.022563957311382384
16.451431718061674,0.042128731575047415
16.48480176211454,0.07937230249418538
16.518171806167402,0.09756358510442067
16.551541850220264,0.11445555358270175
16.584911894273127,0.1478623855793319
16.618281938325993,0.2059163074247727
16.651651982378855,0.2821091572538883
16.685022026431717,0.3577192783098869
16.718392070484583,0.4102605043382925
16.751762114537446,0.42351956741755176
16.785132158590308,0.3941971285039202
16.818502202643174,0.3322638212100903
16.851872246696036,0.25553585938797513
16.8852422907489,0.18172339202751955
16.91861233480176,0.12193831143852578
16.951982378854627,0.078276108471949
16.98535242290749,0.04567073892570644
17.01872246696035,0.01619582615345718
17.052092511013218,-0.016707294447460722
17.08546255506608,-0.05591108875112439
17.118832599118942,-0.10063697558583183
17.152202643171808,-0.14803544022454307
