Frequency (Hz),Amplitude
0.0,0.8239913047836736
0.019867549668874173,0.8242902045168986
0.039735099337748346,0.8251850450905958
0.059602649006622516,0.8266702756068612
0.07947019867549669,0.8287367270265368
0.09933774834437085,0.8313717330701166
0.11920529801324503,0.8345592940805437
0.13907284768211922,0.8382802788333688
0.15894039735099338,0.842512658355162
0.17880794701986755,0.8472317652041675
0.1986754966887417,0.8524105713853888
0.2185430463576159,0.8580199781033973
0.23841059602649006,0.8640291108624001
0.2582781456953642,0.8704056139577672
0.27814569536423844,0.8771159391058276
0.2980132450331126,0.8841256237713647
0.31788079470198677,0.8913995556154453
0.33774834437086093,0.8989022203512954
0.3576158940397351,0.9065979311199375
0.3774834437086093,0.9144510382504099
0.3973509933774834,0.9224261189306525
0.4172185430463576,0.9304881468732965
0.4370860927152318,0.9386026425129743
0.45695364238410596,0.9467358046213095
0.4768211920529801,0.9548546244803922
0.49668874172185434,0.9629269839257915
0.5165562913907285,0.970921738668391
0.5364238410596026,0.978808788343075
0.5562913907284769,0.9865591347236181
0.5761589403973509,0.9941449294985365
0.5960264900662252,1.0015395129317957
0.6158940397350993,1.0087174446438045
0.6357615894039735,1.0156545276488758
0.6556291390728477,1.0223278266813964
0.6754966887417219,1.0287156817376517
0.695364238410596,1.0347977176582872
0.7152317880794702,1.0405548504785598
0.7350993377483444,1.0459692911824654
0.7549668874172186,1.0510245474128672
0.7748344370860927,1.0557054236134995
0.7947019867549668,1.0599980200101569
0.8145695364238411,1.06388973077754
0.8344370860927152,1.0673692416841059
0.8543046357615894,1.0704265274604121
0.8741721854304636,1.073052849094823
0.8940397350993378,1.0752407512249473
0.9139072847682119,1.076984059761776
0.9337748344370861,1.0782778798565709
0.9536423841059603,1.0791185942968502
0.9735099337748344,1.079503862396871
0.9933774834437087,1.0794326194293693
1.0132450331125828,1.0789050766281345
1.033112582781457,1.0779227217748524
1.0529801324503312,1.0764883203679754
1.0728476821192052,1.074605917355422
1.0927152317880795,1.0722808393965222
1.1125827814569538,1.0695196976005954
1.1324503311258278,1.0663303906699841
1.1523178807947019,1.0627221083530107
1.1721854304635762,1.0587053350872446
1.1920529801324504,1.0542918536841306
1.2119205298013245,1.0494947488727242
1.2317880794701985,1.0443284104815913
1.2516556291390728,1.0388085359935597
1.271523178807947,1.0329521321571005
1.2913907284768211,1.0267775152804486
1.3112582781456954,1.020304309768919
1.3311258278145695,1.0135534443927967
1.3509933774834437,1.0065471456917834
1.370860927152318,0.9993089278327671
1.390728476821192,0.9918635781413553
1.410596026490066,0.984237137425162
1.4304635761589404,0.9764568740997223
1.4503311258278146,0.9685512510199961
1.4701986754966887,0.9605498838136797
1.4900662251655628,0.9524834894139875
1.5099337748344372,0.944383823403236
1.5298013245033113,0.936283604714777
1.5496688741721854,0.9282164262062315
1.5695364238410596,0.9202166496251168
1.5894039735099337,0.9123192835482041
1.609271523178808,0.9045598430036196
1.6291390728476822,0.8969741896907442
1.6490066225165563,0.8895983520110013
1.6688741721854303,0.8824683245219663
1.6887417218543048,0.8756198469342874
1.7086092715231789,0.8690881633872173
1.728476821192053,0.8629077634573256
1.7483443708609272,0.8571121071609475
1.7682119205298013,0.8517333370792585
1.7880794701986755,0.8468019816284121
1.8079470198675496,0.8423466543694473
1.8278145695364238,0.8383937550481756
1.847682119205298,0.834967178712799
1.8675496688741722,0.8320880397145685
1.8874172185430464,0.8297744175979508
1.9072847682119205,0.828041131785532
1.9271523178807946,0.8268995515317069
1.9470198675496688,0.8263574468535358
1.9668874172185429,0.8264188850676693
1.9867549668874174,0.8270841762170287
2.0066225165562916,0.8283498691313086
2.0264900662251657,0.8302087982211818
2.0463576158940397,0.8326501794559336
2.066225165562914,0.8356597524194995
2.086092715231788,0.839219963970183
2.1059602649006623,0.8433101879186964
2.1258278145695364,0.8479069743383214
2.1456953642384105,0.8529843216527302
2.165562913907285,0.8585139645103866
2.185430463576159,0.8644656706226295
2.205298013245033,0.8708075401728378
2.2251655629139075,0.8775063020394138
2.2450331125827816,0.8845276018557244
2.2649006622516556,0.8918362777926919
2.2847682119205297,0.8993966208399586
2.3046357615894038,0.9071726172303961
2.324503311258278,0.9151281714638622
2.3443708609271523,0.9232273091123638
2.364238410596027,0.9314343592139929
2.384105960264901,0.9397141165806909
2.403973509933775,0.9480319847542
2.423841059602649,0.9563541006527292
2.443708609271523,0.964647442166347
2.463576158940397,0.9728799200947189
2.4834437086092715,0.9810204558887303
2.5033112582781456,0.9890390466713287
2.52317880794702,0.9969068189839299
2.543046357615894,1.0045960726442813
2.562913907284768,1.012080316019233
2.5827814569536423,1.0193342939189722
2.6026490066225163,1.0263340092150333
2.622516556291391,1.0330567391768195
2.642384105960265,1.039481047415793
2.662251655629139,1.045586792223991
2.6821192052980134,1.0513551319976069
2.7019867549668874,1.0567685283470492
2.7218543046357615,1.0618107474135587
2.741721854304636,1.0664668598389138
2.76158940397351,1.0707232397692106
2.781456953642384,1.0745675632155647
2.801324503311258,1.0779888060434728
2.821192052980132,1.080977241818141
2.8410596026490067,1.0835244396941528
2.8609271523178808,1.0856232625043702
2.8807947019867552,1.0872678651737628
2.9006622516556293,1.0884536935586506
2.9205298013245033,1.0891774837896047
2.9403973509933774,1.0894372621768085
2.9602649006622515,1.0892323457188646
2.9801324503311255,1.0885633432398978
3.0,1.0874321571640393
3.0198675496688745,1.0858419859211346
3.0397350993377485,1.083797326961646
3.0596026490066226,1.081303980341916
3.0794701986754967,1.0783690528226337
3.0993377483443707,1.075000962402724
3.119205298013245,1.071209443187341
3.1390728476821192,1.0670055504619032
3.1589403973509933,1.0624016658126945
3.1788079470198674,1.0574115020985648
3.198675496688742,1.0520501080363551
3.218543046357616,1.046333872114661
3.23841059602649,1.0402805254950067
3.2582781456953644,1.0339091434966008
3.2781456953642385,1.0272401451893887
3.2980132450331126,1.0202952905402314
3.3178807947019866,1.013097674467986
3.3377483443708607,1.00567171706622
3.3576158940397347,0.998043149146888
3.3774834437086096,0.9902389921466371
3.3973509933774837,0.9822875313214058
3.4172185430463577,0.9742182810375942
3.437086092715232,0.9660619408536474
3.456953642384106,0.9578503409803448
3.47682119205298,0.9496163756180975
3.4966887417218544,0.9413939226044978
3.5165562913907285,0.9332177477753739
3.5364238410596025,0.9251233924601897
3.556291390728477,0.9171470426108848
3.576158940397351,0.9093253782165924
3.596026490066225,0.901695401899421
3.615894039735099,0.8942942459310267
3.6357615894039736,0.8871589573672138
3.6556291390728477,0.8803262615730556
3.6754966887417218,0.873832305104312
3.695364238410596,0.8677123797120868
3.7152317880794703,0.8620006301279626
3.7350993377483444,0.8567297492345411
3.754966887417219,0.8519306651881767
3.774834437086093,0.8476322259826655
3.794701986754967,0.8438608877614744
3.814569536423841,0.8406404138335476
3.834437086092715,0.8379915917579999
3.854304635761589,0.8359319759762117
3.8741721854304636,0.8344756632425279
3.8940397350993377,0.8336331075147653
3.9139072847682117,0.8334109800170313
3.9337748344370858,0.8338120789146574
3.9536423841059607,0.8348352915057546
3.9735099337748347,0.8364756101235291
3.993377483443709,0.8387242011604447
4.013245033112583,0.841568524880642
4.033112582781457,0.844992502086591
4.052980132450331,0.848976722342585
4.072847682119205,0.8534986874015434
4.0927152317880795,0.8585330827752867
4.112582781456953,0.8640520700455848
4.132450331125828,0.8700255925189976
4.152317880794702,0.8764216871456447
4.172185430463576,0.883206796195091
4.19205298013245,0.8903460729471516
4.211920529801325,0.8978036765438789
4.231788079470199,0.9055430520962666
4.251655629139073,0.9135271930888179
4.271523178807947,0.9217188840300147
4.291390728476821,0.9300809221224677
4.311258278145695,0.9385763174501064
4.33112582781457,0.9471684717889585
4.3509933774834435,0.9558213366397529
4.370860927152318,0.964499551458459
4.390728476821192,0.9731685633342597
4.410596026490066,0.9817947295451134
4.43046357615894,0.9903454045227549
4.450331125827815,0.9987890127964048
4.470198675496689,1.0070951094701346
4.490066225165563,1.0152344297364186
4.509933774834438,1.0231789288478184
4.529801324503311,1.0309018138699924
4.549668874172186,1.038377568429435
4.569536423841059,1.0455819715550603
4.589403973509934,1.0524921115979702
4.6092715231788075,1.0590863961028434
4.629139072847682,1.0653445583986179
4.649006622516556,1.0712476615782296
4.66887417218543,1.0767781004469656
4.688741721854305,1.0819196019378872
4.708609271523179,1.086657224419743
4.728476821192054,1.0909773562584588
4.748344370860927,1.0948677139365923
4.768211920529802,1.09831733998575
4.788079470198675,1.1013166009440256
4.80794701986755,1.1038571855136687
4.827814569536423,1.1059321030621445
4.847682119205298,1.107535682582415
4.867549668874172,1.1086635722044782
4.887417218543046,1.1093127393295317
4.9072847682119205,1.1094814714397645
4.927152317880794,1.1091693776204798
4.947019867549669,1.108377390815525
4.966887417218543,1.1071077708225712
4.986754966887418,1.1053641080197372
5.006622516556291,1.1031513277995488
5.026490066225166,1.1004756956695416
5.04635761589404,1.0973448229602012
5.066225165562914,1.093767673059579
5.086092715231788,1.089754568069561
5.105960264900662,1.0853171957503298
5.125827814569536,1.0804686165861503
5.14569536423841,1.0752232707670604
5.1655629139072845,1.0695969848356588
5.185430463576159,1.063606977695881
5.205298013245033,1.0572718656201234
5.225165562913908,1.0506116658218887
5.245033112582782,1.0436477980824481
5.264900662251656,1.0364030838312122
5.28476821192053,1.028901741981152
5.304635761589404,1.0211693807116347
5.324503311258278,1.0132329842735772
5.344370860927152,1.0051208937660374
5.364238410596027,0.9968627807028199
5.3841059602649,0.9884896120545177
5.403973509933775,0.9800336053217088
5.4238410596026485,0.9715281720743811
5.443708609271523,0.9630078482895756
5.463576158940397,0.954508209743844
5.483443708609272,0.9460657706814043
5.503311258278146,0.9377178639973288
5.52317880794702,0.929502501262474
5.543046357615895,0.921458211090369
5.562913907284768,0.9136238546218051
5.582781456953643,0.9060384172956262
5.602649006622516,0.8987407765955744
5.622516556291391,0.8917694461197035
5.642384105960264,0.8851622971088506
5.662251655629139,0.8789562594829161
5.682119205298013,0.8731870054437776
5.701986754966887,0.8678886197740401
5.7218543046357615,0.8630932620401629
5.741721854304636,0.858830826931776
5.7615894039735105,0.8551286098627047
5.781456953642384,0.8520109856445061
5.801324503311259,0.8494991084445935
5.821192052980132,0.8476106412927541
5.841059602649007,0.8463595230564467
5.860927152317881,0.845755780047265
5.880794701986755,0.8458053882619394
5.900662251655629,0.846510190748367
5.920529801324503,0.847867872800714
5.940397350993377,0.8498719957333739
5.960264900662251,0.8525120879842919
5.980132450331126,0.8557737903807249
6.0,0.8596390506834262
6.0198675496688745,0.8640863611076292
6.039735099337749,0.8690910314712805
6.059602649006623,0.8746254899797344
6.079470198675497,0.8806596034249148
6.099337748344371,0.8871610087277014
6.119205298013245,0.8940954482331676
6.139072847682119,0.9014271019100513
6.158940397350993,0.9091189105321605
6.178807947019867,0.917132884952381
6.198675496688741,0.9254303976497394
6.218543046357616,0.9339724537748503
6.23841059602649,0.9427199398934796
6.258278145695365,0.9516338494972255
6.2781456953642385,0.9606754850956561
6.298013245033113,0.9698066373164587
6.317880794701987,0.9789897419205512
6.337748344370861,0.9881880159957401
6.357615894039735,0.9973655748373206
6.377483443708609,1.0064875311729566
6.397350993377484,1.0155200784581238
6.417218543046357,1.024430559972948
6.437086092715232,1.0331875254072398
6.456953642384105,1.0417607765400634
6.47682119205298,1.0501214035157622
6.496688741721854,1.0582418130983835
6.516556291390729,1.0660957501594248
6.5364238410596025,1.0736583135249331
6.556291390728477,1.0809059671818735
6.5761589403973515,1.0878165477234316
6.596026490066225,1.0943692688007676
6.6158940397351,1.1005447232451717
6.635761589403973,1.1063248834314718
6.655629139072848,1.1116931003696147
6.675496688741721,1.1166341019373733
6.695364238410596,1.121133990602044
6.715231788079469,1.125180240922533
6.735099337748344,1.1287616970741468
6.754966887417219,1.1318685705966314
6.774834437086093,1.1344924385298187
6.794701986754967,1.13662624207082
6.814569536423841,1.1382642858603516
6.8344370860927155,1.1394022379836555
6.854304635761589,1.1400371307517791
6.874172185430464,1.1401673623124042
6.894039735099337,1.1397926991237695
6.913907284768212,1.1389142793113052
6.933774834437086,1.137534616912598
6.95364238410596,1.1356576070024573
6.973509933774834,1.1332885316749801
6.993377483443709,1.1304340668432213
7.013245033112583,1.1271022897985252
7.033112582781457,1.12330268745037
7.052980132450331,1.1190461651421422
7.072847682119205,1.1143450559093055
7.0927152317880795,1.1092131300108163
7.112582781456954,1.1036656045241593
7.132450331125828,1.0977191527454333
7.152317880794702,1.0913919130797243
7.172185430463576,1.0847034970407836
7.19205298013245,1.0776749959034775
7.211920529801324,1.070328985465213
7.231788079470198,1.0626895282741355
7.251655629139073,1.054782172571217
7.271523178807947,1.0466339470708164
7.291390728476822,1.0382733505701425
7.311258278145695,1.0297303352344624
7.33112582781457,1.0210362822527863
7.3509933774834435,1.0122239684039787
7.370860927152318,1.0033275219187447
7.390728476821192,0.9943823658777019
7.410596026490066,0.9854251472579418
7.430463576158941,0.9764936496422361
7.450331125827814,0.9676266875503052
7.470198675496689,0.9588639803564151
7.490066225165562,0.9502460038412628
7.509933774834438,0.9418138176072576
7.52980132450331,0.9336088668855149
7.549668874172186,0.9256727576986501
7.569536423841059,0.9180470049296252
7.589403973509934,0.9107727535936465
7.6092715231788075,0.9038904745145911
7.629139072847682,0.897439636659554
7.649006622516557,0.8914583595544198
7.66887417218543,0.8859830504478514
7.6887417218543055,0.8810480321473594
7.708609271523178,0.8766851686430464
7.728476821192054,0.87292349667293
7.748344370860927,0.8697888721734509
7.768211920529802,0.8673036410097581
7.788079470198675,0.8654863434144057
7.80794701986755,0.8643514611271602
7.827814569536423,0.8639092153028282
7.847682119205298,0.8641654218579912
7.8675496688741715,0.8651214091238346
7.887417218543046,0.8667740005608213
7.907284768211921,0.8691155630036193
7.927152317880795,0.8721341185905582
7.9470198675496695,0.8758135163422263
7.966887417218543,0.8801336574277505
7.986754966887418,0.8850707666066318
8.006622516556291,0.8905977012339157
8.026490066225167,0.8966842886012711
8.046357615894038,0.9032976822494321
8.066225165562914,0.9104027281853705
8.086092715231787,0.917962332601434
8.105960264900663,0.9259378236362195
8.125827814569536,0.9342893008449733
8.14569536423841,0.942975967270339
8.165562913907285,0.9519564402411648
8.185430463576159,0.9611890382114996
8.205298013245034,0.9706320420341914
8.225165562913906,0.9802439300103212
8.245033112582782,0.9899835868502654
8.264900662251655,0.9998104873186324
8.28476821192053,1.009684855820604
8.304635761589404,1.0195678035325666
8.324503311258278,1.0294214449028005
8.344370860927151,1.0392089954681927
8.364238410596027,1.0488948529681708
8.3841059602649,1.0584446637078744
8.403973509933774,1.0678253760443313
8.42384105960265,1.0770052827572323
8.443708609271523,1.0859540539321313
8.463576158940398,1.094642761838222
8.483443708609272,1.1030438991330724
8.503311258278146,1.1111313915786938
8.52317880794702,1.118880606311209
8.543046357615895,1.1262683565730385
8.562913907284768,1.1332729036936136
8.582781456953642,1.1398739569932717
8.602649006622515,1.1460526721849449
8.62251655629139,1.1517916487601645
8.642384105960264,1.1570749267681593
8.66225165562914,1.161887983329847
8.682119205298013,1.1662177291703508
8.701986754966887,1.1700525054043902
8.721854304635762,1.1733820807664934
8.741721854304636,1.176197649442885
8.76158940397351,1.1784918296314708
8.781456953642383,1.1802586629315472
8.801324503311259,1.181493614643375
8.821192052980132,1.182193575039866
8.841059602649008,1.1823568616568145
8.86092715231788,1.1819832226343678
8.880794701986755,1.1810738411294344
8.90066225165563,1.1796313408063726
8.920529801324504,1.1776597924005814
8.940397350993377,1.1751647213358098
8.960264900662251,1.1721531163608245
8.980132450331126,1.1686334391532247
9.0,1.1646156348173302
9.019867549668875,1.1601111431780977
9.039735099337747,1.155132910743101
9.059602649006623,1.1496954031689133
9.079470198675496,1.1438146180252269
9.099337748344372,1.1375080975992193
9.119205298013245,1.130794941422479
9.139072847682119,1.1236958181320524
9.158940397350994,1.1162329761945862
9.178807947019868,1.1084302529275074
9.198675496688743,1.1003130811419712
9.218543046357615,1.0919084926085754
9.23841059602649,1.0832451174087
9.258278145695364,1.0743531780810958
9.27814569536424,1.0652644773071698
9.298013245033111,1.056012377700852
9.317880794701987,1.0466317720841143
9.33774834437086,1.0371590424421215
9.357615894039736,1.0276320055708257
9.37748344370861,1.0180898432646794
9.397350993377483,1.0085730147552179
9.417218543046358,0.9991231490205167
9.437086092715232,0.989782914558037
9.456953642384107,0.9805958642726175
9.47682119205298,0.9716062533010864
9.496688741721854,0.9628588278987563
9.516556291390728,0.9543985839770748
9.536423841059603,0.9462704945234081
9.556291390728477,0.9385192059687953
9.57615894039735,0.9311887045992225
9.596026490066224,0.9243219553197404
9.6158940397351,0.9179605164480678
9.635761589403973,0.9121441356864931
9.655629139072847,0.9069103339240311
9.675496688741722,0.9022939849639441
9.695364238410596,0.8983269005460075
9.715231788079471,0.8950374310209953
9.735099337748345,0.892450092624229
9.754966887417218,0.8905852323857412
9.774834437086092,0.8894587412383246
9.794701986754967,0.8890818248136199
9.814569536423841,0.8894608397718242
9.834437086092716,0.8905972013690683
9.854304635761588,0.8924873654505852
9.874172185430464,0.895122885331677
9.894039735099337,0.8984905412761929
9.913907284768213,0.9025725376910544
9.933774834437086,0.9073467608959775
9.95364238410596,0.9127870885336491
9.973509933774835,0.9188637404465051
9.993377483443709,0.9255436601966895
10.013245033112582,0.9327909163306384
10.033112582781456,0.9405671129306775
10.052980132450331,0.9488317998609263
10.072847682119205,0.9575428742947416
10.09271523178808,0.9666569664897215
10.112582781456952,0.9761298042443524
10.132450331125828,0.9859165519317066
10.152317880794701,0.9959721213838504
10.172185430463577,1.0062514531400744
10.192052980132452,1.0167097676391799
10.211920529801324,1.0273027868135727
10.2317880794702,1.0379869272312658
10.251655629139073,1.0487194664406665
10.271523178807948,1.0594586845205256
10.29139072847682,1.0701639830461525
10.311258278145695,1.0807959837767047
10.331125827814569,1.0913166093709281
10.350993377483444,1.1016891483723006
10.370860927152318,1.111878306588059
10.390728476821192,1.1218502468375042
10.410596026490065,1.13157261887589
10.43046357615894,1.1410145811228343
10.450331125827816,1.1501468156457662
10.470198675496688,1.1589415376763765
10.490066225165563,1.1673725007744948
10.509933774834437,1.175414998602907
10.529801324503312,1.183045864138891
10.549668874172186,1.1902434670249566
10.56953642384106,1.1969877096518116
10.589403973509933,1.2032600224709613
10.609271523178808,1.2090433589511083
10.629139072847682,1.2143221905211512
10.649006622516556,1.2190825017817322
10.66887417218543,1.2233117862158738
10.688741721854305,1.2269990425860395
