Time (s),Filtered Signal
0.0,0.011360415099907574
0.03337000366703337,0.19720497490140707
0.06674000733406674,0.4418781933285598
0.1001100110011001,0.7722784166622144
0.13348001466813347,1.1649199896118863
0.16685001833516683,1.5502251686119488
0.2002200220022002,1.8371425764474778
0.2335900256692336,1.9473495089966397
0.26696002933626695,1.8446051195827435
0.3003300330033003,1.547724548573781
0.33370003667033366,1.1232872477042484
0.36707004033736707,0.6625934953982429
0.4004400440044004,0.2527680305433717
0.4338100476714338,-0.0474198119697633
0.4671800513384672,-0.219770996657458
0.5005500550055005,-0.2848173970057688
0.5339200586725339,-0.288620804925877
0.5672900623395672,-0.28390866161791156
0.6006600660066006,-0.3120334832427551
0.634030069673634,-0.39104175982185846
0.6674000733406673,-0.512554012683208
0.7007700770077008,-0.6470716320762897
0.7341400806747341,-0.7547998616457101
0.7675100843417675,-0.7980178403910986
0.8008800880088008,-0.7516625435209396
0.8342500916758342,-0.6103925606462218
0.8676200953428675,-0.3916825964248515
0.9009900990099009,-0.13463097997807197
0.9343601026769344,0.10645510690176342
0.9677301063439677,0.2745329970975934
1.001100110011001,0.32711549981913135
1.0344701136780343,0.25346943592639026
1.0678401173450678,0.08390966568245378
1.1012101210121013,-0.11582886739179818
1.1345801246791345,-0.26650679269640287
1.167950128346168,-0.30656243965155744
1.2013201320132012,-0.21909215926969658
1.2346901356802347,-0.041080895331006985
1.268060139347268,0.1512586367461129
1.3014301430143014,0.2756279397117398
1.3348001466813346,0.28026634178441323
1.368170150348368,0.16677141898592163
1.4015401540154016,-0.011712594032611197
1.4349101576824348,-0.17584172821389543
1.4682801613494683,-0.25655838522479435
1.5016501650165015,-0.22527584315053278
1.535020168683535,-0.10386756861367018
1.5683901723505682,0.049269810737899544
1.6017601760176017,0.16920118257722896
1.6351301796846351,0.21526656318054208
1.6685001833516684,0.18785885242096625
1.7018701870187019,0.12386708934929566
1.735240190685735,0.07426336418210336
1.7686101943527686,0.07587015727545911
1.8019801980198018,0.13154851527158462
1.8353502016868353,0.20810488956357004
1.8687202053538687,0.2520350436380832
1.902090209020902,0.21476052418874697
1.9354602126879354,0.07543294744989962
1.9688302163549687,-0.1481927577175799
2.002200220022002,-0.4040354286998963
2.0355702236890356,-0.6218881021970342
2.0689402273560686,-0.7346236160750282
2.102310231023102,-0.6973551911613611
2.1356802346901356,-0.4997637335757298
2.169050238357169,-0.16954131683730955
2.2024202420242025,0.2331674371036969
2.2357902456912355,0.6292794550028247
2.269160249358269,0.9399014362496002
2.3025302530253025,1.1067788147765523
2.335900256692336,1.1079413618673424
2.369270260359369,0.9624890671014833
2.4026402640264024,0.7217005044510246
2.436010267693436,0.4493054047101578
2.4693802713604693,0.19896663330821351
2.502750275027503,-0.0015137103028713796
2.536120278694536,-0.15327063420291356
2.5694902823615693,-0.27729722230324216
2.6028602860286028,-0.3993731533498257
2.636230289695636,-0.5366080836976852
2.6696002933626692,-0.6903534606159193
2.7029702970297027,-0.8458476896723202
2.736340300696736,-0.9762620665778133
2.7697103043637696,-1.0489270769852417
2.803080308030803,-1.0329738655797078
2.836450311697836,-0.9081742179574824
2.8698203153648696,-0.6735730304880613
2.903190319031903,-0.35278465044190993
2.9365603226989365,0.007461423694365035
2.96993032636597,0.3468703092164537
3.003300330033003,0.6070624798334421
3.0366703337000365,0.7478832003037396
3.07004033736707,0.7587156158436522
3.1034103410341034,0.660760492851643
3.1367803447011364,0.49955974166330325
3.17015034836817,0.3303900982948197
3.2035203520352034,0.20133662500175892
3.236890355702237,0.13935859693625918
3.2702603593692703,0.14360710566783502
3.3036303630363033,0.18808901926106206
3.3370003667033368,0.2329769529115162
3.3703703703703702,0.24097498935715933
3.4037403740374037,0.19297949801445438
3.4371103777044367,0.09687920794456012
3.47048038137147,-0.014568929682532218
3.5038503850385037,-0.09665034195475432
3.537220388705537,-0.11158621380871389
3.5705903923725706,-0.04566746916071872
3.6039603960396036,0.08276764571357065
3.637330399706637,0.22824143937794975
3.6707004033736705,0.334215466358381
3.704070407040704,0.3538150019618113
3.7374404107077375,0.2666630251251303
3.7708104143747705,0.08502438568701677
3.804180418041804,-0.15276992955867502
3.8375504217088374,-0.39797858652096646
3.870920425375871,-0.6086407690947849
3.904290429042904,-0.7605824305488152
3.9376604327099374,-0.8482374858804299
3.971030436376971,-0.8769245925344916
4.004400440044004,-0.8525911544258965
4.037770443711038,-0.7756267428186826
4.071140447378071,-0.6420049199607977
4.104510451045105,-0.45006052669606683
4.137880454712137,-0.20783306425461867
4.171250458379171,0.06399221799165898
4.204620462046204,0.33542279789496743
4.237990465713238,0.5748646361091478
4.271360469380271,0.7571888224952328
4.304730473047305,0.8686860577392067
4.338100476714338,0.9076979638509698
4.3714704803813715,0.8819334580231606
4.404840484048405,0.8044136272479085
4.438210487715438,0.689637108093185
4.471580491382471,0.5507565592162903
4.5049504950495045,0.398046048524729
4.538320498716538,0.23879184074366838
4.571690502383571,0.07855077507880659
4.605060506050605,-0.07677847211637398
4.638430509717638,-0.21919331295625433
4.671800513384672,-0.33834646751121517
4.705170517051705,-0.4233600173643048
4.738540520718738,-0.4660962869490309
4.771910524385771,-0.46442516724927796
4.805280528052805,-0.4239794743473806
4.838650531719838,-0.35758263098299403
4.872020535386872,-0.2823900736432646
4.905390539053905,-0.21532013045298906
4.938760542720939,-0.16765470069232344
4.972130546387972,-0.1402446971890635
5.005500550055006,-0.12161625010515438
5.038870553722038,-0.09152155875827353
5.072240557389072,-0.030810409535884424
5.105610561056105,0.06525905988940815
5.138980564723139,0.17705763253668924
5.172350568390172,0.26161570205139284
5.2057205720572055,0.26808089146494407
5.239090575724239,0.1630310885990609
5.272460579391272,-0.04625381286025462
5.305830583058306,-0.30406731459120445
5.3392005867253385,-0.5213737884316605
5.372570590392372,-0.6095702822634292
5.405940594059405,-0.5183104723073793
5.439310597726439,-0.25944503413585834
5.472680601393472,0.09483596656292498
5.506050605060506,0.4392197415183686
5.539420608727539,0.6753622727276518
5.572790612394573,0.7469455806160579
5.606160616061606,0.655388832489467
5.63953061972864,0.4519176327018487
5.672900623395672,0.21244071762576064
5.706270627062706,0.007862804873554239
5.739640630729739,-0.11804825710213308
5.773010634396773,-0.1567306131089051
5.806380638063806,-0.12929679575271485
5.83975064173084,-0.07271236733295439
5.873120645397873,-0.024224344233333257
5.9064906490649065,-0.008973951230572912
5.93986065273194,-0.03326041538996945
5.9732306563989725,-0.08413741809548542
6.006600660066006,-0.13509312856877087
6.0399706637330395,-0.1566384313030875
6.073340667400073,-0.12905129582089364
6.106710671067106,-0.052785301370161006
6.14008067473414,0.04839957327600013
6.173450678401173,0.13445325449012846
6.206820682068207,0.16471517631289442
6.24019068573524,0.11613133866717523
6.273560689402273,-0.004354189033062852
6.306930693069306,-0.15975020235025916
6.34030069673634,-0.2964266439419745
6.373670700403373,-0.36570186282474426
6.407040704070407,-0.34415220186710194
6.44041070773744,-0.24336176462101528
6.473780711404474,-0.1043798088523635
6.507150715071507,0.020954172630445054
6.540520718738541,0.0935347532206449
6.573890722405573,0.10456156917521715
6.607260726072607,0.07875996836340467
6.64063072973964,0.06131456130849316
6.6740007334066735,0.09424899052958316
6.707370737073707,0.19325057888380168
6.7407407407407405,0.3361507761268791
6.774110744407774,0.4691344999310551
6.807480748074807,0.5285733691879254
6.840850751741841,0.4690112923412177
6.8742207554088735,0.2847900795536984
6.907590759075907,0.015523337446782708
6.94096076274294,-0.2672148600046273
6.974330766409974,-0.4863804018070499
7.007700770077007,-0.5879117106997584
7.041070773744041,-0.559308092743663
7.074440777411074,-0.4309562246937459
7.107810781078108,-0.26030583648265543
7.141180784745141,-0.10626668696895088
7.174550788412174,-0.005202228729290438
7.207920792079207,0.04105408880062056
7.241290795746241,0.06025078004679199
7.274660799413274,0.0906473858841424
7.308030803080308,0.15714524499724922
7.341400806747341,0.25430262605718135
7.3747708104143745,0.34495946561891766
7.408140814081408,0.37611252659838273
7.4415108177484415,0.3055138049652425
7.474880821415475,0.12685078098730543
7.5082508250825075,-0.11897835149045959
7.541620828749541,-0.3535033898905806
7.5749908324165744,-0.48900700886627796
7.608360836083608,-0.4643327874741895
7.641730839750641,-0.27254546510845806
7.675100843417675,0.032564962404706396
7.708470847084708,0.35517678065542335
7.741840850751742,0.5939561713806218
7.775210854418775,0.6806018786273385
7.808580858085808,0.6034740945000617
7.841950861752841,0.40636488694797535
7.875320865419875,0.16431009372935315
7.908690869086908,-0.05089026887994052
7.942060872753942,-0.19857560160828286
7.975430876420975,-0.27813191216331823
8.008800880088009,-0.31704297897983713
8.042170883755041,-0.3471016097891565
8.075540887422076,-0.3831356716000052
8.108910891089108,-0.4157644154115099
8.142280894756142,-0.4206988303450991
8.175650898423175,-0.37737122983276833
8.20902090209021,-0.2848458381305812
8.242390905757242,-0.16550749290159347
8.275760909424275,-0.05493215499337752
8.309130913091309,0.015465637705849819
8.342500916758341,0.03280297363718124
8.375870920425376,0.006583782421186904
8.409240924092408,-0.03877912571387857
8.442610927759443,-0.07725936103371481
8.475980931426475,-0.09249257379762342
8.50935093509351,-0.0816119418143612
8.542720938760542,-0.05121362545779113
8.576090942427575,-0.009340749944197809
8.60946094609461,0.041211616569276716
8.642830949761642,0.10465130634835709
8.676200953428676,0.1886772480603133
8.709570957095709,0.29825343644003355
8.742940960762743,0.4302645185371002
8.776310964429776,0.5716535608822211
8.80968096809681,0.7015221753075284
8.843050971763843,0.7957619156742434
8.876420975430875,0.8320251840648922
8.90979097909791,0.793380073598807
8.943160982764942,0.6703008276486937
8.976530986431976,0.46188423562636416
9.009900990099009,0.1775566771524662
9.043270993766043,-0.16033455235676006
9.076640997433076,-0.5143975263949412
9.11001100110011,-0.8333849964704638
9.143381004767143,-1.0594694246441616
9.176751008434175,-1.142132510104385
9.21012101210121,-1.0554912972264257
9.243491015768242,-0.8125616224991585
9.276861019435277,-0.46909453823255876
9.31023102310231,-0.11234799094535293
9.343601026769344,0.16409422348138034
9.376971030436376,0.29180476530648103
9.41034103410341,0.2533384427808377
9.443711037770443,0.09083005776856232
9.477081041437476,-0.10847574969624828
9.51045104510451,-0.24626770268479797
9.543821048771543,-0.25408205268398065
9.577191052438577,-0.12366207909751924
9.61056105610561,0.08787792592121317
9.643931059772644,0.2825339097976856
9.677301063439677,0.3662835172519008
9.710671067106711,0.29432257212800234
9.744041070773743,0.09478304537083017
9.777411074440776,-0.14184438159462737
9.81078107810781,-0.303949814461744
9.844151081774843,-0.3114110785880504
9.877521085441877,-0.15372767571774804
9.91089108910891,0.10557798938551179
9.944261092775944,0.36073459248482487
9.977631096442977,0.5156386009010439
10.011001100110011,0.5295210231966228
10.044371103777044,0.4333200807518346
10.077741107444076,0.3090093751127386
10.11111111111111,0.24320453167912492
10.144481114778143,0.2792342470382404
10.177851118445178,0.39213193366874877
10.21122112211221,0.4990419774388336
10.244591125779245,0.49979452161096966
10.277961129446277,0.3277934704938748
10.311331133113312,-0.013236362632759898
10.344701136780344,-0.4439703301798885
10.378071140447377,-0.8380698256988531
10.411441144114411,-1.0716448227042659
10.444811147781444,-1.0718624598944066
10.478181151448478,-0.8443876881003576
10.51155115511551,-0.46947349420603046
10.544921158782545,-0.07009358906699721
10.578291162449577,0.23366818627775945
10.611661166116612,0.365825382308511
10.645031169783644,0.31667618598307706
10.678401173450677,0.1398360861373397
10.711771177117711,-0.07243990496978914
10.745141180784744,-0.224979043700723
10.778511184451778,-0.2529668881037924
10.81188118811881,-0.1412903005163185
10.845251191785845,0.07569198881523939
10.878621195452878,0.33197591274814503
10.911991199119912,0.556734144794674
10.945361202786945,0.6985610346554886
10.978731206453979,0.7376793467265376
11.012101210121012,0.683017268065234
11.045471213788044,0.5586037352376327
11.078841217455079,0.38850387748698306
11.112211221122111,0.18895224038206745
11.145581224789145,-0.029138994263433516
11.178951228456178,-0.2511954288507215
11.212321232123212,-0.45176619445790844
11.245691235790245,-0.5962406028476663
11.27906123945728,-0.6527673263173239
11.312431243124312,-0.6085954999028933
11.345801246791344,-0.48125282150308896
11.379171250458379,-0.31687426463130003
11.412541254125411,-0.1746087031152259
11.445911257792446,-0.10357547987554049
11.479281261459478,-0.12304460086872847
11.512651265126513,-0.21510182509764275
11.546021268793545,-0.33294298984828835
11.57939127246058,-0.4204955252114325
11.612761276127612,-0.43413128028272485
11.646131279794645,-0.3570798525050191
11.67950128346168,-0.20144971531886052
11.712871287128712,0.0009968001353066473
11.746241290795746,0.21322786670358915
11.779611294462779,0.40505601364434135
11.812981298129813,0.5581163207520212
11.846351301796846,0.6636039330147924
11.87972130546388,0.7168210843198232
11.913091309130913,0.7137568124446584
11.946461312797945,0.6525551599295474
11.97983131646498,0.5385152244378311
12.013201320132012,0.3881495379925051
12.046571323799046,0.2280175340216887
12.079941327466079,0.08744158213017468
12.113311331133113,-0.01158142806981308
12.146681334800146,-0.061884007498408354
12.18005133846718,-0.07209349394558191
12.213421342134213,-0.060954460284102764
12.246791345801245,-0.04852536034287739
12.28016134946828,-0.04893584534937737
12.313531353135312,-0.06774567954561699
12.346901356802347,-0.10392630312611287
12.38027136046938,-0.15406676960047713
12.413641364136414,-0.21576791994359298
12.447011367803446,-0.2882505305855929
12.48038137147048,-0.3700590357282925
12.513751375137513,-0.4554046917435768
12.547121378804546,-0.5315379513666463
12.58049138247158,-0.5793220475477164
12.613861386138613,-0.5779004491469869
12.647231389805647,-0.5123265826387945
12.68060139347268,-0.3810659424206564
12.713971397139714,-0.1995491380874565
12.747341400806746,0.0027343588941834453
12.78071140447378,0.191088300980493
12.814081408140813,0.3367389643524203
12.847451411807846,0.4251994310597422
12.88082141547488,0.4581581178545507
12.914191419141913,0.4484952145311883
12.947561422808947,0.4114742464825814
12.98093142647598,0.3569329507747082
13.014301430143014,0.28660889829863306
13.047671433810047,0.19798079977817695
13.081041437477081,0.09244742788078808
13.114411441144114,-0.017064948972472876
13.147781444811146,-0.10441998586602282
13.18115144847818,-0.13740802486855172
13.214521452145213,-0.09203348215285799
13.247891455812248,0.032224741722776826
13.28126145947928,0.20426105425682572
13.314631463146315,0.3661937769677451
13.348001466813347,0.45145678162166275
13.381371470480381,0.40986232531061617
13.414741474147414,0.22932317531810306
13.448111477814447,-0.05543741482925053
13.481481481481481,-0.37167266493134477
13.514851485148514,-0.6320679766768287
13.548221488815548,-0.7639769035865354
13.58159149248258,-0.7333640658937225
13.614961496149615,-0.5548041302870197
13.648331499816647,-0.28462893908583076
13.681701503483682,-0.0008016590252669777
13.715071507150714,0.22235445066887652
13.748441510817747,0.3354656546264105
13.781811514484781,0.32490925868054676
13.815181518151814,0.21119296500017223
13.848551521818848,0.03763828238668006
13.88192152548588,-0.14500350415820595
13.915291529152915,-0.29206793115639607
13.948661532819948,-0.3727796563321386
13.982031536486982,-0.3718342969732991
14.015401540154015,-0.2871741288589338
14.048771543821047,-0.12740518383800425
14.082141547488082,0.08898217137600467
14.115511551155114,0.33306729527664164
14.148881554822148,0.5662695255048495
14.182251558489181,0.7452259559975777
14.215621562156215,0.8314508145091803
14.248991565823248,0.8032452812268677
14.282361569490282,0.6649351017373071
14.315731573157315,0.4484888398994091
14.349101576824348,0.20525956853151076
14.382471580491382,-0.010114292942269239
14.415841584158414,-0.15779885773510677
14.449211587825449,-0.22565630131175496
14.482581591492481,-0.23169583133085092
14.515951595159516,-0.21519952243193788
14.549321598826548,-0.2203091231643692
14.582691602493583,-0.27868541016718373
14.616061606160615,-0.39773188613771776
14.649431609827648,-0.5581773508527592
14.682801613494682,-0.7209646770935813
14.716171617161715,-0.840072656932657
14.749541620828749,-0.8763172536385675
14.782911624495782,-0.8077044820415171
14.816281628162816,-0.6339957276705359
14.849651631829849,-0.3755950154735896
14.883021635496883,-0.06842417848080275
14.916391639163916,0.24340738900189976
14.94976164283095,0.516020393806956
14.983131646497982,0.7144864459136545
15.016501650165015,0.8203977727851964
15.04987165383205,0.8357867806928768
15.083241657499082,0.7809312624039325
15.116611661166116,0.6856248147097055
15.149981664833149,0.5768756629406966
15.183351668500183,0.4686401689663342
15.216721672167216,0.3590011105292592
15.25009167583425,0.23665116202384814
15.283461679501283,0.09334540554021709
15.316831683168315,-0.06480933000799195
15.35020168683535,-0.21427799391840602
15.383571690502382,-0.3220820033629522
15.416941694169417,-0.36161506772279634
15.45031169783645,-0.32847326118356507
15.483681701503484,-0.24787622268979448
15.517051705170516,-0.16889514399089794
15.55042170883755,-0.14668014048924716
15.583791712504583,-0.2193436400822456
15.617161716171616,-0.3888077360110783
15.65053171983865,-0.6138853713014135
15.683901723505683,-0.8196694350840236
15.717271727172717,-0.9213924877109118
15.75064173083975,-0.8551805783332673
15.784011734506784,-0.6045582727316595
15.817381738173816,-0.21182873274409955
15.85075174184085,0.23183550284646992
15.884121745507883,0.6157190238769963
15.917491749174916,0.8480340203978385
15.95086175284195,0.8883684263384398
15.984231756508983,0.7604856722068433
16.017601760176017,0.5398984327371175
16.05097176384305,0.32180204891551545
16.084341767510082,0.18379441287425707
16.117711771177117,0.15973469396720888
16.15108177484415,0.2350131920234367
16.184451778511182,0.36259008109559454
16.217821782178216,0.4891830703047925
16.25119178584525,0.5771746729137249
16.284561789512285,0.6119908460489578
16.317931793179316,0.5942387188891527
16.35130179684635,0.5250989000954006
16.384671800513384,0.3968722346737275
16.41804180418042,0.19624252062124156
16.45141180784745,-0.08138144102526529
16.484781811514484,-0.416210490486486
16.51815181518152,-0.7587531516678898
16.55152181884855,-1.040938121418463
16.584891822515583,-1.20024066752383
16.618261826182618,-1.205448487080052
16.651631829849652,-1.0708819282194344
16.685001833516683,-0.8511458958900765
16.718371837183717,-0.6180935591456125
16.75174184085075,-0.430710192544194
16.785111844517782,-0.3124045973738425
16.818481848184817,-0.24659865262664538
16.85185185185185,-0.19218182491203498
16.885221855518886,-0.11014042381531289
16.918591859185916,0.013037023676499811
16.95196186285295,0.1576111549832211
16.985331866519985,0.28233485188666885
17.01870187018702,0.34894581003698644
17.05207187385405,0.34579649857830363
17.085441877521085,0.2974785871820257
17.11881188118812,0.2547783738377362
17.15218188485515,0.26975264510227304
17.185551888522184,0.36861612093369617
17.21892189218922,0.5364140226399242
17.252291895856253,0.7215641675298222
17.285661899523284,0.8583910111929005
