Frequency (Hz),Amplitude
0.0,9.341760661690126
0.019823788546255508,9.346592597883452
0.039647577092511016,9.36105445372792
0.059471365638766524,9.385044968142461
0.07929515418502203,9.418397337301345
0.09911894273127755,9.46088207343147
0.11894273127753305,9.51221083790864
0.13876651982378857,9.572041095144604
0.15859030837004406,9.63998141021484
0.17841409691629956,9.715597201549556
0.1982378854625551,9.798416759941297
0.2180616740088106,9.887937355246562
0.2378854625550661,9.983631270393724
0.25770925110132165,10.084951626195808
0.27753303964757714,10.191337887493786
0.29735682819383263,10.302220969028696
0.31718061674008813,10.417027886257323
0.3370044052863437,10.53518592067622
0.3568281938325991,10.656126290191764
0.37665198237885467,10.7792873322204
0.3964757709251102,10.904117220450598
0.41629955947136565,11.030076245755277
0.4361233480176212,11.156638698009745
0.4559471365638767,11.283294389040783
0.4757709251101322,11.409549858146447
0.49559471365638774,11.534929301096573
0.5154185022026433,11.65897526173109
0.5352422907488987,11.78124912261825
0.5550660792951543,11.901331428060642
0.5748898678414097,12.018822069305733
0.5947136563876653,12.133340358334472
0.6145374449339208,12.244525013210028
0.6343612334801763,12.35203407476949
0.6541850220264318,12.45554477149455
0.6740088105726874,12.554753346737643
0.6938325991189428,12.649374860117238
0.7136563876651982,12.739142972827683
0.7334801762114539,12.823809724821233
0.7533039647577093,12.903145310291448
0.7731277533039648,12.97693785659577
0.7929515418502204,13.044993210674093
0.8127753303964759,13.107134736126127
0.8325991189427313,13.163203123377738
0.8524229074889869,13.213056214773562
0.8722466960352424,13.256568845960272
0.8920704845814978,13.293632704551667
0.9118942731277534,13.324156206778317
0.931718061674009,13.348064392606524
0.9515418502202644,13.365298839648558
0.9713656387665199,13.375817596071453
0.9911894273127755,13.379595132630325
1.0110132158590308,13.376622313899155
1.0308370044052866,13.366906388736915
1.0506607929515421,13.35047100000285
1.0704845814977975,13.327356213514964
1.090308370044053,13.297618566222269
1.1101321585903086,13.261331133527925
1.1299559471365639,13.218583615648589
1.1497797356828194,13.16948244281825
1.1696035242290752,13.114150899032081
1.1894273127753305,13.052729263869033
1.209251101321586,12.985374971718551
1.2290748898678416,12.912262787455631
1.248898678414097,12.833584997242966
1.2687224669603525,12.749551612675596
1.288546255506608,12.66039058590107
1.3083700440528636,12.566348032628786
1.3281938325991192,12.467688459061714
1.3480176211453747,12.364694987719298
1.36784140969163,12.257669575846101
1.3876651982378856,12.146933218592276
1.4074889867841411,12.032826127383979
1.4273127753303965,11.915707871854506
1.4471365638766522,11.795957471365947
1.4669603524229078,11.673973419508966
1.4867841409691631,11.550173622038947
1.5066079295154187,11.424995225516955
1.5264317180616742,11.298894310534124
1.5462555066079295,11.172345419904191
1.5660792951541853,11.04584088875029
1.5859030837004409,10.919889940188188
1.6057268722466962,10.795017507577278
1.6255506607929517,10.671762742407104
1.6453744493392073,10.550677166211093
1.6651982378854626,10.432322425923832
1.6850220264317182,10.317267615337672
1.7048458149779737,10.20608613130904
1.7246696035242293,10.0993520426204
1.7444933920704848,9.997635962331495
1.7643171806167404,9.901500431287324
1.7841409691629957,9.811494841147784
1.8039647577092512,9.728149949452872
1.8237885462555068,9.651972065969707
1.8436123348017623,9.58343701751514
1.863436123348018,9.522984025742598
1.8832599118942732,9.471009656751578
1.9030837004405288,9.427862020309895
1.9229074889867843,9.393835407486645
1.9427312775330399,9.369165556437583
1.9625550660792954,9.354025725512443
1.982378854625551,9.348523730310669
2.002202643171806,9.352700067527795
2.0220264317180616,9.366527205378048
2.041850220264317,9.389910071096015
2.061674008810573,9.422687714320384
2.0814977973568287,9.464636075151406
2.1013215859030843,9.515471741249927
2.1211453744493394,9.574856542719434
2.140969162995595,9.642402808860702
2.1607929515418505,9.717679098166057
2.180616740088106,9.80021621187058
2.2004405286343616,9.889513310710225
2.220264317180617,9.985043972208349
2.2400881057268722,10.086262049376273
2.2599118942731278,10.192607218641427
2.2797356828193833,10.303510132777825
2.299559471365639,10.41839712166263
2.319383259911895,10.53669440835706
2.3392070484581504,10.657831829356732
2.3590308370044055,10.781246065387888
2.378854625550661,10.906383402737864
2.3986784140969166,11.032702054994775
2.418502202643172,11.159674081615414
2.4383259911894277,11.286786943438015
2.4581497797356833,11.413544736643887
2.4779735682819384,11.539469146269926
2.497797356828194,11.664100158665295
2.5176211453744495,11.786996569683733
2.537444933920705,11.907736322251155
2.5572687224669606,12.025916703523377
2.577092511013216,12.14115442835332
2.5969162995594717,12.253085632376358
2.6167400881057272,12.361365794795553
2.6365638766519828,12.465669607973231
2.6563876651982383,12.565690808244062
2.676211453744494,12.66114197997218
2.6960352422907494,12.751754342778268
2.715859030837005,12.837277530047347
2.73568281938326,12.917479365277137
2.7555066079295156,12.99214564151237
2.775330396475771,13.061079908012426
2.7951541850220267,13.124103267388591
2.8149779735682823,13.181054185700763
2.834801762114538,13.231788317399666
2.854625550660793,13.276178346517064
2.874449339207049,13.314113845125433
2.8942731277533045,13.345501149794416
2.91409691629956,13.37026325654621
2.9339207048458156,13.388339734647763
2.953744493392071,13.399686659457444
2.9735682819383262,13.404276564461831
2.993392070484582,13.402098412583706
3.0132158590308373,13.3931575868062
3.033039647577093,13.377475900134375
3.0528634361233484,13.355091624896684
3.072687224669604,13.326059541366234
3.092511013215859,13.290451005650562
3.1123348017621146,13.248354036749914
3.1321585903083706,13.199873422609874
3.151982378854626,13.145130844885726
3.1718061674008817,13.084265021984658
3.1916299559471373,13.017431869743648
3.2114537444933924,12.944804678827243
3.231277533039648,12.86657430757147
3.2511013215859035,12.782949388545859
3.270925110132159,12.694156546533113
3.2907488986784146,12.600440624918232
3.31057268722467,12.502064916610173
3.3303964757709252,12.399311394568539
3.350220264317181,12.292480935747344
3.3700440528634363,12.18189353077415
3.389867841409692,12.067888469928704
3.4096916299559474,11.950824493951998
3.4295154185022034,11.83107989588565
3.4493392070484585,11.709052557508201
3.469162995594714,11.585159901006795
3.4889867841409696,11.459838733326663
3.508810572687225,11.333544957234276
3.5286343612334807,11.206753119604114
3.5484581497797363,11.079955763929297
3.5682819383259914,10.953662550759185
3.588105726872247,10.828399106933885
3.6079295154185025,10.704705562448984
3.627753303964758,10.583134732940579
3.6475770925110136,10.464249906600537
3.667400881057269,10.348622197336063
3.6872246696035247,10.236827431718778
3.7070484581497802,10.129442546245901
3.726872246696036,10.027041484092443
3.7466960352422913,9.930190597124067
3.7665198237885464,9.83944357946043
3.7863436123348024,9.755335982950408
3.8061674008810575,9.678379391716698
3.8259911894273135,9.609055361113022
3.8458149779735686,9.547809254171392
3.8656387665198246,9.495044133631662
3.8854625550660797,9.451114887412555
3.905286343612335,9.416322777370866
3.925110132158591,9.390910603187141
3.9449339207048464,9.375058663667598
3.964757709251102,9.368881676092984
3.9845814977973575,9.372426781104652
4.004405286343612,9.385672717873787
4.024229074889869,9.40853020494843
4.044052863436123,9.440843510017453
4.06387665198238,9.482393141018264
4.083700440528634,9.53289954552876
4.103524229074891,9.592027668549168
4.123348017621146,9.659392192894984
4.143171806167401,9.734563272562257
4.162995594713657,9.817072567427582
4.182819383259912,9.90641939627882
4.2026431718061685,10.002076842420278
4.222466960352423,10.10349766950365
4.242290748898679,10.210119932241046
4.262114537444934,10.321372194877169
4.28193832599119,10.436678297732527
4.301762114537445,10.55546163725852
4.321585903083701,10.677148946869
4.3414096916299565,10.80117358380109
4.361233480176212,10.926978341285603
4.381057268722468,11.054017815545917
4.400881057268723,11.181760363975794
4.420704845814979,11.309689694763735
4.440528634361234,11.437306129775926
4.46035242290749,11.56412758221321
4.4801762114537445,11.689690288908109
4.500000000000001,11.813549334549934
4.5198237885462555,11.935279001974303
4.539647577092512,12.054472979206038
4.559471365638767,12.170744450417551
4.579295154185023,12.283726094513296
4.599118942731278,12.393070011780901
4.618942731277533,12.498447596029504
4.63876651982379,12.599549366902652
4.658590308370044,12.696084774620239
4.678414096916301,12.787781987270694
4.6982378854625555,12.87438766892774
4.718061674008811,12.955666755285073
4.737885462555067,13.031402232164782
4.757709251101322,13.101394921134627
4.777533039647578,13.165463275541235
4.797356828193833,13.2234431895041
4.817180616740089,13.275187821800143
4.837004405286344,13.320567436073835
4.856828193832599,13.359469258419743
4.876651982378855,13.391797353083266
4.896475770925111,13.417472516796035
4.9162995594713665,13.436432192093736
4.936123348017622,13.448630399842163
4.955947136563877,13.454037691114017
4.975770925110133,13.452641118502608
4.995594713656388,13.44444422692435
5.015418502202644,13.429467063937818
5.035242290748899,13.407746209590206
5.055066079295155,13.37933482578207
5.07488986784141,13.344302725112431
5.094713656387666,13.302736459120922
5.114537444933921,13.254739425773847
5.134361233480177,13.200431995937432
5.154185022026432,13.139951658435075
5.174008810572688,13.073453183084169
5.193832599118943,13.001108800840576
5.213656387665199,12.923108399829276
5.2334801762114544,12.839659735593065
5.25330396475771,12.750988653329289
5.2731277533039655,12.657339319184814
5.292951541850221,12.558974456822847
5.312775330396477,12.456175584433755
5.332599118942731,12.349243246112776
5.352422907488988,12.238497230042249
5.372246696035242,12.124276764170823
5.392070484581499,12.006940678053459
5.4118942731277535,11.886867517186392
5.43171806167401,11.764455593534127
5.451541850220265,11.640122953003798
5.47136563876652,11.514307237404685
5.491189427312777,11.387465414986579
5.511013215859031,11.260073350070975
5.530837004405288,11.132625178705943
5.550660792951542,11.00563245387701
5.570484581497798,10.879623020848141
5.5903083700440535,10.755139581010575
5.610132158590309,10.632737901585802
5.6299559471365646,10.512984629129884
5.64977973568282,10.396454667548246
5.669603524229076,10.283728086805844
5.689427312775331,10.175386537243101
5.709251101321586,10.072009156838961
5.729074889867842,9.974167975184768
5.748898678414098,9.882422838375254
5.768722466960353,9.797315903146517
5.788546255506609,9.719365775604466
5.808370044052864,9.649061398483692
5.82819383259912,9.586855819229491
5.848017621145375,9.533159997028628
5.867841409691631,9.488336827664575
5.887665198237886,9.452695578143096
5.907488986784142,9.426486926117386
5.927312775330397,9.409898790582194
5.9471365638766525,9.40305311941842
5.966960352422908,9.406003766676395
5.986784140969164,9.418735549792283
6.00660792951542,9.441164527203119
6.026431718061675,9.473139483885571
6.04625550660793,9.514444560414216
6.066079295154186,9.564802914310908
6.085903083700441,9.623881264201849
6.105726872246697,9.691295140052148
6.125550660792952,9.766614647703111
6.145374449339208,9.849370553025159
6.1651982378854635,9.939060499034925
6.185022026431718,10.03515518630156
6.204845814977975,10.137104370400184
6.224669603524229,10.244342557443252
6.244493392070486,10.356294307388
6.264317180616741,10.47237908280396
6.284140969162996,10.59201560650881
6.303964757709252,10.714625713889571
6.323788546255507,10.839637704250865
6.3436123348017635,10.966489210022896
6.363436123348018,11.094629613279873
6.3832599118942746,11.223522046142493
6.403083700440529,11.352645015766136
6.422907488986785,11.481493696299422
6.44273127753304,11.609580929979074
6.462555066079296,11.736437977908576
6.482378854625551,11.861615058485246
6.502202643171807,11.984681708257034
6.5220264317180625,12.105226996496572
6.541850220264318,12.222859621195607
6.561674008810574,12.337207910669813
6.581497797356829,12.447919751633103
6.601321585903085,12.554662461520499
6.62114537444934,12.657122620050776
6.640969162995596,12.75500587253673
6.6607929515418505,12.848036715273745
6.680616740088107,12.935958271451469
6.700440528634362,13.018532064418755
6.720264317180618,13.09553779376678
6.740088105726873,13.166773118550738
6.759911894273129,13.232053451022017
6.779735682819384,13.291211763466357
6.799559471365639,13.344098410113459
6.819383259911895,13.390580965580261
6.83920704845815,13.430544080913123
6.859030837004407,13.463889357987515
6.8788546255506615,13.490535242790129
6.898678414096917,13.510416937937006
6.918502202643173,13.52348633465711
6.938325991189428,13.529711964387468
6.958149779735684,13.529078970069778
6.977973568281939,13.521589097204455
6.997797356828195,13.507260704696861
7.01762114537445,13.486128795515146
7.037444933920705,13.45824506716209
7.0572687224669615,13.423677981938889
7.077092511013216,13.38251285693674
7.096916299559473,13.334851973627625
7.116740088105728,13.280814706827112
7.136563876651983,13.220537672661367
7.156387665198239,13.154174894976439
7.176211453744494,13.081897989366208
7.19603524229075,13.00389636365471
7.215859030837005,12.920377433228987
7.235682819383261,12.83156684906469
7.255506607929516,12.737708735596366
7.275330396475772,12.639065934734415
7.295154185022027,12.535920251297666
7.314977973568283,12.428572693886615
7.334801762114538,12.317343703741907
7.354625550660794,12.202573362388224
7.374449339207049,12.08462156683122
7.394273127753305,11.96386815873771
7.4140969162995605,11.840712991372794
7.433920704845816,11.715575915100096
7.453744493392072,11.588896658991093
7.473568281938327,11.461134582589036
7.493392070484583,11.332768268215498
7.513215859030838,11.204294920523635
7.533039647577093,11.076229536478037
7.552863436123348,10.949103805826113
7.572687224669605,10.823464699746063
7.59251101321586,10.699872704111527
7.612334801762115,10.578899654179244
7.6321585903083715,10.461126130018519
7.651982378854627,10.347138377229868
7.671806167400882,10.237524726000421
7.691629955947137,10.1328714938009
7.711453744493394,10.033758373361463
7.731277533039649,9.94075332803813
7.751101321585904,9.854407040998495
7.7709251101321595,9.775246992054514
7.790748898678416,9.703771265166637
7.81057268722467,9.640442218814496
7.830396475770926,9.585680178270696
7.850220264317182,9.539857330713314
7.870044052863436,9.50329201838134
7.889867841409693,9.47624362920135
7.909691629955948,9.458908276707126
7.929515418502204,9.451415440829017
7.9493392070484585,9.453825708666903
7.969162995594715,9.466129711422399
7.9889867841409705,9.48824830321233
8.008810572687224,9.520033973391604
8.02863436123348,9.561273430611536
8.048458149779737,9.611691248369898
8.068281938325994,9.670954421899475
8.088105726872246,9.738677657489276
8.107929515418503,9.814429199059148
8.12775330396476,9.897736993026008
8.147577092511014,9.98809500006168
8.167400881057269,10.084969479223455
8.187224669603525,10.187805093606096
8.207048458149782,10.296030714425584
8.226872246696036,10.409064829766983
8.246696035242293,10.526320492954152
8.266519823788547,10.647209771973134
8.286343612334802,10.771147684493622
8.306167400881058,10.897555622177844
8.325991189427315,11.025864282972082
8.345814977973568,11.155516141096403
8.365638766519824,11.285967491864733
8.38546255506608,11.416690112791853
8.405286343612337,11.547172584239592
8.42511013215859,11.676921312683145
8.444933920704846,11.805461298055205
8.464757709251103,11.93233668400323
8.484581497797357,12.057111126647719
8.504405286343614,12.17936801385738
8.524229074889869,12.298710563388665
8.544052863436125,12.414761824639402
8.56387665198238,12.527164605353114
8.583700440528636,12.635581341455664
8.60352422907489,12.739693925348647
8.623348017621145,12.839203505440674
8.643171806167402,12.93383026746706
8.662995594713658,13.023313206217857
8.682819383259913,13.107409894641446
8.702643171806168,13.185896255893857
8.722466960352424,13.258566342733044
8.74229074889868,13.325232127689187
8.762114537444935,13.38572330664699
8.78193832599119,13.439887117834415
8.801762114537446,13.487588177698056
8.821585903083701,13.528708334741307
8.841409691629957,13.563146542089337
8.861233480176212,13.59081874930793
8.881057268722468,13.611657813829423
8.900881057268723,13.625613432215305
8.92070484581498,13.63265209140028
8.940528634361234,13.632757040009274
8.960352422907489,13.625928279806216
8.980176211453745,13.612182577315034
9.000000000000002,13.59155349564123
9.019823788546258,13.564091446510153
9.039647577092511,13.529863762516577
9.059471365638768,13.488954789544865
9.079295154185024,13.441465999258803
9.099118942731279,13.387516121467957
9.118942731277533,13.327241296043722
9.13876651982379,13.260795243869815
9.158590308370046,13.188349456058383
9.1784140969163,13.11009340032903
9.198237885462555,13.02623474301585
9.218061674008812,12.936999584621116
9.237885462555067,12.842632706149795
9.257709251101323,12.743397822615417
9.27753303964758,12.639577839078402
9.297356828193834,12.531475103335517
9.317180616740089,12.419411647896979
9.337004405286345,12.303729412136311
9.356828193832602,12.184790433453523
9.376651982378855,12.062976993932056
9.396475770925111,11.938691706283166
9.416299559471367,11.81235751985799
9.436123348017622,11.684417624185805
9.455947136563877,11.555335223916341
9.475770925110133,11.42559315528203
9.49559471365639,11.295693310383207
9.515418502202644,11.166155831916472
9.5352422907489,11.037518037665237
9.555066079295155,10.910333031475796
9.57488986784141,10.7851679559585
9.594713656387666,10.662601842264696
9.614537444933923,10.543223014545761
9.634361233480178,10.42762601168957
9.654185022026432,10.316407997236293
9.674008810572689,10.210164640514892
9.693832599118945,10.109485468374418
9.713656387665198,10.014948707516742
9.733480176211454,9.92711566210657
9.75330396475771,9.846524699313713
9.773127753303967,9.773684945458157
9.792951541850222,9.709069825644162
9.812775330396477,9.653110607843322
9.832599118942733,9.606190135622349
9.852422907488988,9.56863694931457
9.872246696035244,9.54072000085185
9.892070484581499,9.522644160776721
9.911894273127754,9.514546696199515
9.93171806167401,9.516494865975655
9.951541850220266,9.52848473584691
9.971365638766521,9.55044126470309
9.991189427312776,9.582219657441778
10.011013215859032,9.623607924614012
10.030837004405289,9.674330538573097
10.050660792951543,9.734053034013975
10.070484581497798,9.802387370376985
10.090308370044054,9.878897856046214
10.11013215859031,9.963107429689657
10.129955947136565,10.054504101330016
10.14977973568282,10.152547372741742
10.169603524229077,10.256674480925154
10.189427312775331,10.366306336919616
10.209251101321588,10.480853062442488
10.229074889867842,10.599719056520836
10.248898678414099,10.722307551683265
10.268722466960353,10.848024643227548
10.28854625550661,10.976282794935171
10.308370044052865,11.106503840174842
10.32819383259912,11.238121508779933
10.348017621145376,11.370583517789626
10.367841409691632,11.503353268641135
10.387665198237887,11.63591119527462
10.407488986784141,11.767755807447095
10.427312775330398,11.898404471881369
10.447136563876654,12.027393971171113
10.466960352422909,12.154280877012027
10.486784140969164,12.278641770643574
10.50660792951542,12.400073339601311
10.526431718061675,12.518192376170932
10.546255506607931,12.632635699417945
10.566079295154186,12.743060019417914
10.585903083700442,12.84914175937193
10.605726872246697,12.950576848676768
10.625550660792953,13.047080497726848
10.645374449339208,13.13838696324311
10.665198237885463,13.224249311228391
10.685022026431719,13.30443918321688
10.704845814977975,13.37874657028678
