Frequency (Hz),Amplitude
0.0,3.9048997829596255
0.01978021978021978,3.9037844395158565
0.03956043956043956,3.9004408629236145
0.05934065934065934,3.8948764183542064
0.07912087912087912,3.887103394295335
0.0989010989010989,3.8771390224300735
0.11868131868131868,3.8650055056159305
0.13846153846153844,3.8507300541059384
0.15824175824175823,3.834344930184456
0.17802197802197803,3.815887501412716
0.1978021978021978,3.7954003026909504
0.21758241758241756,3.772931107341326
0.23736263736263735,3.7485330073952694
0.2571428571428572,3.722264503225107
0.2769230769230769,3.69418960258724
0.2967032967032967,3.664377929035528
0.31648351648351647,3.6329048395099566
0.3362637362637363,3.5998515506975326
0.35604395604395606,3.5653052734870148
0.3758241758241758,3.5293593544828386
0.3956043956043956,3.4921134230903985
0.4153846153846154,3.4536735421162623
0.4351648351648351,3.4141523591236425
0.45494505494505494,3.37366925492399
0.4747252747252747,3.3323504845488197
0.4945054945054945,3.2903293048117144
0.5142857142857143,3.24774608112222
0.5340659340659341,3.204748364541365
0.5538461538461538,3.1614909281740826
0.5736263736263736,3.118135749895444
0.5934065934065934,3.074851926147762
0.6131868131868132,3.0318154992006376
0.6329670329670329,2.9892091779535996
0.6527472527472528,2.9472219302532157
0.6725274725274726,2.9060484230261205
0.6923076923076923,2.865888285595868
0.7120879120879121,2.826945171720699
0.7318681318681318,2.7894255975803137
0.7516483516483516,2.753537536598165
0.7714285714285715,2.7194887580393057
0.7912087912087912,2.6874849051123415
0.810989010989011,2.657727319995322
0.8307692307692308,2.630410637692912
0.8505494505494506,2.6057201874374156
0.8703296703296702,2.583829258544196
0.8901098901098901,2.564896305828738
0.9098901098901099,2.549062186082019
0.9296703296703297,2.5364475296248874
0.9494505494505494,2.5271503575675904
0.9692307692307692,2.5212440543749257
0.989010989010989,2.5187757956600327
1.0087912087912088,2.519765512763409
1.0285714285714287,2.524205449716284
1.0483516483516484,2.5320603368195016
1.0681318681318681,2.5432681712864778
1.087912087912088,2.5577415625732756
1.1076923076923075,2.5753695713712883
1.1274725274725275,2.5960199493508225
1.1472527472527472,2.619541673206639
1.1670329670329669,2.645767661820428
1.1868131868131868,2.6745175688011433
1.2065934065934065,2.7056005528387983
1.2263736263736265,2.738817943263959
1.2461538461538462,2.7739657358509158
1.2659340659340659,2.81083687229442
1.2857142857142858,2.8492232743432666
1.3054945054945055,2.888917619156177
1.3252747252747252,2.9297148553902006
1.3450549450549452,2.9714134695815297
1.3648351648351649,3.013816519593471
1.3846153846153846,3.056732456562464
1.4043956043956045,3.0999757592698027
1.4241758241758242,3.1433674056477137
1.443956043956044,3.186735205629697
1.4637362637362636,3.2299140181667547
1.4835164835164834,3.2727458732831143
1.5032967032967033,3.315080017798645
1.523076923076923,3.3567729009978953
1.542857142857143,3.3976881142177477
1.5626373626373626,3.437696296150647
1.5824175824175823,3.476675013673667
1.6021978021978023,3.5145086262440333
1.621978021978022,3.551088140356765
1.6417582417582417,3.5863110592342826
1.6615384615384616,3.6200812317974354
1.6813186813186813,3.6523087040332354
1.7010989010989013,3.682909575105677
1.720879120879121,3.7118058599313186
1.7406593406593405,3.7389253594400347
1.7604395604395604,3.764201539344701
1.7802197802197801,3.7875734179350435
1.7999999999999998,3.808985463174557
1.8197802197802198,3.82838749920372
1.8395604395604395,3.8457346222253297
1.8593406593406594,3.8609871256605706
1.879120879120879,3.8741104344087143
1.8989010989010988,3.88507504801338
1.9186813186813187,3.8938564925282786
1.9384615384615385,3.9004352808813723
1.9582417582417584,3.904796881554391
1.978021978021978,3.906931695422159
1.9978021978021978,3.9068350406304493
2.0175824175824175,3.904507145430163
2.0373626373626372,3.8999531489278256
2.0571428571428574,3.893183109755847
2.076923076923077,3.8842120227095953
2.096703296703297,3.8730598434400973
2.1164835164835165,3.8597515213298452
2.1362637362637362,3.844317040712935
2.1560439560439564,3.8267914706269877
2.175824175824176,3.807215023301453
2.195604395604396,3.7856331215909758
2.215384615384615,3.7620964755504454
2.2351648351648348,3.736661168315611
2.254945054945055,3.7093887513941057
2.2747252747252746,3.680346349379765
2.2945054945054943,3.6496067739708176
2.314285714285714,3.6172486469895455
2.3340659340659338,3.5833565318567655
2.353846153846154,3.5480210726556742
2.3736263736263736,3.5113391395108575
2.3934065934065933,3.473413978492304
2.413186813186813,3.4343553636124713
2.4329670329670328,3.394279747695443
2.452747252747253,3.353310407940103
2.4725274725274726,3.311577580852889
2.4923076923076923,3.2692185798716777
2.512087912087912,3.2263778874270845
2.5318681318681318,3.183207211387259
2.5516483516483515,3.139865493816362
2.5714285714285716,3.0965188577771987
2.5912087912087913,3.053340475584135
2.610989010989011,3.0105103395627855
2.6307692307692307,2.9682149141440615
2.6505494505494505,2.9266466462182015
2.6703296703296706,2.8860033093687667
2.6901098901098903,2.846487157235902
2.70989010989011,2.8083038622202205
2.7296703296703297,2.77166121847374
2.7494505494505495,2.736767593075312
2.769230769230769,2.703830116844415
2.7890109890109893,2.6730526166659736
2.808791208791209,2.644633304507077
2.8285714285714287,2.6187622542020925
2.8483516483516484,2.5956187148421717
2.8681318681318677,2.575368328039493
2.887912087912088,2.558160333803994
2.9076923076923076,2.544124864295207
2.9274725274725273,2.533370434195507
2.947252747252747,2.52598173898339
2.9670329670329667,2.522017866594311
2.986813186813187,2.521511013341222
3.0065934065934066,2.524465772117069
3.0263736263736263,2.5308590315439075
3.046153846153846,2.540640491553739
3.0659340659340657,2.5537337671600873
3.085714285714286,2.5700380212647924
3.1054945054945056,2.5894300421664904
3.1252747252747253,2.611766664057681
3.145054945054945,2.6368874201766612
3.1648351648351647,2.6646173182503423
3.184615384615385,2.6947696352992137
3.2043956043956046,2.7271486420005884
3.2241758241758243,2.7615521835462644
3.243956043956044,2.7977740622429277
3.2637362637362637,2.8356061852235332
3.2835164835164834,2.8748404572245008
3.3032967032967036,2.9152704125679416
3.3230769230769233,2.9566925918412745
3.342857142857143,2.9989076772206245
3.3626373626373627,3.0417214061335693
3.3824175824175824,3.0849452863570135
3.4021978021978025,3.1283971371304395
3.4219780219780223,3.1719014808785246
3.441758241758242,3.215289809095088
3.4615384615384617,3.258400744200158
3.481318681318681,3.3010801170360544
3.501098901098901,3.343180977341616
3.520879120879121,3.3845635522015507
3.5406593406593405,3.4250951652218244
3.5604395604395602,3.464650127104926
3.58021978021978,3.503109606428988
3.5999999999999996,3.540361487788464
3.61978021978022,3.576300223031386
3.6395604395604395,3.610826680117633
3.659340659340659,3.643847993107827
3.679120879120879,3.6752774159522748
3.6989010989010986,3.7050341820627883
3.718681318681319,3.733043371096419
3.7384615384615385,3.7592357839390966
3.758241758241758,3.7835478265311653
3.7780219780219784,3.8059214029103314
3.7978021978021976,3.826303817646167
3.8175824175824173,3.8446476876927993
3.8373626373626375,3.8609108635824736
3.8571428571428568,3.8750563598137484
3.876923076923077,3.887052294247743
3.896703296703296,3.896871836307265
3.916483516483517,3.9044931637735556
3.936263736263736,3.909899427988127
3.956043956043956,3.913078727291356
3.9758241758241755,3.9140240885607316
3.9956043956043956,3.9127334567493612
4.015384615384615,3.909209692366159
4.035164835164835,3.9034605768827215
4.054945054945055,3.8954988260954897
4.0747252747252745,3.8853421115150697
4.094505494505494,3.8730130898948936
4.114285714285715,3.8585394410478067
4.134065934065934,3.841953914129426
4.153846153846154,3.823294382588804
4.173626373626373,3.8026039079977214
4.193406593406594,3.7799308129657305
4.213186813186813,3.755328763325719
4.232967032967033,3.7288568597284297
4.252747252747253,3.700579738708582
4.2725274725274724,3.6705676831723495
4.292307692307692,3.638896742097103
4.312087912087913,3.6056488590198454
4.331868131868132,3.5709120086067907
4.351648351648352,3.534780340230508
4.371428571428571,3.4973543270154805
4.391208791208792,3.4587409182294966
4.410989010989011,3.4190536921775316
4.43076923076923,3.3784130058746062
4.450549450549451,3.3369461367135727
4.4703296703296695,3.2947874100826424
4.49010989010989,3.2520783054093045
4.50989010989011,3.208967531403608
4.52967032967033,3.165611059346151
4.549450549450549,3.1221721011361905
4.569230769230769,3.078821016527793
4.589010989010989,3.0357351316170256
4.608791208791209,2.9930984483248726
4.628571428571428,2.9511012225263804
4.648351648351649,2.9099393868477974
4.6681318681318675,2.869813793298257
4.687912087912088,2.830929251194848
4.707692307692308,2.7934933377064137
4.7274725274725276,2.757714962231658
4.747252747252747,2.7238026721666126
4.767032967032967,2.6919626967362813
4.786813186813187,2.662396737611712
4.806593406593407,2.635299529868197
4.826373626373626,2.610856213940599
4.846153846153847,2.589239577619403
4.8659340659340655,2.5706072453581856
4.885714285714286,2.5550989083761255
4.905494505494506,2.542833701152553
4.9252747252747255,2.53390783587337
4.945054945054945,2.528392604530336
4.964835164835165,2.52633284775187
4.984615384615385,2.527745970131488
5.004395604395604,2.5326215550379
5.024175824175824,2.5409215999338746
5.043956043956045,2.552581359177444
5.0637362637362635,2.5675107485335165
5.083516483516483,2.585596237385904
5.103296703296703,2.6067031334207886
5.123076923076923,2.6306781518387004
5.142857142857143,2.657352157280166
5.162637362637362,2.686542970895367
5.182417582417583,2.7180581458201436
5.2021978021978015,2.751697629746609
5.221978021978022,2.787256251192633
5.241758241758242,2.824525984555064
5.2615384615384615,2.8632979665252356
5.281318681318681,2.9033642518626444
5.301098901098901,2.9445193092409188
5.320879120879121,2.986561267677266
5.340659340659341,3.0292929310228054
5.36043956043956,3.0725225824211932
5.380219780219781,3.116064602947061
5.3999999999999995,3.1597399292624067
5.41978021978022,3.2033763745125623
5.43956043956044,3.2468088352119335
5.4593406593406595,3.289879404866209
5.479120879120879,3.332437412799269
5.498901098901099,3.3743394042911663
5.518681318681319,3.415449075823455
5.538461538461538,3.455637177059713
5.558241758241758,3.494781389214709
5.578021978021979,3.5327661877109344
5.5978021978021975,3.569482695492812
5.617582417582418,3.6048285320596043
5.637362637362637,3.638707662173223
5.6571428571428575,3.671030247277791
5.676923076923077,3.701712501911719
5.696703296703297,3.7306765567801383
5.716483516483517,3.7578503296641528
5.736263736263735,3.7831674049554658
5.756043956043956,3.806566922303547
5.775824175824176,3.8279934746326894
5.795604395604395,3.8473970156153774
5.815384615384615,3.8647327765655732
5.835164835164835,3.879961192631858
5.854945054945055,3.893047838117434
5.874725274725275,3.9039633707267147
5.894505494505494,3.912683484530059
5.914285714285715,3.9191888714459493
5.934065934065933,3.9234651910594174
5.953846153846154,3.925503048624122
5.973626373626374,3.9252979811307616
5.993406593406593,3.9228504513645195
6.013186813186813,3.9181658499170378
6.032967032967033,3.9112545051627476
6.052747252747253,3.9021317012531513
6.072527472527473,3.8908177042253933
6.092307692307692,3.877337796359994
6.112087912087913,3.8617223189568493
6.131868131868131,3.8440067237252036
6.151648351648352,3.824231632999798
6.171428571428572,3.8024429089999
6.191208791208791,3.778691732334944
6.210989010989011,3.7530346899270093
6.230769230769231,3.7255338724600073
6.2505494505494505,3.6962569813716746
6.270329670329671,3.665277445269343
6.29010989010989,3.6326745454641545
6.309890109890111,3.5985335500692854
6.329670329670329,3.5629458557829516
6.349450549450549,3.526009136060448
6.36923076923077,3.487827493853623
6.3890109890109885,3.448511616442293
6.408791208791209,3.4081789290780122
6.428571428571428,3.3669537431852636
6.4483516483516485,3.3249673936972215
6.468131868131868,3.2823583587234646
6.487912087912088,3.239272353142806
6.507692307692308,3.19586238588076
6.527472527472527,3.152288768579803
6.547252747252747,3.1087190611327293
6.567032967032967,3.0653279371879427
6.5868131868131865,3.0222969503513526
6.606593406593407,2.9798141795543613
6.626373626373626,2.9380737301417534
6.6461538461538465,2.8972750659344495
6.665934065934065,2.8576221471862646
6.685714285714286,2.8193223503881626
6.705494505494506,2.7825851487259117
6.725274725274725,2.7476205371177924
6.745054945054945,2.7146371935403466
6.764835164835165,2.6838403790446206
6.7846153846153845,2.6554295924897344
6.804395604395605,2.6295960122483004
6.824175824175824,2.6065197752151086
6.8439560439560445,2.5863671621417064
6.863736263736263,2.5692877759398196
6.883516483516484,2.555411814121536
6.903296703296704,2.5448475458452062
6.923076923076923,2.5376791061888877
6.942857142857143,2.53396471392382
6.962637362637362,2.533735403755048
6.9824175824175825,2.5369943404003323
7.002197802197802,2.5437167518082417
7.021978021978022,2.553850485049549
7.041758241758242,2.5673171542999516
7.061538461538461,2.5840138192682223
7.081318681318681,2.6038151073411373
7.101098901098901,2.626575675644076
7.1208791208791204,2.652132901056638
7.140659340659341,2.6803096867323415
7.16043956043956,2.710917281654973
7.1802197802197805,2.7437580233839234
7.199999999999999,2.7786279312824163
7.21978021978022,2.81531909612238
7.23956043956044,2.853621830252663
7.259340659340659,2.893326559174481
7.279120879120879,2.934225449541396
7.298901098901099,2.9761137798855644
7.318681318681318,3.0187910687213177
7.338461538461539,3.0620619803059057
7.358241758241758,3.1057370316146473
7.3780219780219785,3.1496331254576773
7.397802197802197,3.193573934578704
7.417582417582418,3.2373901604498534
7.437362637362638,3.28091968866922
7.457142857142857,3.3240076606703104
7.476923076923077,3.3665064790879464
7.496703296703297,3.4082757617564723
7.516483516483516,3.44918225705307
7.536263736263736,3.489099731211519
7.556043956043957,3.527908836357277
7.575824175824176,3.5654969663670277
7.595604395604395,3.6017581062347643
7.615384615384615,3.6365926794191714
7.635164835164835,3.6699073966358062
7.654945054945055,3.701615108722369
7.674725274725275,3.7316346655232664
7.694505494505494,3.759890782190215
7.7142857142857135,3.7863139138592605
7.734065934065935,3.810840139322282
7.753846153846154,3.8334110540483337
7.7736263736263735,3.8539736727120806
7.793406593406592,3.872480341241925
7.813186813186814,3.8888886582991655
7.832967032967034,3.9031614060329733
7.852747252747252,3.9152664899173266
7.872527472527472,3.925176887460023
7.892307692307693,3.9328706055745806
7.912087912087912,3.9383306464209964
7.931868131868132,3.941544981546154
7.951648351648351,3.9425065341878174
7.971428571428572,3.9412131696447794
7.991208791208791,3.9376676936580313
8.010989010989011,3.931877858792351
8.03076923076923,3.9238563788529164
8.05054945054945,3.9136209514157154
8.07032967032967,3.901194288592326
8.09010989010989,3.886604156187461
8.10989010989011,3.869883421439135
8.129670329670331,3.851070109554719
8.149450549450549,3.830207469268165
8.169230769230769,3.8073440476413998
8.189010989010988,3.78253377431181
8.20879120879121,3.7558360553432375
8.22857142857143,3.7273158767633547
8.248351648351647,3.697043917758985
8.268131868131867,3.6650966733430743
8.287912087912087,3.631556586093107
8.307692307692308,3.5965121862769136
8.327472527472528,3.560058239315112
8.347252747252746,3.5222958990613322
8.367032967032966,3.4833328647947828
8.386813186813187,3.4432835390925676
8.406593406593407,3.402269182860629
8.426373626373627,3.3604180627289155
8.446153846153845,3.3178655847386187
8.465934065934066,3.2747544067483787
8.485714285714286,3.231234520253566
8.505494505494505,3.187463290347783
8.525274725274725,3.143605440380088
8.545054945054945,3.0998329655176193
8.564835164835165,3.0563249569929587
8.584615384615384,3.0132673164216124
8.604395604395604,2.9708523373980493
8.624175824175826,2.9292781298628485
8.643956043956043,2.8887478617933082
8.663736263736263,2.8494687929876665
8.683516483516483,2.811651077527792
8.703296703296704,2.7755063153805333
8.723076923076924,2.7412458399776756
8.742857142857142,2.7090787378458567
8.762637362637362,2.6792096086050115
8.782417582417583,2.6518360887869856
8.802197802197803,2.627146180424554
8.821978021978023,2.605315444231588
8.84175824175824,2.5865041359594763
8.86153846153846,2.570854381268379
8.881318681318682,2.558487497045188
8.901098901098901,2.5495015734086075
8.920879120879121,2.5439694289260286
8.940659340659339,2.541937040835058
8.96043956043956,2.5434225323684148
8.98021978021978,2.5484157718664124
9.0,2.556878605582885
9.01978021978022,2.568745711119895
9.03956043956044,2.5839260247790756
9.05934065934066,2.602304667098768
9.079120879120879,2.623745269051334
9.098901098901099,2.6480925883390767
9.11868131868132,2.675175301293574
9.138461538461538,2.7048088602997558
9.158241758241758,2.736798317846459
9.178021978021977,2.7709410341900504
9.197802197802199,2.8070292040357603
9.217582417582419,2.8448521566095706
9.237362637362637,2.8841984014192628
9.257142857142856,2.9248574077719844
9.276923076923078,2.9666211190953606
9.296703296703297,3.009285213081035
9.316483516483517,3.0526501257334826
9.336263736263735,3.0965218618727572
9.356043956043957,3.140712616933697
9.375824175824176,3.185041235488496
9.395604395604396,3.2293335312421263
9.415384615384616,3.2734224917080876
9.435164835164835,3.3171483886964186
9.454945054945055,3.3603588133983853
9.474725274725275,3.402908652426891
9.494505494505495,3.444660018806517
9.514285714285714,3.485482149690883
9.534065934065934,3.5252512805714424
9.553846153846154,3.563850503954772
9.573626373626373,3.601169618931646
9.593406593406593,3.6371049767315444
9.613186813186815,3.671559326236557
9.632967032967032,3.7044416624974077
9.652747252747252,3.735667080530292
9.672527472527472,3.7651566360541815
9.692307692307693,3.7928372143331286
9.712087912087913,3.8186414078977826
9.731868131868131,3.8425074036176836
9.75164835164835,3.8643788793654323
9.771428571428572,3.8842049103436276
9.791208791208792,3.901939885022906
9.810989010989012,3.917543430556847
9.83076923076923,3.930980347487992
9.850549450549451,3.942220553533185
9.87032967032967,3.9512390362299157
9.89010989010989,3.958015814234688
9.90989010989011,3.962535907085641
9.92967032967033,3.964789313272068
9.94945054945055,3.964770996490675
9.96923076923077,3.9624808800103435
9.989010989010989,3.957923849112087
10.008791208791209,3.9511097616174804
10.028571428571428,3.9420534665651474
10.048351648351648,3.9307748311399813
10.068131868131868,3.917298776001679
10.08791208791209,3.901655319196294
10.107692307692307,3.8838796288647175
10.127472527472527,3.8640120849829276
10.147252747252747,3.8420983503772255
10.167032967032966,3.8181894512503174
10.186813186813188,3.7923418674258857
10.206593406593406,3.7646176324652494
10.226373626373626,3.7350844437230073
10.246153846153845,3.7038157822807367
10.265934065934067,3.6708910425198793
10.285714285714286,3.6363956708544998
10.305494505494504,3.600421312828709
10.325274725274724,3.563065967376067
10.345054945054946,3.5244341465211995
10.364835164835165,3.484637038157106
10.384615384615385,3.443792668733232
10.404395604395603,3.4020260617160063
10.424175824175824,3.3594693865127674
10.443956043956044,3.3162620911600333
10.463736263736264,3.2725510104528084
10.483516483516484,3.228490439324556
10.503296703296703,3.1842421591851706
10.523076923076923,3.139975402614033
10.542857142857143,3.095866739344247
10.562637362637362,3.052099863959382
10.582417582417584,3.0088652633032327
10.602197802197802,2.966359739483923
10.621978021978022,2.924785762815924
10.641758241758241,2.884350628438102
10.661538461538463,2.845265391093836
10.681318681318682,2.8077435551292727
10.7010989010989,2.771999501641093
