Frequency (Hz),Amplitude
0.0,2.604718518825835
0.019867549668874173,2.6046202756310657
0.039735099337748346,2.604325882506704
0.059602649006622516,2.603836347923172
0.07947019867549669,2.6031533496330113
0.09933774834437085,2.6022792301223134
0.11920529801324503,2.6012169902407685
0.13907284768211922,2.59997028100803
0.15894039735099338,2.5985433935945337
0.17880794701986755,2.596941247474818
0.1986754966887417,2.5951693767515382
0.2185430463576159,2.5932339146499075
0.23841059602649006,2.591141576182949
0.2582781456953642,2.588899638990142
0.27814569536423844,2.5865159223546494
0.2980132450331126,2.5839987644067834
0.31788079470198677,2.5813569975259307
0.33774834437086093,2.578599921956973
0.3576158940397351,2.575737277662682
0.3774834437086093,2.5727792144398234
0.3973509933774834,2.569736260333307
0.4172185430463576,2.5666192883901995
0.4370860927152318,2.5634394818046013
0.45695364238410596,2.5602082975126828
0.4768211920529801,2.556937428308243
0.49668874172185434,2.5536387635590776
0.5165562913907285,2.5503243486164657
0.5364238410596026,2.547006343021929
0.5562913907284769,2.543696977627799
0.5761589403973509,2.54040851076111
0.5960264900662252,2.5371531835734484
0.6158940397350993,2.5339431747322596
0.6357615894039735,2.5307905546224765
0.6556291390728477,2.527707239239337
0.6754966887417219,2.524704943966123
0.695364238410596,2.521795137441208
0.7152317880794702,2.518988995729399
0.7350993377483444,2.5162973570215756
0.7549668874172186,2.513730677094223
0.7748344370860927,2.511298985766222
0.7947019867549668,2.5090118445942893
0.8145695364238411,2.506878306050411
0.8344370860927152,2.5049068744237575
0.8543046357615894,2.5031054686871586
0.8741721854304636,2.5014813875625204
0.8940397350993378,2.5000412770112987
0.9139072847682119,2.4987911003662924
0.9337748344370861,2.497736111306493
0.9536423841059603,2.496880829862345
0.9735099337748344,2.496229021619511
0.9933774834437087,2.4957836802695486
1.0132450331125828,2.4955470136331748
1.033112582781457,2.495520433258079
1.0529801324503312,2.4957045476675175
1.0728476821192052,2.4960991593095248
1.0927152317880795,2.496703265229455
1.1125827814569538,2.4975150614610704
1.1324503311258278,2.498531951103663
1.1523178807947019,2.499750556026251
1.1721854304635762,2.501166732113389
1.1920529801324504,2.5027755879422084
1.2119205298013245,2.5045715067572556
1.2317880794701985,2.5065481715876463
1.2516556291390728,2.50869859333196
1.271523178807947,2.5110151416188007
1.2913907284768211,2.5134895782363116
1.3112582781456954,2.516113092911592
1.3311258278145695,2.5188763412113415
1.3509933774834437,2.52176948432821
1.370860927152318,2.5247822305124323
1.390728476821192,2.527903877906994
1.410596026490066,2.531123358544327
1.4304635761589404,2.534429283265688
1.4503311258278146,2.537809987328624
1.4701986754966887,2.5412535764748765
1.4900662251655628,2.5447479732385077
1.5099337748344372,2.5482809632841965
1.5298013245033113,2.551840241575897
1.5496688741721854,2.555413458187518
1.5695364238410596,2.5589882635795855
1.5894039735099337,2.5625523531787895
1.609271523178808,2.5660935111095373
1.6291390728476822,2.569599652940226
1.6490066225165563,2.573058867319704
1.6688741721854303,2.57645945639162
1.6887417218543048,2.579789974886743
1.7086092715231789,2.583039267805474
1.728476821192053,2.586196506612817
1.7483443708609272,2.5892512238793803
1.7682119205298013,2.592193346311115
1.7880794701986755,2.5950132261194785
1.8079470198675496,2.5977016706916216
1.8278145695364238,2.600249970527611
1.847682119205298,2.6026499254178592
1.8675496688741722,2.6048938688397056
1.8874172185430464,2.6069746905566884
1.9072847682119205,2.6088858574084344
1.9271523178807946,2.6106214322820023
1.9470198675496688,2.612176091258679
1.9668874172185429,2.6135451389318813
1.9867549668874174,2.614724521893689
2.0066225165562916,2.615710840388235
2.0264900662251657,2.6165013581310363
2.0463576158940397,2.617094010293298
2.066225165562914,2.61748740965022
2.086092715231788,2.6176808508919507
2.1059602649006623,2.617674313095177
2.1258278145695364,2.617468460352584
2.1456953642384105,2.6170646405568423
2.165562913907285,2.616464882334649
2.185430463576159,2.6156718901259834
2.205298013245033,2.614689037402912
2.2251655629139075,2.6135203580218533
2.2450331125827816,2.612170535703274
2.2649006622516556,2.6106448916328056
2.2847682119205297,2.6089493701783004
2.3046357615894038,2.607090522718593
2.324503311258278,2.605075489581006
2.3443708609271523,2.6029119800869913
2.364238410596027,2.6006082507079107
2.384105960264901,2.5981730813365207
2.403973509933775,2.5956157496838075
2.423841059602649,2.592946003815975
2.443708609271523,2.5901740328520453
2.463576158940397,2.5873104358492554
2.4834437086092715,2.5843661889112437
2.5033112582781456,2.5813526105618707
2.52317880794702,2.5782813254376205
2.543046357615894,2.5751642263610957
2.562913907284768,2.5720134348694494
2.5827814569536423,2.56884126028341
2.6026490066225163,2.5656601574148468
2.622516556291391,2.5624826830241827
2.642384105960265,2.559321451152355
2.662251655629139,2.5561890874660786
2.6821192052980134,2.553098182769184
2.7019867549668874,2.5500612458470853
2.7218543046357615,2.5470906558251403
2.741721854304636,2.5441986142354556
2.76158940397351,2.5413970969992357
2.781456953642384,2.538697806544047
2.801324503311258,2.5361121242858053
2.821192052980132,2.533651063715182
2.8410596026490067,2.5313252243351494
2.8609271523178808,2.529144746702935
2.8807947019867552,2.5271192688328044
2.9006622516556293,2.5252578842175732
2.9205298013245033,2.5235691017255744
2.9403973509933774,2.522060807625967
2.9602649006622515,2.52074022998853
2.9801324503311255,2.519613905694689
3.0,2.5186876502843463
3.0198675496688745,2.517966530847899
3.0397350993377485,2.5174548421551886
3.0596026490066226,2.5171560861930593
3.0794701986754967,2.5170729552604447
3.0993377483443707,2.5172073187456467
3.119205298013245,2.5175602136841344
3.1390728476821192,2.518131839167688
3.1589403973509933,2.5189215546470267
3.1788079470198674,2.5199278821411286
3.198675496688742,2.521148512336986
3.218543046357616,2.5225803145346757
3.23841059602649,2.524219350364183
3.2582781456953644,2.526060891173156
3.2781456953642385,2.528099438959075
3.2980132450331126,2.5303287506951517
3.3178807947019866,2.53274186587739
3.3377483443708607,2.535331137100693
3.3576158940397347,2.5380882634546977
3.3774834437086096,2.5410043265156914
3.3973509933774837,2.544069828699364
3.4172185430463577,2.5472747337301636
3.437086092715232,2.550608508977143
3.456953642384106,2.5540601694026885
3.47682119205298,2.5576183228697986
3.4966887417218544,2.561271216555384
3.5165562913907285,2.5650067842208744
3.5364238410596025,2.568812694097553
3.556291390728477,2.572676397151769
3.576158940397351,2.5765851755047646
3.596026490066225,2.580526190792331
3.615894039735099,2.5844865322616766
3.6357615894039736,2.5884532644150817
3.6556291390728477,2.5924134740236067
3.6754966887417218,2.5963543163472402
3.695364238410596,2.6002630604119146
3.7152317880794703,2.604127133207202
3.7350993377483444,2.607934162682182
3.754966887417219,2.6116720194296423
3.774834437086093,2.615328856961747
3.794701986754967,2.618893150491692
3.814569536423841,2.6223537341475005
3.834437086092715,2.6256998365541655
3.854304635761589,2.628921114730077
3.8741721854304636,2.63200768625235
3.8940397350993377,2.6349501596534077
3.9139072847682117,2.6377396630182344
3.9337748344370858,2.640367870757593
3.9536423841059607,2.642827028537979
3.9735099337748347,2.645109976353168
3.993377483443709,2.6472101697261032
4.013245033112583,2.649121699032616
4.033112582781457,2.650839306940621
4.052980132450331,2.652358403960275
4.072847682119205,2.653675082101172
4.0927152317880795,2.654786126633597
4.112582781456953,2.6556890259505304
4.132450331125828,2.656381979527197
4.152317880794702,2.6568639039738047
4.172185430463576,2.6571344371768157
4.19205298013245,2.6571939405225558
4.211920529801325,2.6570434991961864
4.231788079470199,2.6566849205475633
4.251655629139073,2.6561207305146883
4.271523178807947,2.655354168094048
4.291390728476821,2.6543891778465385
4.311258278145695,2.6532304004269505
4.33112582781457,2.6518831611245672
4.3509933774834435,2.6503534564027995
4.370860927152318,2.6486479384259813
4.390728476821192,2.646773897562896
4.410596026490066,2.6447392428580057
4.43046357615894,2.6425524804639804
4.450331125827815,2.6402226900321746
4.470198675496689,2.637759499061583
4.490066225165563,2.635173055211824
4.509933774834438,2.6324739965912913
4.529801324503311,2.629673420038454
4.549668874172186,2.626782847422011
4.569536423841059,2.623814189994276
4.589403973509934,2.620779710842266
4.6092715231788075,2.6176919854914833
4.629139072847682,2.6145638607296036
4.649006622516556,2.6114084117297063
4.66887417218543,2.608238897566983
4.688741721854305,2.6050687152368885
4.708609271523179,2.6019113522983015
4.728476821192054,2.598780338281006
4.748344370860927,2.595689195012876
4.768211920529802,2.5926513860388276
4.788079470198675,2.589680265319666
4.80794701986755,2.586789025415406
4.827814569536423,2.5839906453728103
4.847682119205298,2.581297838552163
4.867549668874172,2.5787230006414408
4.887417218543046,2.5762781581186487
4.9072847682119205,2.573974917433361
4.927152317880794,2.5718244151872414
4.947019867549669,2.5698372695991547
4.966887417218543,2.5680235335445483
4.986754966887418,2.566392649459148
5.006622516556291,2.564953406395197
5.026490066225166,2.5637138995128863
5.04635761589404,2.562681492281083
5.066225165562914,2.56186278164977
5.086092715231788,2.561263566441107
5.105960264900662,2.5608888191879955
5.125827814569536,2.560742661627558
5.14569536423841,2.5608283440326285
5.1655629139072845,2.5611482285378875
5.185430463576159,2.5617037765881605
5.205298013245033,2.5624955406058403
5.225165562913908,2.563523159942121
5.245033112582782,2.5647853611442017
5.264900662251656,2.5662799625366692
5.28476821192053,2.5680038830824587
5.304635761589404,2.5699531554557784
5.324503311258278,2.572122943228056
5.344370860927152,2.574507562037372
5.364238410596027,2.577100504584133
5.3841059602649,2.5798944692694517
5.403973509933775,2.582881392269632
5.4238410596026485,2.5860524828195515
5.443708609271523,2.5893982614604694
5.463576158940397,2.592908600993549
5.483443708609272,2.596572769869319
5.503311258278146,2.6003794777358036
5.52317880794702,2.6043169228631253
5.543046357615895,2.6083728411611973
5.562913907284768,2.612534556508299
5.582781456953643,2.616789032112264
5.602649006622516,2.6211229226328516
5.622516556291391,2.6255226268018372
5.642384105960264,2.629974340288473
5.662251655629139,2.6344641085695417
5.682119205298013,2.638977879576832
5.701986754966887,2.6435015559089496
5.7218543046357615,2.6480210464095326
5.741721854304636,2.6525223169292085
5.7615894039735105,2.6569914401043264
5.781456953642384,2.661414644000931
5.801324503311259,2.6657783594877067
5.821192052980132,2.6700692662165184
5.841059602649007,2.6742743371032374
5.860927152317881,2.6783808812151992
5.880794701986755,2.682376584984094
5.900662251655629,2.686249551674914
5.920529801324503,2.6899883390524044
5.940397350993377,2.6935819951961686
5.960264900662251,2.697020092424051
5.980132450331126,2.7002927592916843
6.0,2.703390710642141
6.0198675496688745,2.7063052756857338
6.039735099337749,2.7090284240945093
6.059602649006623,2.7115527901000203
6.079470198675497,2.713871694585631
6.099337748344371,2.715979165167063
6.119205298013245,2.7178699542561016
6.139072847682119,2.7195395551033643
6.158940397350993,2.720984215815876
6.178807947019867,2.7222009513451937
6.198675496688741,2.723187553440686
6.218543046357616,2.723942598561651
6.23841059602649,2.724465453740119
6.258278145695365,2.7247562803848377
6.2781456953642385,2.7248160360147096
6.298013245033113,2.7246464739082037
6.317880794701987,2.7242501406532202
6.337748344370861,2.7236303715800654
6.357615894039735,2.722791284058475
6.377483443708609,2.7217377686382136
6.397350993377484,2.7204754780116818
6.417218543046357,2.7190108137762303
6.437086092715232,2.7173509109738716
6.456953642384105,2.7155036203863316
6.47682119205298,2.713477488564734
6.496688741721854,2.7112817355750733
6.516556291390729,2.70892623044326
6.5364238410596025,2.7064214642876934
6.556291390728477,2.7037785211316123
6.5761589403973515,2.701009046393945
6.596026490066225,2.6981252130638955
6.6158940397351,2.695139685573465
6.635761589403973,2.692065581391327
6.655629139072848,2.6889164303724993
6.675496688741721,2.6857061319108753
6.695364238410596,2.6824489099548305
6.715231788079469,2.6791592659615646
6.735099337748344,2.6758519298815524
6.754966887417219,2.672541809282105
6.774834437086093,2.6692439367374297
6.794701986754967,2.665973415631466
6.814569536423841,2.6627453645401222
6.8344370860927155,2.6595748603797347
6.854304635761589,2.656476880529114
6.874172185430464,2.6534662441530785
6.894039735099337,2.650557552975681
6.913907284768212,2.647765131770246
6.933774834437086,2.6451029688520484
6.95364238410596,2.64258465687541
6.973509933774834,2.6402233342524393
6.993377483443709,2.638031627522636
7.013245033112583,2.6360215950121644
7.033112582781457,2.6342046721284706
7.052980132450331,2.6325916186390983
7.072847682119205,2.631192468282653
7.0927152317880795,2.6300164810562707
7.112582781456954,2.629072098514413
7.132450331125828,2.6283669024022163
7.152317880794702,2.627907576928921
7.172185430463576,2.627699874966517
7.19205298013245,2.627748588433723
7.211920529801324,2.628057523096657
7.231788079470198,2.6286294779861037
7.251655629139073,2.6294662295960554
7.271523178807947,2.6305685209913796
7.291390728476822,2.6319360559128704
7.311258278145695,2.633567497928334
7.33112582781457,2.6354604746364387
7.3509933774834435,2.637611586889745
7.370860927152318,2.640016422962798
7.390728476821192,2.642669577551744
7.410596026490066,2.6455646754552764
7.430463576158941,2.6486943997511707
7.450331125827814,2.652050524251589
7.470198675496689,2.6556239499907277
7.490066225165562,2.6594047454741867
7.509933774834438,2.6633821903977335
7.52980132450331,2.6675448225263234
7.549668874172186,2.6718804874108386
7.569536423841059,2.676376390611638
7.589403973509934,2.6810191520921043
7.6092715231788075,2.685794862445419
7.629139072847682,2.6906891406188453
7.649006622516557,2.6956871928068304
7.66887417218543,2.700773872191805
7.6887417218543055,2.705933739223765
7.708609271523178,2.711151122142829
7.728476821192054,2.71641017746431
7.748344370860927,2.721694950163216
7.768211920529802,2.7269894333126783
7.788079470198675,2.732277626949588
7.80794701986755,2.737543595960256
7.827814569536423,2.7427715267974664
7.847682119205298,2.747945782859997
7.8675496688741715,2.7530509583836955
7.887417218543046,2.758071930711479
7.907284768211921,2.762993910826296
7.927152317880795,2.767802492047552
7.9470198675496695,2.772483696805987
7.966887417218543,2.7770240214260227
7.986754966887418,2.781410478856749
8.006622516556291,2.7856306393042525
8.026490066225167,2.789672668727339
8.046357615894038,2.7935253651676337
8.066225165562914,2.797178192892104
8.086092715231787,2.800621314332139
8.105960264900663,2.8038456198080697
8.125827814569536,2.8068427550319686
8.14569536423841,2.8096051463838703
8.165562913907285,2.812126023958715
8.185430463576159,2.8143994423816774
8.205298013245034,2.816420299389981
8.225165562913906,2.8181843521779877
8.245033112582782,2.8196882315018805
8.264900662251655,2.820929453537245
8.28476821192053,2.821906429481372
8.304635761589404,2.822618472889063
8.324503311258278,2.823065804727302
8.344370860927151,2.8232495561316764
8.364238410596027,2.8231717688435265
8.3841059602649,2.822835393303544
8.403973509933774,2.822244284374715
8.42384105960265,2.82140319466384
8.443708609271523,2.820317765408881
8.463576158940398,2.818994514896139
8.483443708609272,2.817440824370321
8.503311258278146,2.8156649213988296
8.52317880794702,2.8136758606512013
8.543046357615895,2.8114835020551676
8.562913907284768,2.8090984862921635
8.582781456953642,2.8065322075974284
8.602649006622515,2.803796783833739
8.62251655629139,2.800905023812743
8.642384105960264,2.7978703918443175
8.66225165562914,2.794706969502701
8.682119205298013,2.7914294146074052
8.701986754966887,2.7880529174288107
8.721854304635762,2.7845931541413327
8.741721854304636,2.781066237562253
8.76158940397351,2.7774886652312736
8.781456953642383,2.7738772649044923
8.801324503311259,2.7702491375574225
8.821192052980132,2.766621598013499
8.841059602649008,2.7630121133388843
8.86092715231788,2.7594382391689423
8.880794701986755,2.7559175541589527
8.90066225165563,2.7524675927777196
8.920529801324504,2.7491057766915636
8.940397350993377,2.7458493450129846
8.960264900662251,2.7427152837163935
8.980132450331126,2.739720254549513
9.0,2.7368805237945844
9.019867549668875,2.734211891256584
9.039735099337747,2.7317296198768624
9.059602649006623,2.7294483663882296
9.079470198675496,2.727382113441857
9.099337748344372,2.7255441036464974
9.119205298013245,2.7239467759661227
9.139072847682119,2.7226017049223517
9.158940397350994,2.7215195430436108
9.178807947019868,2.720709966992038
9.198675496688743,2.7201816277832402
9.218543046357615,2.7199421054919886
9.23841059602649,2.71999786880922
9.258278145695364,2.720354239782692
9.27814569536424,2.7210153640358175
9.298013245033111,2.721984186715972
9.317880794701987,2.7232624343779848
9.33774834437086,2.72485060295754
9.357615894039736,2.7267479519382456
9.37748344370861,2.728952504761544
9.397350993377483,2.7314610554746435
9.417218543046358,2.734269181557529
9.437086092715232,2.7373712628170623
9.456953642384107,2.740760506185572
9.47682119205298,2.744428976213156
9.496688741721854,2.7483676309987426
9.516556291390728,2.7525663632645774
9.536423841059603,2.7570140462440023
9.556291390728477,2.761698584021602
9.57615894039735,2.7666069659407575
9.596026490066224,2.771725324673938
9.6158940397351,2.7770389975381886
9.635761589403973,2.7825325906298617
9.655629139072847,2.7881900453502824
9.675496688741722,2.793994706896143
9.695364238410596,2.7999293942958627
9.715231788079471,2.8059764715835853
9.735099337748345,2.8121179197181223
9.754966887417218,2.8183354088713184
9.774834437086092,2.8246103707315244
9.794701986754967,2.830924070489898
9.814569536423841,2.8372576782016226
9.834437086092716,2.8435923392392284
9.854304635761588,2.849909243580512
9.874172185430464,2.8561896936994775
9.894039735099337,2.8624151708537786
9.913907284768213,2.8685673995870613
9.933774834437086,2.874628410287821
9.95364238410596,2.880580599669454
9.973509933774835,2.8864067890563727
9.993377483443709,2.892090280381319
10.013245033112582,2.8976149098161077
10.033112582781456,2.902965098974412
10.052980132450331,2.908125903639143
10.072847682119205,2.9130830599795687
10.09271523178808,2.917823028233827
10.112582781456952,2.922333033841372
10.132450331125828,2.926601106017285
10.152317880794701,2.9306161137657116
10.172185430463577,2.934367799334251
10.192052980132452,2.937846809113435
10.211920529801324,2.9410447219871836
10.2317880794702,2.9439540751402444
10.251655629139073,2.9465683873278126
10.271523178807948,2.948882179610756
10.29139072847682,2.950890993557121
10.311258278145695,2.952591406907261
10.331125827814569,2.953981046695883
10.350993377483444,2.9550585998196253
10.370860927152318,2.955823821033759
10.390728476821192,2.956277538356567
10.410596026490065,2.9564216558537093
10.43046357615894,2.9562591537703824
10.450331125827816,2.9557940859721583
10.470198675496688,2.955031574651131
10.490066225165563,2.9539778022479815
10.509933774834437,2.952640000536322
10.529801324503312,2.9510264368111354
10.549668874172186,2.949146397119801
10.56953642384106,2.947010166471228
10.589403973509933,2.9446290059574176
10.609271523178808,2.9420151267205323
10.629139072847682,2.939181660700152
10.649006622516556,2.936142628097033
10.66887417218543,2.932912901494172
10.688741721854305,2.9295081665817153
10.70860927152318,2.9259448794402507
10.728476821192054,2.922240220347122
10.748344370860927,2.918412044083138
10.7682119205298,2.9144788267319823
