Time (s),Filtered Signal
0.0,-0.08591689066187692
0.033370165745856356,-0.33496085661660485
0.06674033149171271,-0.5202439713815944
0.10011049723756907,-0.59081808165886
0.13348066298342542,-0.517695217963752
0.16685082872928178,-0.30126899510182964
0.20022099447513814,0.026807049745736663
0.2335911602209945,0.4092530401952513
0.26696132596685085,0.7761117095511771
0.30033149171270723,1.0619000429811296
0.33370165745856356,1.2217408958618188
0.3670718232044199,1.2412331898562823
0.4004419889502763,1.137062126891795
0.43381215469613266,0.9488013205425259
0.467182320441989,0.7254004023229188
0.5005524861878453,0.511230138650359
0.5339226519337017,0.3359552378536966
0.5672928176795581,0.21050883170594126
0.6006629834254145,0.12907458642497596
0.6340331491712707,0.07516504873982181
0.6674033149171271,0.02910782556934823
0.7007734806629835,-0.0254837712683948
0.7341436464088398,-0.0977195160507205
0.7675138121546962,-0.18822655454019413
0.8008839779005525,-0.2901418648321192
0.8342541436464089,-0.3913666440055835
0.8676243093922653,-0.47733138645472867
0.9009944751381216,-0.5339385522801402
0.934364640883978,-0.5505858952167075
0.9677348066298344,-0.5229930075988489
1.0011049723756906,-0.45510832476069507
1.0344751381215471,-0.3591245569579371
1.0678453038674034,-0.2529976609617084
1.1012154696132597,-0.15585535954266247
1.1345856353591162,-0.082797659445759
1.1679558011049724,-0.0411235851196106
1.201325966850829,-0.029526811397640754
1.2346961325966852,-0.04044762595237557
1.2680662983425415,-0.064250741885557
1.301436464088398,-0.09306089038341937
1.3348066298342542,-0.12241768387657415
1.3681767955801105,-0.1502345912317345
1.401546961325967,-0.17411232910495858
1.4349171270718233,-0.1889729026261809
1.4682872928176796,-0.18674504918028764
1.501657458563536,-0.1586204629731754
1.5350276243093923,-0.09894026401392529
1.5683977900552488,-0.008889512963334711
1.601767955801105,0.10170343446704314
1.6351381215469614,0.21526269972547898
1.6685082872928179,0.30981284420165545
1.7018784530386741,0.36390988895707593
1.7352486187845306,0.3621356589635071
1.768618784530387,0.3000840645006382
1.8019889502762432,0.18749993396694742
1.8353591160220997,0.04796280301701273
1.868729281767956,-0.08607670244824502
1.9020994475138122,-0.1825113692892227
1.9354696132596687,-0.22030927664437716
1.968839779005525,-0.1973329728060244
2.0022099447513813,-0.13123265356928093
2.0355801104972375,-0.05227013135715142
2.0689502762430942,0.009077867057531266
2.1023204419889505,0.034075600067762356
2.135690607734807,0.021713105349376368
2.169060773480663,-0.013706039163497396
2.2024309392265193,-0.0514693892467852
2.235801104972376,-0.07481808491130752
2.2691712707182323,-0.07745675239765205
2.3025414364640886,-0.06345962731659345
2.335911602209945,-0.04163767198218494
2.369281767955801,-0.01833773395545414
2.402651933701658,0.00689343014972214
2.436022099447514,0.04043079709726353
2.4693922651933704,0.08943441184935329
2.5027624309392267,0.15597401982582962
2.536132596685083,0.23427521656009145
2.5695027624309392,0.3129159163339289
2.602872928176796,0.3806615388233582
2.636243093922652,0.4322949782994918
2.6696132596685085,0.4706931392572428
2.7029834254143648,0.5036088806252105
2.736353591160221,0.5368546801519344
2.7697237569060777,0.5679691523136544
2.803093922651934,0.584560865631954
2.8364640883977903,0.5691799604736714
2.8698342541436466,0.5089118060438839
2.903204419889503,0.40481872469648805
2.936574585635359,0.2755946776414617
2.969944751381216,0.15202665437170199
3.003314917127072,0.06331812487198345
3.0366850828729284,0.021037644368553092
3.0700552486187846,0.008969744988250842
3.103425414364641,-0.014310702912624556
3.1367955801104976,-0.0988032525741429
3.170165745856354,-0.27844856869631096
3.20353591160221,-0.550211143480095
3.2369060773480665,-0.8689603062149285
3.2702762430939227,-1.1639756546587952
3.3036464088397794,-1.3721430662109857
3.3370165745856357,-1.4727299003294376
3.370386740331492,-1.5047653376950665
3.4037569060773483,-1.5537944731882039
3.4371270718232045,-1.7087626558582987
3.4704972375690613,-2.0059989151987723
3.5038674033149175,-2.3874752339555116
3.537237569060774,-2.6982581967945056
3.57060773480663,-2.7323643853006216
3.6039779005524863,-2.3131209735908076
3.6373480662983426,-1.374723552622032
3.6707182320441993,-0.006920339857152599
3.7040883977900556,1.5608863507375683
3.737458563535912,3.032097765818004
3.770828729281768,4.140866586701593
3.8041988950276244,4.7328348130209115
3.837569060773481,4.796105557596413
3.8709392265193374,4.435645826343628
3.9043093922651937,3.8109416531763958
3.93767955801105,3.07021585052
3.9710497237569062,2.3096850008871708
4.0044198895027625,1.5686051736867435
4.037790055248619,0.8515892477441717
4.071160220994475,0.1588989862550906
4.104530386740332,-0.49329194814522054
4.1379005524861885,-1.0707046003268625
4.171270718232044,-1.5333364632376287
4.204640883977901,-1.8521026225550659
4.238011049723757,-2.0196855591273124
4.271381215469614,-2.0509925634831467
4.30475138121547,-1.9750962619207972
4.338121546961326,-1.8244000391050978
4.371491712707183,-1.626700656570702
4.404861878453039,-1.4028580644461168
4.438232044198895,-1.1691472682312063
4.471602209944752,-0.9410453197362224
4.504972375690608,-0.7350818219109739
4.538342541436465,-0.5671077729157525
4.5717127071823205,-0.4477602102598202
4.605082872928177,-0.37770833438795415
4.638453038674034,-0.34559352192064513
4.67182320441989,-0.33033619005738074
4.7051933701657465,-0.3073529143573803
4.738563535911602,-0.2562911531502936
4.771933701657459,-0.16710791213999035
4.805303867403316,-0.04206494613591229
4.8386740331491715,0.1069044616396087
4.872044198895028,0.2639225882231693
4.905414364640884,0.4151749370182339
4.938784530386741,0.5524717796415527
4.972154696132597,0.6729846051530947
5.005524861878453,0.7757242628044156
5.03889502762431,0.8569865376636878
5.072265193370166,0.907617808349487
5.105635359116023,0.9142057631510841
5.1390055248618784,0.864390068077876
5.172375690607735,0.7541954145817581
5.205745856353592,0.5937354540727668
5.239116022099448,0.4077796834781026
5.272486187845304,0.22973160015052882
5.30585635359116,0.09072415686101638
5.339226519337017,0.008253046559044342
5.372596685082874,-0.02045506121313168
5.4059668508287295,-0.016908866363583255
5.439337016574586,-0.011847922526636653
5.472707182320442,-0.03174554352537302
5.506077348066299,-0.0873466849514068
5.5394475138121555,-0.16946454655326346
5.572817679558011,-0.25388971128855337
5.606187845303868,-0.31295319529013765
5.639558011049724,-0.3281885749879313
5.672928176795581,-0.29820969829315447
5.706298342541437,-0.238462760591883
5.739668508287293,-0.17354199904380163
5.77303867403315,-0.12619117419430773
5.806408839779006,-0.10828943812206387
5.839779005524862,-0.1176387778397115
5.873149171270718,-0.1412000530875165
5.906519337016575,-0.16230673734299575
5.939889502762432,-0.16788477857936834
5.9732596685082875,-0.15241271491556668
6.006629834254144,-0.1176315132346794
6.04,-0.06942108867223604
6.073370165745857,-0.014429991883618105
6.1067403314917135,0.04152594793169263
6.140110497237569,0.09299239484112355
6.173480662983426,0.13365247086019338
6.206850828729282,0.15616676974804117
6.240220994475139,0.15403501415236093
6.273591160220995,0.12485254627625335
6.306961325966851,0.07306872574817866
6.340331491712708,0.010237027931162197
6.373701657458564,-0.04807050190568664
6.40707182320442,-0.08765819855905847
6.440441988950277,-0.10094837177995085
6.473812154696133,-0.08950570736930084
6.50718232044199,-0.06266044684639688
6.5405524861878455,-0.03311665248743167
6.573922651933702,-0.011933758510062677
6.607292817679559,-0.005303072909628895
6.640662983425415,-0.014169602153006042
6.674033149171271,-0.03593912063697167
6.707403314917127,-0.06645194581031098
6.740773480662984,-0.10071731526717877
6.774143646408841,-0.1322584105165141
6.8075138121546965,-0.15230939399233112
6.840883977900553,-0.15052910617125062
6.874254143646409,-0.11800577599275579
6.907624309392266,-0.05165729968950177
6.9409944751381225,0.042232003440871434
6.974364640883978,0.1476949491338884
7.007734806629835,0.2429625022595688
7.041104972375691,0.3073741960215995
7.074475138121548,0.32846091089266216
7.107845303867403,0.3060877943986976
7.14121546961326,0.2518653428147882
7.174585635359117,0.18419670994561688
7.207955801104973,0.12120564895309366
7.241325966850829,0.07451860309699229
7.274696132596685,0.04625344730105371
7.308066298342542,0.03003639640490915
7.341436464088399,0.015183815287359384
7.3748066298342545,-0.00796669589582764
7.408176795580111,-0.04383876353450843
7.441546961325967,-0.09011591769118517
7.474917127071824,-0.13930254706842976
7.5082872928176805,-0.18235549425352554
7.541657458563536,-0.2125333778828371
7.575027624309393,-0.22760803959207215
7.608397790055249,-0.22945400152095208
7.641767955801106,-0.22138839044702827
7.675138121546962,-0.2048435315985719
7.708508287292818,-0.17742083887330135
7.741878453038675,-0.13379893462463244
7.775248618784531,-0.06950838367664132
7.808618784530387,0.014138635281568682
7.841988950276244,0.10676683133775416
7.8753591160221,0.1897979229211699
7.908729281767957,0.24209007514413206
7.9420994475138125,0.24836306433444544
7.975469613259669,0.20646122873723977
8.008839779005525,0.12955901869136613
8.042209944751383,0.041736613527642984
8.075580110497238,-0.031230547013837227
8.108950276243094,-0.07149904630869752
8.14232044198895,-0.07470233196638518
8.175690607734808,-0.049202626476914015
8.209060773480664,-0.01012890048982768
8.24243093922652,0.028299584663277783
8.275801104972377,0.0582832714044373
8.309171270718233,0.07948949621066007
8.342541436464089,0.09583782885925936
8.375911602209946,0.1103191895579158
8.409281767955802,0.12092105013732891
8.442651933701658,0.11998122931896527
8.476022099447514,0.09746860709268128
8.509392265193371,0.04665181532412678
8.542762430939227,-0.030702123370847097
8.576132596685083,-0.1224216377212657
8.60950276243094,-0.2087027731620942
8.642872928176796,-0.26872845883672924
8.676243093922652,-0.28835368549863355
8.709613259668508,-0.26538032708139525
8.742983425414366,-0.20992682868084303
8.776353591160222,-0.13965130522116123
8.809723756906077,-0.07203052295650081
8.843093922651935,-0.0172998118384637
8.87646408839779,0.02470989828943932
8.909834254143647,0.06255213653734679
8.943204419889504,0.10718439923288244
8.97657458563536,0.16502952512596422
9.009944751381216,0.2333065784422434
9.043314917127072,0.299580140429474
9.07668508287293,0.34549234986666133
9.110055248618785,0.35295590672675425
9.143425414364641,0.3103573984570482
9.176795580110499,0.21663619477882778
9.210165745856354,0.08211425997263244
9.24353591160221,-0.07385039683208285
9.276906077348068,-0.22736979755063505
9.310276243093924,-0.35524411399891687
9.34364640883978,-0.439560085795933
9.377016574585635,-0.4708149137186191
9.410386740331493,-0.44924142373195736
9.443756906077349,-0.38433914861790114
9.477127071823205,-0.2926999139173571
9.510497237569062,-0.1942466531199224
9.543867403314918,-0.10724495660409074
9.577237569060774,-0.04299338748597319
9.610607734806631,-0.0017361552584334713
9.643977900552487,0.02837411150384329
9.677348066298343,0.06792143971273094
9.710718232044199,0.13850672222366558
9.744088397790057,0.2526096761130463
9.777458563535912,0.4047035231629403
9.810828729281768,0.5678816241667031
9.844198895027626,0.6989679916468151
9.877569060773482,0.7519004878193207
9.910939226519337,0.6951631990423836
9.944309392265193,0.5261644308267656
9.97767955801105,0.27562991556427097
10.011049723756907,-0.0010973363828994766
10.044419889502763,-0.24297701564468172
10.07779005524862,-0.4044516134785385
10.111160220994476,-0.4696436052972255
10.144530386740332,-0.4537363966650407
10.17790055248619,-0.39200185507631796
10.211270718232045,-0.3226755392399314
10.244640883977901,-0.2720597682824643
10.278011049723757,-0.24800222978152422
10.311381215469615,-0.24287158985751586
10.34475138121547,-0.2423105628956183
10.378121546961326,-0.23395726504848405
10.411491712707184,-0.21174132530661585
10.44486187845304,-0.1749641365151207
10.478232044198895,-0.12473677944253539
10.511602209944753,-0.0614798397941244
10.544972375690609,0.014328083261584666
10.578342541436465,0.09886550249700969
10.61171270718232,0.1821073992164023
10.645082872928178,0.24845105389421224
10.678453038674034,0.2817798219731128
10.71182320441989,0.27293819653545925
10.745193370165747,0.22563059767932345
10.778563535911603,0.1570791071824675
10.811933701657459,0.0922929585874861
10.845303867403315,0.05415435317578571
10.878674033149172,0.05386888491558391
10.912044198895028,0.0863570578069143
10.945414364640884,0.13280920606334884
10.978784530386742,0.16910807305432232
11.012154696132598,0.17599564868237527
11.045524861878453,0.1461977810206928
11.078895027624311,0.08550270991698931
11.112265193370167,0.007980730783705196
11.145635359116023,-0.07159909233650909
11.179005524861878,-0.14400687678806223
11.212375690607736,-0.20741598307765888
11.245745856353592,-0.2644705728612982
11.279116022099448,-0.3167912792138796
11.312486187845305,-0.36047730399264427
11.345856353591161,-0.3855013227672335
11.379226519337017,-0.3796301773547236
11.412596685082875,-0.33486166423666747
11.44596685082873,-0.25279261840785305
11.479337016574586,-0.1457378539286041
11.512707182320442,-0.03264576727902129
11.5460773480663,0.06830462352560472
11.579447513812156,0.14670016707132774
11.612817679558011,0.20297151572132677
11.646187845303869,0.24614706080417384
11.679558011049725,0.2876256018180758
11.71292817679558,0.3341789704042764
11.746298342541436,0.38351713129307163
11.779668508287294,0.42430066976653197
11.81303867403315,0.440390737637597
11.846408839779006,0.4174024705254764
11.879779005524863,0.34888602422811293
11.91314917127072,0.2397830420376654
11.946519337016575,0.10591284379389856
11.979889502762433,-0.030303800250805642
12.013259668508288,-0.14633812077531944
12.046629834254144,-0.2259287342387423
12.08,-0.26306995168452285
12.113370165745858,-0.26230279842268817
12.146740331491714,-0.23550015303827307
12.18011049723757,-0.1967291128257145
12.213480662983427,-0.1574129698617868
12.246850828729283,-0.12363443365582694
12.280220994475139,-0.09627999402003791
12.313591160220996,-0.07343157976282742
12.346961325966852,-0.053555499231064375
12.380331491712708,-0.03789529635739991
12.413701657458564,-0.03096013489690568
12.447071823204421,-0.038829707950454116
12.480441988950277,-0.0658719543604622
12.513812154696133,-0.11115730793037765
12.54718232044199,-0.16616878859744708
12.580552486187846,-0.2151965506354546
12.613922651933702,-0.23899187197157923
12.64729281767956,-0.2209632652818318
12.680662983425416,-0.1538589826549282
12.714033149171271,-0.04416559052228993
12.747403314917127,0.08806527834790995
12.780773480662985,0.21453382676991914
12.81414364640884,0.3074705480861257
12.847513812154697,0.3485346178859202
12.880883977900554,0.33433314957364096
12.91425414364641,0.27651576208207085
12.947624309392266,0.19670573666779528
12.980994475138122,0.11854227413550295
13.01436464088398,0.05995843889220664
13.047734806629835,0.028325101112114642
13.081104972375691,0.01970931325417958
13.114475138121549,0.02193683785404013
13.147845303867404,0.01997531626122071
13.18121546961326,0.0016149990048612277
13.214585635359118,-0.03846231597862066
13.247955801104974,-0.09744187580099468
13.28132596685083,-0.16607298065813
13.314696132596685,-0.23225952513513384
13.348066298342543,-0.2848123959279752
13.381436464088399,-0.315817560431531
13.414806629834255,-0.3210769570106021
13.448176795580112,-0.2993062796657027
13.481546961325968,-0.25141642654541785
13.514917127071824,-0.18078911580016396
13.548287292817681,-0.0942290792870799
13.581657458563537,-0.002131977980331214
13.615027624309393,0.08365519754004813
13.648397790055249,0.15441583400096015
13.681767955801106,0.2095635522793194
13.715138121546962,0.2585959468705877
13.748508287292818,0.3172085215290208
13.781878453038676,0.39778119540506857
13.815248618784532,0.4983564949773138
13.848618784530387,0.5965533047632855
13.881988950276245,0.6536006919259707
13.9153591160221,0.6288271619360009
13.948729281767957,0.4988882707460243
13.982099447513813,0.2723376937483761
14.01546961325967,-0.008584178935089762
14.048839779005526,-0.2810876677989948
14.082209944751382,-0.4844914412713823
14.11558011049724,-0.5821153605028399
14.148950276243095,-0.5726268940302445
14.182320441988951,-0.4865009813187253
14.215690607734807,-0.37045971358456165
14.249060773480664,-0.2678888078002711
14.28243093922652,-0.2039815172704569
14.315801104972376,-0.18098024161976003
14.349171270718234,-0.18360739123976844
14.38254143646409,-0.1903501451151959
14.415911602209945,-0.1845352745599339
14.449281767955803,-0.16038294957929564
14.482651933701659,-0.12238909501696049
14.516022099447515,-0.07975614889926651
14.54939226519337,-0.039653261858391665
14.582762430939228,-0.0030811809385062135
14.616132596685084,0.03472250528840345
14.64950276243094,0.08001866347127333
14.682872928176797,0.13515960549093708
14.716243093922653,0.19522616572090956
14.749613259668509,0.2486649602300791
14.782983425414367,0.28169758073544193
14.816353591160222,0.28431312154275235
14.849723756906078,0.25488895101928727
14.883093922651934,0.20120779171725112
14.916464088397792,0.13740261328716977
14.949834254143648,0.07826481338544292
14.983204419889503,0.03350821974262877
15.016574585635361,0.004515393405574226
15.049944751381217,-0.015092849308965338
15.083314917127073,-0.035448807045851176
15.116685082872928,-0.06487113871760025
15.150055248618786,-0.10526129091388517
15.183425414364642,-0.1505177287780699
15.216795580110498,-0.1886608426204371
15.250165745856355,-0.20669645549218524
15.283535911602211,-0.19602126792288532
15.316906077348067,-0.1559653632062308
15.350276243093925,-0.09398734608607848
15.38364640883978,-0.022631816423233267
15.417016574585636,0.045185469867473516
15.450386740331492,0.10040286958153931
15.48375690607735,0.13986996568324975
15.517127071823205,0.16575260241392945
15.550497237569061,0.1830237983302445
15.583867403314919,0.19644523887787146
15.617237569060775,0.20835616834322343
15.65060773480663,0.21794449020000048
15.683977900552488,0.22189557071990706
15.717348066298344,0.21579009649328063
15.7507182320442,0.19554246227567004
15.784088397790056,0.15846382743556242
15.817458563535913,0.1039360442148484
15.85082872928177,0.033898132877999275
15.884198895027625,-0.046774002003353674
15.917569060773483,-0.1302634833478193
15.950939226519338,-0.20670222938626232
15.984309392265194,-0.26627963935319976
16.01767955801105,-0.30219170346135993
16.051049723756908,-0.31321074039162516
16.084419889502765,-0.3043334662591987
16.11779005524862,-0.28463286388857584
16.151160220994477,-0.2629245666665394
16.18453038674033,-0.2433129712827361
16.21790055248619,-0.22309714813367085
16.251270718232046,-0.194443114281102
16.2846408839779,-0.14917009980629958
16.318011049723758,-0.08415825391462828
16.351381215469615,-0.0044132142751589455
16.38475138121547,0.07794894383613883
16.418121546961327,0.14832600166790053
16.451491712707185,0.19551018737242518
16.48486187845304,0.2159534507700606
16.518232044198896,0.21455094767487015
16.551602209944754,0.2018950228912283
16.584972375690608,0.18954761779253565
16.618342541436466,0.18552096571102739
16.651712707182323,0.19173239563495897
16.685082872928177,0.20411071847436701
16.718453038674035,0.2148675740388617
16.751823204419892,0.21568790827547496
16.785193370165747,0.20047139581516116
16.818563535911604,0.1667341424400234
16.851933701657458,0.1155802043612234
16.885303867403316,0.05084203339673336
16.918674033149173,-0.021824066404053214
16.952044198895027,-0.09550089672347363
16.985414364640885,-0.16248372780648715
17.018784530386743,-0.215229814739886
17.052154696132597,-0.24801570049080154
17.085524861878454,-0.2587827064387354
17.118895027624312,-0.2501161727244539
17.152265193370166,-0.22850336208305366
17.185635359116024,-0.2019117830789344
17.21900552486188,-0.17674466815472348
