Frequency (Hz),Amplitude
0.0,1.8262845405120158
0.020066889632107024,1.8376154143700711
0.04013377926421405,1.871152701233856
0.060200668896321065,1.925609330607208
0.0802675585284281,1.9990729087282462
0.10033444816053512,2.0892678666182047
0.12040133779264213,2.1938007694742283
0.14046822742474915,2.3103448920977234
0.1605351170568562,2.436753453346262
0.1806020066889632,2.5711124952944786
0.20066889632107024,2.7117520247342144
0.22073578595317725,2.8572327799322235
0.24080267558528426,3.006321352636576
0.2608695652173913,3.1579616636050614
0.2809364548494983,3.311247194668118
0.3010033444816054,3.465396043318795
0.3210702341137124,3.6197295060511325
0.34113712374581934,3.7736541830846457
0.3612040133779264,3.926647269668199
0.3812709030100334,4.078244584570213
0.4013377926421405,4.2280308796760595
0.42140468227424743,4.375632016477214
0.4414715719063545,4.52070865410047
0.4615384615384615,4.662951153784827
0.4816053511705685,4.80207545946329
0.5016722408026756,4.937819760954662
0.5217391304347826,5.069941785017517
0.5418060200668896,5.198216590921882
0.5618729096989966,5.322434772335043
0.5819397993311036,5.4424009873018555
0.6020066889632107,5.557932753922965
0.6220735785953176,5.668859461844632
0.6421404682274248,5.775021559564314
0.6622073578595318,5.876269885386252
0.6822742474916387,5.972465116071919
0.7023411371237458,6.063477312169953
0.7224080267558528,6.149185542951659
0.7424749163879598,6.229477577033559
0.7625418060200668,6.304249627304825
0.7826086956521738,6.373406140824431
0.802675585284281,6.436859626012024
0.8227424749163879,6.494530510808059
0.8428093645484949,6.546347026585304
0.862876254180602,6.592245113504967
0.882943143812709,6.632168343765994
0.903010033444816,6.666067859826697
0.923076923076923,6.693902325209113
0.9431438127090299,6.715637885948772
0.963210702341137,6.731248141142034
0.983277591973244,6.7407141213845225
1.0033444816053512,6.744024274197308
1.0234113712374582,6.741174455814324
1.0434782608695652,6.732167928961526
1.0635451505016722,6.71701536650498
1.0836120401337792,6.6957348610878595
1.1036789297658862,6.668351941122656
1.1237458193979932,6.634899593762354
1.1438127090301002,6.595418295750071
1.1638795986622072,6.549956053350197
1.1839464882943145,6.4985684529043715
1.2040133779264215,6.441318723944717
1.2240802675585283,6.378277817247989
1.2441471571906353,6.309524500744325
1.2642140468227423,6.2351454768235595
1.2842809364548495,6.155235525334976
1.3043478260869565,6.0698976774852
1.3244147157190636,5.979243426941954
1.3444816053511706,5.8833929857983165
1.3645484949832773,5.782475594705634
1.3846153846153846,5.676629898522388
1.4046822742474916,5.566004401352409
1.4247491638795986,5.450758017988119
1.4448160535117056,5.331060742697903
1.4648829431438126,5.207094461213242
1.4849498327759196,5.079053937950583
1.5050167224080266,4.947148018291613
1.5250836120401337,4.811601095581159
1.5451505016722407,4.672654904938781
1.5652173913043477,4.530570721706491
1.5852842809364547,4.385632062210393
1.605351170568562,4.238148009487363
1.625418060200669,4.088457317813673
1.6454849498327757,3.936933488344043
1.6655518394648827,3.783991054680564
1.6856187290969897,3.630093371551782
1.705685618729097,3.4757622596455495
1.725752508361204,3.321589918211371
1.745819397993311,3.1682535589720335
1.765886287625418,3.016533209112292
1.7859531772575248,2.867333019236733
1.806020066889632,2.721706090913177
1.826086956521739,2.5808821371208093
1.846153846153846,2.4462959512150615
1.866220735785953,2.319612358366376
1.8862876254180598,2.202739776178861
1.9063545150501673,2.097819825823571
1.926421404682274,2.007175803798841
1.9464882943143813,1.933201446282809
1.966555183946488,1.8781787170345476
1.9866220735785953,1.8440344324368663
2.0066889632107023,1.8320784466161588
2.026755852842809,1.8427950711360201
2.0468227424749164,1.8757597030619209
2.0668896321070234,1.9297126104820053
2.0869565217391304,2.002761466427273
2.1070234113712374,2.0926420204125877
2.1270903010033444,2.196964153548283
2.1471571906354514,2.3133984466964024
2.1672240802675584,2.4397916559655077
2.1872909698996654,2.5742214748005283
2.2073578595317724,2.715008998464596
2.2274247491638794,2.8607062954878986
2.2474916387959865,3.010071948116057
2.267558528428094,3.1620426949011526
2.2876254180602005,3.3157056831022755
2.3076923076923075,3.4702734673720244
2.3277591973244145,3.625062504100177
2.3478260869565215,3.7794751584229527
2.367892976588629,3.9329849016824694
2.3879598662207355,4.085124255624285
2.408026755852843,4.235475029119203
2.4280936454849495,4.383660433096156
2.4481605351170566,4.529338717331529
2.468227424749164,4.672198032669332
2.4882943143812706,4.811952276961673
2.508361204013378,4.9483377299709845
2.5284280936454846,5.081110321380246
2.548494983277592,5.210043407628496
2.568561872909699,5.334925958587669
2.5886287625418056,5.455561075218933
2.608695652173913,5.571764775287924
2.6287625418060196,5.6833649968259845
2.648829431438127,5.790200778995658
2.668896321070234,5.89212158791368
2.688963210702341,5.988986761248225
2.709030100334448,6.080665050389727
2.7290969899665547,6.167034242969928
2.749163879598662,6.247980851687466
2.769230769230769,6.323399857956544
2.789297658862876,6.39319450096064
2.809364548494983,6.457276104366804
2.82943143812709,6.515563934319885
2.849498327759197,6.56798508345193
2.869565217391304,6.6144743765616045
2.8896321070234112,6.654974294380008
2.9096989966555182,6.689434912475525
2.9297658862876252,6.7178138528862235
2.9498327759197323,6.74007624652421
2.9698996655518393,6.756194704789529
2.9899665551839463,6.766149299174753
3.0100334448160533,6.769927547947855
3.0301003344481603,6.76752440927919
3.0501672240802673,6.758942280437838
3.0702341137123748,6.744191002931182
3.0903010033444813,6.723287873705789
3.1103678929765888,6.69625766277602
3.1304347826086953,6.663132637905671
3.1505016722408024,6.623952597245752
3.1705685618729094,6.57876491113641
3.1906354515050164,6.527624574623643
3.210702341137124,6.470594272632211
3.2307692307692304,6.407744460189827
3.250836120401338,6.3391534606301
3.270903010033445,6.26490758533343
3.2909698996655514,6.18510127932114
3.311036789297659,6.099837297929985
3.3311036789297654,6.009226920900387
3.351170568561873,5.913390211562644
3.3712374581939795,5.81245633046228
3.391304347826087,5.706563914808578
3.411371237458194,5.5958615376599115
3.4314381270903005,5.480508263904022
3.451505016722408,5.360674324016024
3.471571906354515,5.236541931491586
3.491638795986622,5.1083062760260525
3.511705685618729,4.976176732285564
3.531772575250836,4.8403783339276885
3.551839464882943,4.701153574924377
3.5719063545150496,4.558764615899416
3.591973244147157,4.413495992941742
3.612040133779264,4.2656579511659505
3.632107023411371,4.115590556228926
3.652173913043478,3.9636687751132134
3.672240802675585,3.8103087634554473
3.692307692307692,3.655975650278716
3.712374581939799,3.501193169758159
3.732441471571906,3.34655554675143
3.752508361204013,3.1927420828957507
3.7725752508361197,3.0405348822252867
3.7926421404682276,2.890840041654661
3.8127090301003346,2.744712310406878
3.832775919732441,2.603382525856982
3.852842809364548,2.468285810323474
3.872909698996655,2.3410862448797367
3.8929765886287626,2.223690249991931
3.9130434782608696,2.11823630781867
3.933110367892976,2.0270441223381366
3.953177257525083,1.9525049434180426
3.9732441471571907,1.8969018534655102
3.9933110367892977,1.8621693267572197
4.013377926421405,1.8496335426765365
4.033444816053511,1.8598036008942522
4.053511705685618,1.892284896289137
4.073578595317726,1.9458475500108017
4.093645484949833,2.018623668464891
4.113712374581939,2.108364766505323
4.133779264214047,2.2126872091010203
4.153846153846153,2.3292601556659096
4.173913043478261,2.4559233001542373
4.193979933110368,2.5907438988025056
4.214046822742475,2.73203104635271
4.234113712374581,2.878324496400241
4.254180602006689,3.028370960669851
4.274247491638796,3.1810961505395583
4.294314381270903,3.3355771920052493
4.314381270903009,3.491017645321845
4.334448160535117,3.6467259434142676
4.354515050167224,3.802097306896693
4.374581939799331,3.956598837585612
4.394648829431437,4.109757360052592
4.414715719063545,4.26114956361526
4.434782608695651,4.410394033185522
4.454849498327759,4.557144813202279
4.474916387959866,4.7010862076952264
4.494983277591973,4.841928573734936
4.5150501672240795,4.979404912306228
4.535117056856188,5.113268099554024
4.555183946488294,5.243288633015156
4.575250836120401,5.36925279287607
4.595317725752508,5.490961138553038
4.615384615384615,5.608227276960185
4.635451505016722,5.720876851552697
4.655518394648829,5.828746711303073
4.6755852842809364,5.931684226747502
4.695652173913043,6.029546726574192
4.71571906354515,6.122201033266901
4.735785953177258,6.209523080341334
4.7558528428093645,6.291397596936074
4.775919732441471,6.367717848111487
4.795986622073578,6.438385421302963
4.816053511705686,6.503310051071161
4.8361204013377925,6.5624094756746745
4.856187290969899,6.61560932012208
4.8762541806020065,6.6628430012929964
4.896321070234113,6.7040516514901975
4.916387959866221,6.7391840574304345
4.936454849498328,6.768196612225188
4.956521739130435,6.791053278365262
4.976588628762541,6.807725560122061
4.996655518394649,6.818192484127191
5.016722408026756,6.822440587202735
5.036789297658863,6.82046391079727
5.056856187290969,6.812264001645743
5.076923076923077,6.797849918523586
5.096989966555184,6.777238245213321
5.117056856187291,6.750453110053819
5.137123745819398,6.717526212704775
5.157190635451505,6.6784968590406635
5.177257525083611,6.6334120053976875
5.197324414715719,6.582326313743836
5.217391304347826,6.525302219738527
5.237458193979933,6.462410016107074
5.257525083612039,6.393727954294218
5.277591973244148,6.31934236799973
5.297658862876254,6.239347822963669
5.317725752508361,6.153847298289877
5.337792642140468,6.062952405713763
5.357859531772575,5.966783654583654
5.377926421404682,5.865470771996297
5.397993311036789,5.759153089586321
5.418060200668896,5.647980011017295
5.438127090301003,5.532111577386996
5.458193979933109,5.411719151706056
5.478260869565218,5.28698624854676
5.498327759197324,5.158109541154539
5.518394648829431,5.025300086109207
5.538461538461538,4.888784815446224
5.558528428093646,4.748808358540491
5.578595317725752,4.605635271685046
5.598662207357859,4.4595527729716915
5.618729096989966,4.310874104742198
5.638795986622073,4.159942676549522
5.65886287625418,4.007137179218445
5.678929765886288,3.852877905825228
5.698996655518394,3.697634567831039
5.719063545150501,3.5419359515817717
5.739130434782608,3.3863818148155085
5.759197324414716,3.2316574590513727
5.7792642140468224,3.078551400672039
5.799331103678929,2.9279764434384323
5.8193979933110365,2.7809941272218235
5.839464882943144,2.638841827283761
5.8595317725752505,2.5029604613872403
5.879598662207358,2.375018522100332
5.8996655518394645,2.256924735855677
5.919732441471571,2.1508171859586462
5.9397993311036785,2.0590123799587072
5.959866220735786,1.9838965186411266
5.9799331103678925,1.9277482021102335
5.999999999999999,1.8925017354372615
6.020066889632107,1.8794913176829378
6.040133779264214,1.8892442134033183
6.060200668896321,1.9213924964752838
6.080267558528428,1.9747364354168064
6.100334448160535,2.047435450669102
6.120401337792642,2.1372606149724955
6.1404682274247495,2.241837982997876
6.160535117056856,2.358837047135259
6.180602006688963,2.4860905263796425
6.200668896321069,2.6216538702034238
6.2207357859531776,2.7638217371128633
6.240802675585284,2.9111184663673204
6.260869565217391,3.062275469288717
6.280936454849498,3.2162039118253705
6.301003344481605,3.3719674511521465
6.321070234113712,3.528757370766387
6.341137123745819,3.6858710118360225
6.361204013377926,3.8426936150582653
6.381270903010033,3.9986833105140014
6.40133779264214,4.15335884624088
6.421404682274248,4.306289619721086
6.441471571906354,4.457087606683085
6.461538461538461,4.6054008339678525
6.481605351170568,4.750908100069382
6.501672240802676,4.893314700125266
6.521739130434782,5.032348958417157
6.54180602006689,5.1677594101681725
6.561872909698996,5.299312506074911
6.581939799331103,5.426790738511763
6.60200668896321,5.5499911087141545
6.622073578595318,5.668723870439972
6.642140468227424,5.782811498451474
6.662207357859531,5.892087840341177
6.682274247491639,5.9963974183031565
6.702341137123746,6.095594853870765
6.722408026755852,6.189544393755885
6.742474916387959,6.278119519010798
6.762541806020066,6.361202623009311
6.782608695652174,6.4386847463788905
6.80267558528428,6.510465359144447
6.822742474916388,6.576452182071312
6.842809364548494,6.636561040602651
6.862876254180601,6.690715745939621
6.882943143812709,6.738847998762903
6.903010033444816,6.780897311881927
6.9230769230769225,6.816810948756486
6.94314381270903,6.846543875389898
6.963210702341137,6.870058723565406
6.983277591973244,6.887325763804313
7.0033444816053505,6.898322886780886
7.023411371237458,6.903035592246244
7.0434782608695645,6.901456984802319
7.063545150501672,6.893587776135903
7.083612040133779,6.879436293580261
7.103678929765886,6.859018495125649
7.123745819397993,6.832357991257022
7.143812709030099,6.799486074265801
7.1638795986622075,6.760441755970152
7.183946488294314,6.715271815094196
7.204013377926421,6.664030855910744
7.224080267558528,6.606781380156264
7.2441471571906355,6.543593874695537
7.264214046822742,6.474546917962557
7.2842809364548495,6.399727308855818
7.304347826086956,6.319230222544597
7.324414715719063,6.233159398580829
7.34448160535117,6.141627367847702
7.364548494983278,6.044755726262155
7.384615384615384,5.942675464846005
7.404682274247491,5.835527367870229
7.424749163879598,5.72346249336017
7.444816053511706,5.606642753454826
7.464882943143812,5.485241616106007
7.48494983277592,5.359444954591474
7.505016722408026,5.229452077567061
7.525083612040134,5.095476980233813
7.545150501672239,4.957749867072537
7.565217391304348,4.8165190090322305
7.585284280936455,4.6720530137030805
7.605351170568561,4.524643606644246
7.625418060200669,4.374609046571052
7.645484949832775,4.222298327497442
7.665551839464882,4.068096358046
7.685618729096991,3.9124303524304573
7.705685618729096,3.7557777184587327
7.725752508361204,3.598675782344654
7.74581939799331,3.4417337405823694
7.765886287625418,3.285647259398296
7.785953177257525,3.131216120635992
7.806020066889631,2.979365181262762
7.826086956521739,2.8311685717560335
7.846153846153847,2.687876344916116
7.866220735785952,2.5509414654081746
7.88628762541806,2.42204281270539
7.906354515050166,2.3030965323496635
7.926421404682274,2.1962437750411965
7.946488294314381,2.103798777100024
7.966555183946488,2.0281403030291143
7.986622073578595,1.971536503764781
8.006688963210701,1.9359126089739742
8.02675585284281,1.9226006765120143
8.046822742474916,1.9321370300979392
8.066889632107022,1.9641743822524949
8.08695652173913,2.0175409914317495
8.107023411371236,2.090424706920816
8.127090301003344,2.180619036749269
8.147157190635452,2.2857627752979055
8.167224080267557,2.4035278697612306
8.187290969899665,2.5317407875454445
8.207357859531772,2.6684445093698077
8.227424749163879,2.8119174799257465
8.247491638795987,2.960666076455899
8.267558528428093,3.1134034101491097
8.2876254180602,3.269022899304135
8.307692307692307,3.4265715037030096
8.327759197324415,3.5852250889199437
8.347826086956522,3.744266917316018
8.367892976588628,3.9030694506116945
8.387959866220736,4.061079248397307
8.408026755852843,4.217804582691167
8.42809364548495,4.372805350187007
8.448160535117056,4.52568488629121
8.468227424749163,4.676083332580375
8.488294314381271,4.823672263282401
8.508361204013378,4.968150327897827
8.528428093645484,5.109239712474082
8.548494983277592,5.24668326034461
8.568561872909697,5.380242124635578
8.588628762541806,5.5096938503327415
8.608695652173914,5.634830804138049
8.628762541806019,5.755458886641819
8.648829431438127,5.871396474294797
8.668896321070234,5.982473548959695
8.68896321070234,6.088530981005143
8.709030100334449,6.189419938419287
8.729096989966555,6.2850013996170855
8.749163879598662,6.375145751772881
8.769230769230768,6.459732459846009
8.789297658862875,6.538649794154586
8.809364548494983,6.611794606524848
8.82943143812709,6.679072146807752
8.849498327759196,6.740395912993195
8.869565217391303,6.795687529331961
8.889632107023411,6.8448766478481
8.909698996655518,6.887900869431367
8.929765886287624,6.924705681374045
8.949832775919733,6.955244408785062
8.96989966555184,6.979478177799151
8.989966555183946,6.997375888916528
9.010033444816054,7.008914199174762
9.030100334448159,7.014077512180508
9.050167224080267,7.01285797532589
9.070234113712376,7.005255483791003
9.09030100334448,6.991277691199196
9.110367892976589,6.970940027052963
9.130434782608695,6.944265721343233
9.150501672240802,6.9112858370015005
9.17056856187291,6.872039311160464
9.190635451505017,6.826573006514483
9.210702341137123,6.774941774435832
9.23076923076923,6.7172085319191215
9.250836120401337,6.6534443549082
9.270903010033445,6.583728591125218
9.290969899665551,6.508148996190965
9.311036789297658,6.426801897625592
9.331103678929765,6.339792392281448
9.351170568561873,6.247234583925809
9.37123745819398,6.1492518691111595
9.391304347826086,6.045977281208795
9.411371237458194,5.937553904618216
9.4314381270903,5.824135373803043
9.451505016722408,5.705886475073517
9.471571906354516,5.582983873101499
9.49163879598662,5.455616989225423
9.511705685618729,5.323989064946241
9.531772575250837,5.188318451965013
9.551839464882942,5.048840180090528
9.57190635451505,4.905807866870805
9.591973244147155,4.75949604851224
9.612040133779264,4.610203031295965
9.632107023411372,4.458254387132119
9.652173913043477,4.3040072469844155
9.672240802675585,4.147855582383514
9.692307692307692,3.990236708365804
9.712374581939798,3.831639289973706
9.732441471571907,3.672613185497104
9.752508361204013,3.5137815046631062
9.77257525083612,3.3558552818483713
9.792642140468226,3.199651130313269
9.812709030100335,3.0461120944645796
9.832775919732441,2.8963315531585607
9.852842809364548,2.751579289752044
9.872909698996656,2.613327508195848
9.89297658862876,2.4832723723864216
9.91304347826087,2.3633433942543145
9.933110367892976,2.255688909748424
9.953177257525082,2.162622158920669
9.97324414715719,2.086511992345333
9.993311036789297,2.0296094715134747
10.013377926421404,1.993820473957805
10.033444816053512,1.980462664255521
10.053511705685617,1.990069653695388
10.073578595317725,2.022305863875846
10.093645484949834,2.0760227505077973
10.113712374581938,2.1494357458291957
10.133779264214047,2.2403625831176006
10.153846153846153,2.346457573898398
10.17391304347826,2.465397558821151
10.193979933110368,2.595004116826596
10.214046822742475,2.7333078405703515
10.234113712374581,2.878569886345304
10.254180602006688,3.0292767127498332
10.274247491638796,3.1841205869993967
10.294314381270903,3.3419743031468148
10.31438127090301,3.501865108232245
10.334448160535118,3.6629504312402945
10.354515050167223,3.824496521205263
10.37458193979933,3.985860262212161
10.394648829431437,4.146474007306558
10.414715719063544,4.305833089232362
10.434782608695652,4.463485613219225
10.454849498327757,4.619024149879078
10.474916387959865,4.772078987569454
10.494983277591974,4.9223126536593025
10.515050167224079,5.069415463300634
10.535117056856187,5.213101898351856
10.555183946488295,5.353107656666043
10.5752508361204,5.489187243093719
10.595317725752508,5.621111998909032
10.615384615384615,5.74866848680089
10.635451505016722,5.871657164930106
10.65551839464883,5.989891296606544
10.675585284280936,6.1031960525413345
10.695652173913043,6.211407770917316
10.71571906354515,6.314373347133218
10.735785953177256,6.411949730362632
10.755852842809364,6.5040035083042245
10.775919732441471,6.5904105649044
10.795986622073578,6.671055798579072
10.816053511705684,6.745832890684378
10.836120401337793,6.814644115792936
10.856187290969899,6.877400186807877
10.876254180602006,6.934020129157834
10.896321070234114,6.98443117931539
10.916387959866219,7.02856870371144
10.936454849498327,7.066376134812351
10.956521739130435,7.097804921712871
