Frequency (Hz),Amplitude
0.0,2.6187222883320365
0.01978021978021978,2.61757564202603
0.03956043956043956,2.6141372013412516
0.05934065934065934,2.608411462932506
0.07912087912087912,2.600405927799311
0.0989010989010989,2.5901311113521572
0.11868131868131868,2.577600557918979
0.13846153846153844,2.562830860118814
0.15824175824175823,2.54584168367114
0.17802197802197803,2.5266557983666598
0.1978021978021978,2.5052991161026648
0.21758241758241756,2.4818007370892348
0.23736263736263735,2.4561930055677554
0.2571428571428572,2.4285115766576637
0.2769230769230769,2.3987954962710485
0.2967032967032967,2.367087296417649
0.31648351648351647,2.3334331086789852
0.3362637362637363,2.297882799175926
0.35604395604395606,2.2604901290080766
0.3758241758241758,2.221312944930592
0.3956043956043956,2.1804134059822573
0.4153846153846154,2.137858252922863
0.4351648351648351,2.093719128718748
0.45494505494505494,2.0480729599805794
0.4747252747252747,2.001002411261579
0.4945054945054945,1.9525964265279827
0.5142857142857143,1.9029508749788493
0.5340659340659341,1.8521693217775939
0.5538461538461538,1.8003639482030969
0.5736263736263736,1.7476566502322088
0.5934065934065934,1.694180349543955
0.6131868131868132,1.6400805561530338
0.6329670329670329,1.585517226835658
0.6527472527472528,1.530666967261125
0.6725274725274726,1.4757256266189946
0.6923076923076923,1.4209113287250987
0.7120879120879121,1.3664679685485408
0.7318681318681318,1.3126691707425089
0.7516483516483516,1.2598226465572846
0.7714285714285715,1.2082747827598455
0.7912087912087912,1.1584151322059402
0.810989010989011,1.110680230607101
0.8307692307692308,1.065555824807061
0.8505494505494506,1.0235761759202484
0.8703296703296702,0.985318661905096
0.8901098901098901,0.9513916084820492
0.9098901098901099,0.9224134063304646
0.9296703296703297,0.898981894290966
0.9494505494505494,0.8816349891852904
0.9692307692307692,0.8708065048188218
0.989010989010989,0.8667841807884508
1.0087912087912088,0.8696786173506738
1.0285714285714287,0.8794106429161417
1.0483516483516484,0.8957204163220944
1.0681318681318681,0.9181958696204664
1.087912087912088,0.9463134755158942
1.1076923076923075,0.9794826141790182
1.1274725274725275,1.0170860987116828
1.1472527472527472,1.0585123799200205
1.1670329670329669,1.103178012413917
1.1868131868131868,1.1505411486460961
1.2065934065934065,1.2001079145608398
1.2263736263736265,1.2514337548100813
1.2461538461538462,1.3041215875884409
1.2659340659340659,1.357818180044187
1.2857142857142858,1.4122097239884102
1.3054945054945055,1.4670172369359136
1.3252747252747252,1.5219921533649523
1.3450549450549452,1.5769122950060008
1.3648351648351649,1.6315782974525412
1.3846153846153846,1.6858105042636717
1.4043956043956045,1.7394463035836376
1.4241758241758242,1.7923378649577213
1.443956043956044,1.8443502278876314
1.4637362637362636,1.8953596938321444
1.4835164835164834,1.9452524767682622
1.5032967032967033,1.9939235722611992
1.523076923076923,2.0412758102063484
1.542857142857143,2.0872190614438497
1.5626373626373626,2.131669573036032
1.5824175824175823,2.174549411036291
1.6021978021978023,2.2157859930529615
1.621978021978022,2.2553116958585235
1.6417582417582417,2.293063525769681
1.6615384615384616,2.3289828415892524
1.6813186813186813,2.363015121617919
1.7010989010989013,2.3951097676679924
1.720879120879121,2.4252199401914436
1.7406593406593405,2.453302419612589
1.7604395604395604,2.4793174897672436
1.7802197802197801,2.5032288400246707
1.7999999999999998,2.525003483230465
1.8197802197802198,2.5446116870784112
1.8395604395604395,2.5620269169133785
1.8593406593406594,2.5772257882999874
1.879120879120879,2.590188027973796
1.8989010989010988,2.600896442032905
1.9186813186813187,2.6093368904359666
1.9384615384615385,2.6154982670538587
1.9582417582417584,2.619372484682709
1.978021978021978,2.620954464569856
1.9978021978021978,2.620242130136062
2.0175824175824175,2.6172364047005656
2.0373626373626372,2.611941213133506
2.0571428571428574,2.604363487476222
2.076923076923077,2.5945131766870073
2.096703296703297,2.5824032607910894
2.1164835164835165,2.568049769842317
2.1362637362637362,2.5514718082437646
2.1560439560439564,2.5326915851291427
2.175824175824176,2.511734451681102
2.195604395604396,2.488628946461524
2.215384615384615,2.463406850058612
2.2351648351648348,2.436103250623883
2.254945054945055,2.406756622187287
2.2747252747252746,2.3754089180116846
2.2945054945054943,2.3421056816915913
2.314285714285714,2.306896179230864
2.3340659340659338,2.2698335559692695
2.353846153846154,2.230975022990948
2.3736263736263736,2.190382078566914
2.3934065934065933,2.1481207712917665
2.413186813186813,2.104262012910997
2.4329670329670328,2.0588819504460094
2.452747252747253,2.012062409161785
2.4725274725274726,1.9638914202452038
2.4923076923076923,1.9144638498319302
2.512087912087912,1.8638821492929964
2.5318681318681318,1.812257250510652
2.5516483516483515,1.7597096342397607
2.5714285714285716,1.7063706044936993
2.5912087912087913,1.6523838069999401
2.610989010989011,1.5979070346847397
2.6307692307692307,1.5431143670017378
2.6505494505494505,1.4881986911801965
2.6703296703296706,1.4333746495394841
2.6901098901098903,1.3788820436830553
2.70989010989011,1.3249896970671184
2.7296703296703297,1.2719997223115027
2.7494505494505495,1.2202520448574252
2.769230769230769,1.1701288823806526
2.7890109890109893,1.1220586502056134
2.808791208791209,1.0765184425866685
2.8285714285714287,1.0340338347073375
2.8483516483516484,0.9951743155454152
2.8681318681318677,0.960542338404248
2.887912087912088,0.9307540216492425
2.9076923076923076,0.9064103000810195
2.9274725274725273,0.8880591249394096
2.947252747252747,0.8761521050594453
2.9670329670329667,0.8710020683023462
2.986813186813187,0.8727499925449314
3.0065934065934066,0.8813491161514253
3.0263736263736263,0.89657032463546
3.046153846153846,0.9180273975855712
3.0659340659340657,0.9452158226589911
3.085714285714286,0.9775566568540383
3.1054945054945056,1.0144377266108686
3.1252747252747253,1.0552471889259218
3.145054945054945,1.099397553546197
3.1648351648351647,1.1463406026347671
3.184615384615385,1.1955749024033278
3.2043956043956046,1.2466479625727966
3.2241758241758243,1.2991549217409328
3.243956043956044,1.3527352336685248
3.2637362637362637,1.407068398584181
3.2835164835164834,1.4618694179697505
3.3032967032967036,1.5168843775124083
3.3230769230769233,1.5718863745648686
3.342857142857143,1.6266718853646491
3.3626373626373627,1.6810575942710375
3.3824175824175824,1.7348776664834522
3.4021978021978025,1.7879814253516941
3.4219780219780223,1.8402313873869933
3.441758241758242,1.891501607138449
3.4615384615384617,1.94167628688966
3.481318681318681,1.9906486106455021
3.501098901098901,2.0383197669582866
3.520879120879121,2.0845981301486485
3.5406593406593405,2.1293985740918564
3.5604395604395602,2.1726418968320975
3.58021978021978,2.2142543378266457
3.5999999999999996,2.2541671726345203
3.61978021978022,2.2923163724014928
3.6395604395604395,2.3286423176148174
3.659340659340659,2.363089557367381
3.679120879120879,2.3956066068374673
3.6989010989010986,2.426145776906718
3.718681318681319,2.454663030847309
3.7384615384615385,2.481117863846605
3.758241758241758,2.5054732018332295
3.7780219780219784,2.5276953166484355
3.7978021978021976,2.547753755091061
3.8175824175824173,2.5656212797710545
3.8373626373626375,2.5812738200491965
3.8571428571428568,2.5946904316311934
3.876923076923077,2.605853263632612
3.896703296703296,2.6147475321447975
3.916483516483517,2.6213614995180374
3.936263736263736,2.62568645874249
3.956043956043956,2.6277167224543625
3.9758241758241755,2.627449616229062
3.9956043956043956,2.6248854759480507
4.015384615384615,2.6200276491454733
4.035164835164835,2.6128825003573706
4.054945054945055,2.6034594206136643
4.0747252747252745,2.59177084133413
4.094505494505494,2.5778322530175353
4.114285714285715,2.5616622292516107
4.134065934065934,2.543282456724244
4.153846153846154,2.52271777208784
4.173626373626373,2.4999962067241928
4.193406593406594,2.4751490406823797
4.213186813186813,2.4482108673246215
4.232967032967033,2.4192196705225255
4.252747252747253,2.3882169166099
4.2725274725274724,2.355247663729971
4.292307692307692,2.320360691729744
4.312087912087913,2.2836086563706948
4.331868131868132,2.245048272364573
4.351648351648352,2.2047405306326753
4.371428571428571,2.162750956257953
4.391208791208792,2.119149914889114
4.410989010989011,2.0740129769088114
4.43076923076923,2.027421350543429
4.450549450549451,1.9794623973259713
4.4703296703296695,1.9302302459832956
4.49010989010989,1.8798265239589083
4.50989010989011,1.8283612294416907
4.52967032967033,1.7759537709528181
4.549450549450549,1.7227342061803261
4.569230769230769,1.6688447166456746
4.589010989010989,1.6144413595150628
4.608791208791209,1.5596961416256279
4.628571428571428,1.5047994621581626
4.648351648351649,1.4499629669516936
4.6681318681318675,1.3954228453237532
4.687912087912088,1.341443573352532
4.707692307692308,1.2883220568086906
4.7274725274725276,1.2363920394774766
4.747252747252747,1.1860285018720236
4.767032967032967,1.1376515627508195
4.786813186813187,1.0917290969787987
4.806593406593407,1.0487769014511212
4.826373626373626,1.0093548217718251
4.846153846153847,0.9740569190678767
4.8659340659340655,0.9434937398450507
4.885714285714286,0.918265380410051
4.905494505494506,0.8989256216223543
4.9252747252747255,0.8859399827546078
4.945054945054945,0.8796435392525827
4.964835164835165,0.8802065089540082
4.984615384615385,0.887615464689411
5.004395604395604,0.9016749123462982
5.024175824175824,0.9220288205471645
5.043956043956045,0.9481967197797853
5.0637362637362635,0.9796163027104542
5.083516483516483,1.0156847348120817
5.103296703296703,1.0557932687783642
5.123076923076923,1.0993527524754725
5.142857142857143,1.1458100607608006
5.162637362637362,1.1946569077692335
5.182417582417583,1.245433004704907
5.2021978021978015,1.2977254448769082
5.221978021978022,1.3511658400332676
5.241758241758242,1.4054263136006833
5.2615384615384615,1.4602150860195588
5.281318681318681,1.5152721022437923
5.301098901098901,1.5703649510416857
5.320879120879121,1.625285194313605
5.340659340659341,1.6798451437483952
5.36043956043956,1.7338750757033117
5.380219780219781,1.787220851002771
5.3999999999999995,1.8397418958404415
5.41978021978022,1.8913094974422744
5.43956043956044,1.9418053699762339
5.4593406593406595,1.9911204501529867
5.479120879120879,2.039153886740242
5.498901098901099,2.0858121930767513
5.518681318681319,2.131008536238776
5.538461538461538,2.174662140608388
5.558241758241758,2.216697787165677
5.578021978021979,2.2570453928861176
5.5978021978021975,2.2956396572118227
5.617582417582418,2.3324197647368634
5.637362637362637,2.367329135059029
5.6571428571428575,2.4003152122584477
5.676923076923077,2.4313292877160975
5.696703296703297,2.460326351025402
5.716483516483517,2.487264964614143
5.736263736263735,2.512107158412794
5.756043956043956,2.534818341504553
5.775824175824176,2.5553672281934676
5.795604395604395,2.5737257763473536
5.815384615384615,2.589869136226464
5.835164835164835,2.6037756083094283
5.854945054945055,2.6154266088840297
5.874725274725275,2.624806642391224
5.894505494505494,2.6319032797024207
5.914285714285715,2.636707141679024
5.934065934065933,2.639211887514099
5.953846153846154,2.6394142074934033
5.973626373626374,2.637313819940459
5.993406593406593,2.6329134722317
6.013186813186813,2.6262189458856664
6.032967032967033,2.6172390658486875
6.052747252747253,2.605985714220526
6.072527472527473,2.5924738487916157
6.092307692307692,2.576721526900751
6.112087912087913,2.5587499352738856
6.131868131868131,2.5385834266736085
6.151648351648352,2.516249564381544
6.171428571428572,2.491779175756819
6.191208791208791,2.465206416370719
6.210989010989011,2.4365688465181696
6.230769230769231,2.405907522261403
6.2505494505494505,2.3732671035811035
6.270329670329671,2.338695982710606
6.29010989010989,2.3022464363261776
6.309890109890111,2.2639748059821265
6.329670329670329,2.2239417120384792
6.349450549450549,2.182212307361117
6.36923076923077,2.1388565783148823
6.3890109890109885,2.0939497020602746
6.408791208791209,2.0475724709506826
6.428571428571428,1.9998117969611153
6.4483516483516485,1.9507613116134286
6.468131868131868,1.9005220798472158
6.487912087912088,1.8492034497523593
6.507692307692308,1.7969240640297914
6.527472527472527,1.743813063411769
6.547252747252747,1.6900115168627663
6.567032967032967,1.6356741177933098
6.5868131868131865,1.580971188996383
6.606593406593407,1.5260910402313967
6.626373626373626,1.4712427191070336
6.6461538461538465,1.4166591845597762
6.665934065934065,1.3626009072070933
6.685714285714286,1.3093598538634545
6.705494505494506,1.257263732841293
6.725274725274725,1.2066802471376326
6.745054945054945,1.1580209071491314
6.764835164835165,1.1117436794087585
6.7846153846153845,1.068353394416678
6.804395604395605,1.028398443081806
6.824175824175824,0.9924619634355578
6.8439560439560445,0.9611456600745144
6.863736263736263,0.9350449043011854
6.883516483516484,0.9147151311678391
6.903296703296704,0.9006318598367475
6.923076923076923,0.8931494810951873
6.942857142857143,0.8924661971707324
6.962637362637362,0.8986027831570876
6.9824175824175825,0.9114003646378354
7.002197802197802,0.9305377728342268
7.021978021978022,0.9555641611978685
7.041758241758242,0.9859395171002009
7.061538461538461,1.0210754145948862
7.081318681318681,1.060370281717844
7.101098901098901,1.1032362579122073
7.1208791208791204,1.1491171955955286
7.140659340659341,1.197498938641553
7.16043956043956,1.2479136815989536
7.1802197802197805,1.2999402501895885
7.199999999999999,1.3532018540392488
7.21978021978022,1.407362472063362
7.23956043956044,1.4621226642873635
7.259340659340659,1.5172153111058257
7.279120879120879,1.5724015693053597
7.298901098901099,1.6274671918805892
7.318681318681318,1.6822192688202993
7.338461538461539,1.7364833928464003
7.358241758241758,1.7901012250850759
7.3780219780219785,1.8429284218494777
7.397802197802197,1.8948328790134907
7.417582417582418,1.945693250892906
7.437362637362638,1.9953977036470556
7.457142857142857,2.0438428674796354
7.476923076923077,2.0909329564934223
7.496703296703297,2.1365790294742126
7.516483516483516,2.1806983689165675
7.536263736263736,2.2232139591683207
7.556043956043957,2.2640540476499074
7.575824175824176,2.303151775726869
7.595604395604395,2.3404448680255636
7.615384615384615,2.3758753708357685
7.635164835164835,2.409389431791604
7.654945054945055,2.440937114310788
7.674725274725275,2.4704722413450853
7.694505494505494,2.4979522638874254
7.7142857142857135,2.523338150424545
7.734065934065935,2.5465942941449278
7.753846153846154,2.567688435231002
7.7736263736263735,2.586591596000461
7.793406593406592,2.6032780270293103
7.813186813186814,2.6177251627008533
7.832967032967034,2.629913584890602
7.852747252747252,2.6398269937257828
7.872527472527472,2.6474521845567294
7.892307692307693,2.6527790304520256
7.912087912087912,2.6558004696849107
7.931868131868132,2.6565124978197234
7.951648351648351,2.6549141641379705
7.971428571428572,2.651007572267386
7.991208791208791,2.6447978849973746
8.010989010989011,2.6362933333840006
8.03076923076923,2.625505230369746
8.05054945054945,2.6124479892714323
8.07032967032967,2.597139147626979
8.09010989010989,2.5795993970419806
8.10989010989011,2.5598526198447233
8.129670329670331,2.5379259335478364
8.149450549450549,2.513849744332068
8.169230769230769,2.4876578110194143
8.189010989010988,2.4593873212964548
8.20879120879121,2.4290789822944605
8.22857142857143,2.3967771280409997
8.248351648351647,2.3625298467828646
8.268131868131867,2.326389131757938
8.287912087912087,2.2884110596840657
8.307692307692308,2.248656002059384
8.327472527472528,2.2071888753588906
8.347252747252746,2.1640794373987227
8.367032967032966,2.119402638560761
8.386813186813187,2.0732390382680594
8.406593406593407,2.025675299122215
8.426373626373627,1.976804773504682
8.446153846153845,1.9267282002459394
8.465934065934066,1.875554532206421
8.485714285714286,1.823401919282711
8.505494505494505,1.7703988753785995
8.525274725274725,1.7166856620731978
8.545054945054945,1.6624159256892674
8.564835164835165,1.6077586274968538
8.584615384615384,1.5529003076387085
8.604395604395604,1.4980477199737199
8.624175824175826,1.4434308641090314
8.643956043956043,1.38930641735567
8.663736263736263,1.3359615256978008
8.683516483516483,1.2837178386222383
8.703296703296704,1.232935554273589
8.723076923076924,1.184017063673498
8.742857142857142,1.1374095332896461
8.762637362637362,1.093605444635303
8.782417582417583,1.0531397497238264
8.802197802197803,1.0165819919611518
8.821978021978023,0.9845216575444808
8.84175824175824,0.9575454213216543
8.86153846153846,0.9362061062360901
8.881318681318682,0.9209851935028064
8.901098901098901,0.9122532844849691
8.920879120879121,0.9102351316350565
8.940659340659339,0.9149864885145146
8.96043956043956,0.9263882121499816
8.98021978021978,0.9441590722179479
9.0,0.9678841262639963
9.01978021978022,0.9970522400386396
9.03956043956044,1.03109548747099
9.05934065934066,1.0694245396699336
9.079120879120879,1.1114566365394003
9.098901098901099,1.1566351623713444
9.11868131868132,1.2044415440723182
9.138461538461538,1.2544010311914777
9.158241758241758,1.3060840984911004
9.178021978021977,1.3591050163205889
9.197802197802199,1.4131187910181802
9.217582417582419,1.4678173266121224
9.237362637362637,1.5229253645368688
9.257142857142856,1.5781965371793554
9.276923076923078,1.6334097178532008
9.296703296703297,1.6883657500357414
9.316483516483517,1.7428845775479274
9.336263736263735,1.7968027624030514
9.356043956043957,1.8499713590110047
9.375824175824176,1.9022541058121576
9.395604395604396,1.9535258939082711
9.415384615384616,2.003671474094004
9.435164835164835,2.0525843671635404
9.454945054945055,2.100165946459754
9.474725274725275,2.146324665774733
9.494505494505495,2.1909754095987357
9.514285714285714,2.234038946211643
9.534065934065934,2.2754414671722585
9.553846153846154,2.315114199393748
9.573626373626373,2.3529930782314588
9.593406593406593,2.389018471896496
9.613186813186815,2.4231349490917236
9.632967032967032,2.455291083090703
9.652747252747252,2.485439286585795
9.672527472527472,2.513535672553828
9.692307692307693,2.5395399371582883
9.712087912087913,2.5634152613509333
9.731868131868131,2.58512822837552
9.75164835164835,2.60464875482998
9.771428571428572,2.621950033326351
9.791208791208792,2.6370084851123097
9.810989010989012,2.649803721295275
9.83076923076923,2.6603185115483368
9.850549450549451,2.668538759383783
9.87032967032967,2.674453483261704
9.89010989010989,2.6780548029625257
9.90989010989011,2.6793379307985385
9.92967032967033,2.678301167374369
9.94945054945055,2.6749459017333708
9.96923076923077,2.6692766158498404
9.989010989010989,2.661300893548388
10.008791208791209,2.651029434055607
10.028571428571428,2.638476070517914
10.048351648351648,2.6236577939567773
10.068131868131868,2.606594783282362
10.08791208791209,2.587310442152542
10.107692307692307,2.5658314436514726
10.127472527472527,2.54218778397535
10.147252747252747,2.516412846559517
10.167032967032966,2.4885434783676703
10.186813186813188,2.458620080399992
10.206593406593406,2.426686714872751
10.226373626373626,2.392791231990734
10.246153846153845,2.3569854197900133
10.265934065934067,2.31932518119154
10.285714285714286,2.2798707431961467
10.305494505494504,2.238686904095307
10.325274725274724,2.195843325698149
10.345054945054946,2.1514148789183705
10.364835164835165,2.105482052661585
10.384615384615385,2.058131437844983
10.404395604395603,2.009456300605677
10.424175824175824,1.9595572613447698
10.443956043956044,1.9085430992269445
10.463736263736264,1.856531705091526
10.483516483516484,1.8036512093485335
10.503296703296703,1.7500413151380951
10.523076923076923,1.6958548704440737
10.542857142857143,1.6412597152901018
10.562637362637362,1.5864408404463342
10.582417582417584,1.531602890342197
10.602197802197802,1.4769730321224166
10.621978021978022,1.4228041904509554
10.641758241758241,1.369378607116017
10.661538461538463,1.3170116165320702
