Time (s),Filtered Signal
0.0,0.02250789587374901
0.03337000366703337,-0.07185684593205378
0.06674000733406674,-0.14874076811976203
0.1001100110011001,-0.1965787154859802
0.13348001466813347,-0.21344505694452306
0.16685001833516683,-0.20671735862575427
0.2002200220022002,-0.18910000812291008
0.2335900256692336,-0.17269896732648907
0.26696002933626695,-0.16344885889292446
0.3003300330033003,-0.1580450695846678
0.33370003667033366,-0.14482696854935365
0.36707004033736707,-0.10886210283622298
0.4004400440044004,-0.03983255057240749
0.4338100476714338,0.06037971589783869
0.4671800513384672,0.17435100656161157
0.5005500550055005,0.27293943573395046
0.5339200586725339,0.3261242446685612
0.5672900623395672,0.31679720212046286
0.6006600660066006,0.25090329386483773
0.634030069673634,0.15804493765641314
0.6674000733406673,0.08078454497341003
0.7007700770077008,0.056477985507235956
0.7341400806747341,0.09959468042080905
0.7675100843417675,0.192868870349538
0.8008800880088008,0.29196371900825857
0.8342500916758342,0.3423354601741038
0.8676200953428675,0.30146131759883443
0.9009900990099009,0.15705552624607363
0.9343601026769344,-0.06653941550706705
0.9677301063439677,-0.31662719685435137
1.001100110011001,-0.5317046482436416
1.0344701136780343,-0.6640723251094978
1.0678401173450678,-0.6960129687421677
1.1012101210121013,-0.6429246562143848
1.1345801246791345,-0.5426526222934133
1.167950128346168,-0.4364694219340933
1.2013201320132012,-0.3507963087061397
1.2346901356802347,-0.2880620134050914
1.268060139347268,-0.23036508970106573
1.3014301430143014,-0.15317300951834054
1.3348001466813346,-0.0414082351776229
1.368170150348368,0.10055126761873501
1.4015401540154016,0.2498245705517734
1.4349101576824348,0.37582043801999465
1.4682801613494683,0.4547211816400428
1.5016501650165015,0.4800600489344653
1.535020168683535,0.46440765501298925
1.5683901723505682,0.43206857333110216
1.6017601760176017,0.4070479062169763
1.6351301796846351,0.4022553249572814
1.6685001833516684,0.4145673944588508
1.7018701870187019,0.42718269030978695
1.735240190685735,0.41752824512347825
1.7686101943527686,0.36717502505737953
1.8019801980198018,0.27010357133841634
1.8353502016868353,0.1366807401751747
1.8687202053538687,-0.007889371997972452
1.902090209020902,-0.1305038566600383
1.9354602126879354,-0.20099878253481535
1.9688302163549687,-0.20399069423752533
2.002200220022002,-0.14766658184143486
2.0355702236890356,-0.06531922933015592
2.0689402273560686,-0.007093467767165161
2.102310231023102,-0.022984615520538005
2.1356802346901356,-0.1424527928764373
2.169050238357169,-0.35890992792727117
2.2024202420242025,-0.6267317937080131
2.2357902456912355,-0.8738183339317998
2.269160249358269,-1.025832937626362
2.3025302530253025,-1.0324963579632715
2.335900256692336,-0.8848909626002655
2.369270260359369,-0.6166845155249545
2.4026402640264024,-0.28960494542398063
2.436010267693436,0.029472381798715915
2.4693802713604693,0.28942893657444235
2.502750275027503,0.4656572262022935
2.536120278694536,0.5584449800665068
2.5694902823615693,0.5829507350649685
2.6028602860286028,0.5579873736051951
2.636230289695636,0.49981964648278254
2.6696002933626692,0.42288087727491597
2.7029702970297027,0.34434152052469685
2.736340300696736,0.28672537519794344
2.7697103043637696,0.27396113802120126
2.803080308030803,0.32082346558625563
2.836450311697836,0.42096259031027605
2.8698203153648696,0.5412727290886266
2.903190319031903,0.6282573252111915
2.9365603226989365,0.6261322232370755
2.96993032636597,0.4998639491396361
3.003300330033003,0.2528566914309823
3.0366703337000365,-0.06938845914276404
3.07004033736707,-0.3923312389459709
3.1034103410341034,-0.6374708745366333
3.1367803447011364,-0.7495459149181071
3.17015034836817,-0.7152507617341152
3.2035203520352034,-0.5666512788632524
3.236890355702237,-0.36868766226251637
3.2702603593692703,-0.19595847806856803
3.3036303630363033,-0.10728069871559866
3.3370003667033368,-0.12663025797581717
3.3703703703703702,-0.236484559904715
3.4037403740374037,-0.38536940080930615
3.4371103777044367,-0.5067628336339667
3.47048038137147,-0.5427004869436661
3.5038503850385037,-0.463725794893945
3.537220388705537,-0.2781060862338305
3.5705903923725706,-0.027348671577062906
3.6039603960396036,0.22951829703216764
3.637330399706637,0.43613173221806334
3.6707004033736705,0.5555856179271595
3.704070407040704,0.5784660655950797
3.7374404107077375,0.5212006521242868
3.7708104143747705,0.4175726327365155
3.804180418041804,0.30758989914516294
3.8375504217088374,0.2268919996305484
3.870920425375871,0.1981321340554436
3.904290429042904,0.22496424100809623
3.9376604327099374,0.2897927903438972
3.971030436376971,0.35716702871371925
4.004400440044004,0.3839839846749431
4.037770443711038,0.33488690153699285
4.071140447378071,0.19764153055853054
4.104510451045105,-0.008649068414561355
4.137880454712137,-0.23780311982445304
4.171250458379171,-0.43311882886802927
4.204620462046204,-0.5495831753972584
4.237990465713238,-0.5714455137173313
4.271360469380271,-0.5166179804696052
4.304730473047305,-0.4259054975435422
4.338100476714338,-0.34283487420487996
4.3714704803813715,-0.2944398498016073
4.404840484048405,-0.2822440280184371
4.438210487715438,-0.2867231654221438
4.471580491382471,-0.28130100079367104
4.5049504950495045,-0.24746740922327504
4.538320498716538,-0.1830397908322523
4.571690502383571,-0.1001704758015162
4.605060506050605,-0.015563366363563006
4.638430509717638,0.06068885043268041
4.671800513384672,0.1310327540914282
4.705170517051705,0.2078360992020875
4.738540520718738,0.30378464984562104
4.771910524385771,0.42074172802817456
4.805280528052805,0.5434823901222215
4.838650531719838,0.6423296300391217
4.872020535386872,0.6842269032495358
4.905390539053905,0.6474264501271777
4.938760542720939,0.5328886735314412
4.972130546387972,0.3666862516410686
5.005500550055006,0.19164466719955664
5.038870553722038,0.05131840250155994
5.072240557389072,-0.027024134032591105
5.105610561056105,-0.04307732406176206
5.138980564723139,-0.023089735408267722
5.172350568390172,-0.008350705446866726
5.2057205720572055,-0.03737446503701781
5.239090575724239,-0.12934687568864459
5.272460579391272,-0.2758113389589624
5.305830583058306,-0.44386971043680284
5.3392005867253385,-0.5890965199405571
5.372570590392372,-0.6723087023673319
5.405940594059405,-0.6731335488884391
5.439310597726439,-0.5953250336629843
5.472680601393472,-0.46276716529929157
5.506050605060506,-0.3090256032545829
5.539420608727539,-0.16541703542879968
5.572790612394573,-0.05223634795290091
5.606160616061606,0.024370030069728627
5.63953061972864,0.07006020157386333
5.672900623395672,0.0966064521542946
5.706270627062706,0.1156190786940704
5.739640630729739,0.13391180962548818
5.773010634396773,0.15164129779040503
5.806380638063806,0.16332267451595617
5.83975064173084,0.16114236164641504
5.873120645397873,0.1395524830935137
5.9064906490649065,0.09972433173927937
5.93986065273194,0.05210144565030119
5.9732306563989725,0.01540894256614063
6.006600660066006,0.011456463396371927
6.0399706637330395,0.05687447538707212
6.073340667400073,0.15481738306457957
6.106710671067106,0.29051692094848813
6.14008067473414,0.43353005071149653
6.173450678401173,0.5467186460893817
6.206820682068207,0.5986860552243024
6.24019068573524,0.5744124295854868
6.273560689402273,0.4794871516124795
6.306930693069306,0.3364512821666164
6.34030069673634,0.17557671460445484
6.373670700403373,0.0246543752763724
6.407040704070407,-0.09815022839513625
6.44041070773744,-0.18684390460219136
6.473780711404474,-0.2465318199426249
6.507150715071507,-0.2905203003028752
6.540520718738541,-0.33649479101172036
6.573890722405573,-0.4014784701898446
6.607260726072607,-0.4953233311126728
6.64063072973964,-0.6140576135016727
6.6740007334066735,-0.736255452697314
6.707370737073707,-0.8258456080921199
6.7407407407407405,-0.8424520113655162
6.774110744407774,-0.756329663756106
6.807480748074807,-0.5616372215184559
6.840850751741841,-0.2815664081907939
6.8742207554088735,0.037670897571978355
6.907590759075907,0.34161344315807707
6.94096076274294,0.5844847108276964
6.974330766409974,0.7409977226154995
7.007700770077007,0.808749999226318
7.041070773744041,0.8017902424048057
7.074440777411074,0.7399913965230582
7.107810781078108,0.6401387388986705
7.141180784745141,0.5127690821745203
7.174550788412174,0.3650360014825598
7.207920792079207,0.20635930231503846
7.241290795746241,0.05222949340979072
7.274660799413274,-0.07705632430784894
7.308030803080308,-0.1626557233071218
7.341400806747341,-0.19515139546126525
7.3747708104143745,-0.17970051013114807
7.408140814081408,-0.1352634833842841
7.4415108177484415,-0.088011556473418
7.474880821415475,-0.0620569193099637
7.5082508250825075,-0.07180516477316062
7.541620828749541,-0.11899837967533423
7.5749908324165744,-0.1948429394201053
7.608360836083608,-0.28516093903888784
7.641730839750641,-0.37554310486208764
7.675100843417675,-0.45421719316815684
7.708470847084708,-0.5120426309312147
7.741840850751742,-0.5406874744413229
7.775210854418775,-0.5309290821552559
7.808580858085808,-0.47289240110432773
7.841950861752841,-0.35899369756979815
7.875320865419875,-0.18877917856476048
7.908690869086908,0.0265763974843313
7.942060872753942,0.26281782464208686
7.975430876420975,0.48597785575748625
8.008800880088009,0.6602921511285509
8.042170883755041,0.7581933727906789
8.075540887422076,0.7686804242647399
8.108910891089108,0.7006999035682584
8.142280894756142,0.5799634557503914
8.175650898423175,0.4401337118300821
8.20902090209021,0.3115752414682716
8.242390905757242,0.21197063853321585
8.275760909424275,0.14245635419256777
8.309130913091309,0.09061163654694296
8.342500916758341,0.038582272033503055
8.375870920425376,-0.0276419322264381
8.409240924092408,-0.11201080074688423
8.442610927759443,-0.20757386818222676
8.475980931426475,-0.30046411185205685
8.50935093509351,-0.3759837235738255
8.542720938760542,-0.42368513637436106
8.576090942427575,-0.4396379920743367
8.60946094609461,-0.4259938448378741
8.642830949761642,-0.3892688927131597
8.676200953428676,-0.3388119406684033
8.709570957095709,-0.28594305725063757
8.742940960762743,-0.2430799399191947
8.776310964429776,-0.22168640577973067
8.80968096809681,-0.2284861097274226
8.843050971763843,-0.26082921332114806
8.876420975430875,-0.30357052820879477
8.90979097909791,-0.33028529750813707
8.943160982764942,-0.3103857354268146
8.976530986431976,-0.22085103555972413
9.009900990099009,-0.058114514618700555
9.043270993766043,0.15589154696074228
9.076640997433076,0.37796129579437165
9.11001100110011,0.5579956456457369
9.143381004767143,0.6580050877928305
9.176751008434175,0.6669821674592551
9.21012101210121,0.60408660393414
9.243491015768242,0.5080541063515701
9.276861019435277,0.4178115257772859
9.31023102310231,0.3541259909751052
9.343601026769344,0.31187555089395197
9.376971030436376,0.26702948733180454
9.41034103410341,0.19446817028690444
9.443711037770443,0.08669984364235493
9.477081041437476,-0.03721476884914982
9.51045104510451,-0.13812640975199003
9.543821048771543,-0.17603469849977768
9.577191052438577,-0.13252322411000902
9.61056105610561,-0.02471245799999521
9.643931059772644,0.09715458411757259
9.677301063439677,0.16857279040942372
9.710671067106711,0.1381455196496571
9.744041070773743,-0.008806773888751413
9.777411074440776,-0.2412289840591021
9.81078107810781,-0.4922443380210276
9.844151081774843,-0.6839712374566449
9.877521085441877,-0.756902455695018
9.91089108910891,-0.6919327776308198
9.944261092775944,-0.5165837871140261
9.977631096442977,-0.2935700738225417
10.011001100110011,-0.09668706399409807
10.044371103777044,0.016472122810216032
10.077741107444076,0.024655486683165174
10.11111111111111,-0.051376386841442793
10.144481114778143,-0.15930725140742832
10.177851118445178,-0.23723839662561108
10.21122112211221,-0.23809953572983972
10.244591125779245,-0.1466442258852118
10.277961129446277,0.01745471806150391
10.311331133113312,0.21075450315141642
10.344701136780344,0.3855966920169033
10.378071140447377,0.5088593186622319
10.411441144114411,0.5717261284380911
10.444811147781444,0.5871320804250078
10.478181151448478,0.5776747581559633
10.51155115511551,0.5610575822770894
10.544921158782545,0.5405248084412633
10.578291162449577,0.5044340103746353
10.611661166116612,0.4341784988417111
10.645031169783644,0.31573848950927136
10.678401173450677,0.14890841877976435
10.711771177117711,-0.050110590379547376
10.745141180784744,-0.25362741719516907
10.778511184451778,-0.43218737438021687
10.81188118811881,-0.5642939575652187
10.845251191785845,-0.6416185583541433
10.878621195452878,-0.667771090319807
10.911991199119912,-0.6522006460731175
10.945361202786945,-0.6032496487561121
10.978731206453979,-0.5243863787673179
11.012101210121012,-0.4152738130397353
11.045471213788044,-0.2761789010526245
11.078841217455079,-0.11232818747609465
11.112211221122111,0.06469557598850678
11.145581224789145,0.23906963124680566
11.178951228456178,0.3944771496391772
11.212321232123212,0.516836701959161
11.245691235790245,0.5947574082943801
11.27906123945728,0.6188387162962665
11.312431243124312,0.5823273144355733
11.345801246791344,0.48474082813626823
11.379171250458379,0.3372757536182375
11.412541254125411,0.16612185902513044
11.445911257792446,0.009450431229457221
11.479281261459478,-0.09331536813015667
11.512651265126513,-0.11665632378767173
11.546021268793545,-0.06160690792798588
11.57939127246058,0.04105983073788316
11.612761276127612,0.14002412724448984
11.646131279794645,0.18187751873697183
11.67950128346168,0.13111056259504764
11.712871287128712,-0.01680648346562105
11.746241290795746,-0.23426342559895094
11.779611294462779,-0.47180620431160014
11.812981298129813,-0.6748143037012102
11.846351301796846,-0.7997768585468982
11.87972130546388,-0.8247809785435507
11.913091309130913,-0.7519888255917802
11.946461312797945,-0.6030463393268267
11.97983131646498,-0.41035184035534505
12.013201320132012,-0.20761278767389096
12.046571323799046,-0.02243015102759588
12.079941327466079,0.12770016693630798
12.113311331133113,0.2360178293593667
12.146681334800146,0.30480848311848213
12.18005133846718,0.34267763968658393
12.213421342134213,0.361617161988017
12.246791345801245,0.3740369804967398
12.28016134946828,0.38967854955148173
12.313531353135312,0.4127234474547562
12.346901356802347,0.4401046905865566
12.38027136046938,0.4622731608566109
12.413641364136414,0.46691807918319667
12.447011367803446,0.44456248348765137
12.48038137147048,0.3934815958969805
12.513751375137513,0.32115900969473493
12.547121378804546,0.24102870209808067
12.58049138247158,0.16592140535017594
12.613861386138613,0.1018368191686503
12.647231389805647,0.045780245947353665
12.68060139347268,-0.010971211576380212
12.713971397139714,-0.0762958784369122
12.747341400806746,-0.15166945199336648
12.78071140447378,-0.23116224229884685
12.814081408140813,-0.3052269101728452
12.847451411807846,-0.36610636034139943
12.88082141547488,-0.41076153551875627
12.914191419141913,-0.43944371175398195
12.947561422808947,-0.45163806690302877
12.98093142647598,-0.4432644070371366
13.014301430143014,-0.40807777057393635
13.047671433810047,-0.3428880704865678
13.081041437477081,-0.2529964385569552
13.114411441144114,-0.15352020961743248
13.147781444811146,-0.06467303235911596
13.18115144847818,-0.003035780940409595
13.214521452145213,0.026254615357351702
13.247891455812248,0.03163713731229802
13.28126145947928,0.03003794746776483
13.314631463146315,0.03732239051575762
13.348001466813347,0.05978115346457443
13.381371470480381,0.09162995508069828
13.414741474147414,0.12002994432816368
13.448111477814447,0.13472769636752
13.481481481481481,0.13660395211344803
13.514851485148514,0.13980333112577503
13.548221488815548,0.1654965190358112
13.58159149248258,0.2298937071753886
13.614961496149615,0.3324826417685017
13.648331499816647,0.45085673917966346
13.681701503483682,0.5456651153169099
13.715071507150714,0.574468332066708
13.748441510817747,0.5088742576707913
13.781811514484781,0.3474034554535142
13.815181518151814,0.11811256784904532
13.848551521818848,-0.13055203089266207
13.88192152548588,-0.3469362616689931
13.915291529152915,-0.4940603110460469
13.948661532819948,-0.5606147395629623
13.982031536486982,-0.5606868889361092
14.015401540154015,-0.5229938849503866
14.048771543821047,-0.4751428427103501
14.082141547488082,-0.43057082301588606
14.115511551155114,-0.3843046679248922
14.148881554822148,-0.31919033991114665
14.182251558489181,-0.218922515173277
14.215621562156215,-0.08071447374079033
14.248991565823248,0.07938074567183272
14.282361569490282,0.23164600023181034
14.315731573157315,0.34592485122864775
14.349101576824348,0.4060105934159371
14.382471580491382,0.4174354012930658
14.415841584158414,0.4041547185047451
14.449211587825449,0.3954046212762272
14.482581591492481,0.4093053165083562
14.515951595159516,0.4417648567159012
14.549321598826548,0.46677358809431235
14.582691602493583,0.4484673979910096
14.616061606160615,0.35930100643863583
14.649431609827648,0.19545088210701822
14.682801613494682,-0.018144303122005632
14.716171617161715,-0.23558725723057755
14.749541620828749,-0.40694722801999667
14.782911624495782,-0.4965377952298254
14.816281628162816,-0.4948137261298917
14.849651631829849,-0.41983464981411095
14.883021635496883,-0.3092087998897723
14.916391639163916,-0.2069588566309188
14.94976164283095,-0.15040332795140804
14.983131646497982,-0.16043924620847083
15.016501650165015,-0.23637388123665296
15.04987165383205,-0.35534019738723016
15.083241657499082,-0.47656784622578113
15.116611661166116,-0.551087529946114
15.149981664833149,-0.5362665988650253
15.183351668500183,-0.41169226011179044
15.216721672167216,-0.19009262358853596
15.25009167583425,0.08311615045482827
15.283461679501283,0.3440019242825484
15.316831683168315,0.5335045582136227
15.35020168683535,0.6197740912310671
15.383571690502382,0.6084994690273983
15.416941694169417,0.5358779475134801
15.45031169783645,0.44802988225127977
15.483681701503484,0.3780600159877111
15.517051705170516,0.33306991884079135
15.55042170883755,0.2974376800966558
15.583791712504583,0.24914061064780102
15.617161716171616,0.1784969458716223
15.65053171983865,0.09774815855819173
15.683901723505683,0.03573123514783999
15.717271727172717,0.020846791943651317
15.75064173083975,0.062350038092788225
15.784011734506784,0.14092567807092973
15.817381738173816,0.21429220525122883
15.85075174184085,0.2353260562560527
15.884121745507883,0.17348886807335917
15.917491749174916,0.0287196038923526
15.95086175284195,-0.16890935768760126
15.984231756508983,-0.3729797510181751
16.017601760176017,-0.5403883397808761
16.05097176384305,-0.6467940125525538
16.084341767510082,-0.6906970830860396
16.117711771177117,-0.6856302479067622
16.15108177484415,-0.6465236280715781
16.184451778511182,-0.5791245055942931
16.217821782178216,-0.47883948124454406
16.25119178584525,-0.3390887089326139
16.284561789512285,-0.16307895326795754
16.317931793179316,0.02933808711103674
16.35130179684635,0.2049535786099271
16.384671800513384,0.3294397795876888
16.41804180418042,0.3817571543503437
16.45141180784745,0.36274704829280985
16.484781811514484,0.2936549758817177
16.51815181518152,0.20628330878089948
16.55152181884855,0.13072543924556443
16.584891822515583,0.08678372392589999
16.618261826182618,0.08177444774842864
16.651631829849652,0.11323400834500649
16.685001833516683,0.17288469207845672
16.718371837183717,0.24908083849513907
16.75174184085075,0.3275617032255079
16.785111844517782,0.39234197538225823
16.818481848184817,0.42841530074386597
16.85185185185185,0.4259802514110122
16.885221855518886,0.38394678176188163
16.918591859185916,0.3102694704309515
16.95196186285295,0.2184317483571419
16.985331866519985,0.12185027390026049
17.01870187018702,0.029293565729600048
17.05207187385405,-0.05631010765486559
17.085441877521085,-0.1355374731309439
17.11881188118812,-0.20868889729795337
17.15218188485515,-0.2733802128241329
17.185551888522184,-0.3251701897844648
17.21892189218922,-0.36069327511670507
17.252291895856253,-0.38100861835864436
17.285661899523284,-0.3926211361743356
