Time (s),Filtered Signal
0.0,-0.037820512834805385
0.03337004405286344,-0.00026254577346785193
0.06674008810572687,0.08293080066629502
0.10011013215859031,0.2333519348630075
0.13348017621145375,0.43595922236029444
0.16685022026431717,0.6426603440856868
0.20022026431718062,0.7906267429388922
0.23359030837004408,0.8271477274562481
0.2669603524229075,0.7304052632504883
0.3003303964757709,0.517911920357857
0.33370044052863435,0.24005980745332772
0.3670704845814978,-0.03753449804509875
0.40044052863436125,-0.25521136962349167
0.43381057268722467,-0.37601782380091137
0.46718061674008815,-0.3930668732636878
0.5005506607929515,-0.32689322644418844
0.533920704845815,-0.2156642348316053
0.5672907488986785,-0.1024857897161559
0.6006607929515418,-0.023574332006417464
0.6340308370044053,0.00017362134390393901
0.6674008810572687,-0.0331707208233525
0.7007709251101322,-0.10814981158139034
0.7341409691629956,-0.1981141196403674
0.767511013215859,-0.27412548211867727
0.8008810572687225,-0.3136267314123217
0.834251101321586,-0.3059003999917646
0.8676211453744493,-0.2526781065993148
0.9009911894273128,-0.1644813608870803
0.9343612334801763,-0.05517771455080891
0.9677312775330397,0.06231237428951798
1.001101321585903,0.17747061875994197
1.0344713656387665,0.2811917450354699
1.06784140969163,0.3642737816181769
1.1012114537444935,0.417357607800608
1.134581497797357,0.4329712797748196
1.1679515418502202,0.40866065747174896
1.2013215859030837,0.34927351682154567
1.2346916299559472,0.2668023854032457
1.2680616740088106,0.1774300605698561
1.3014317180616741,0.09675280254648316
1.3348017621145374,0.034926661990831734
1.3681718061674009,-0.006476421238733513
1.4015418502202643,-0.03462992278611986
1.4349118942731278,-0.06224341658633399
1.4682819383259913,-0.10176548215576786
1.5016519823788548,-0.159035886253138
1.535022026431718,-0.2292183618093807
1.5683920704845815,-0.29746147336706663
1.601762114537445,-0.3448551794605626
1.6351321585903085,-0.35748748647722456
1.668502202643172,-0.3342279982889724
1.7018722466960352,-0.28878402867209185
1.7352422907488987,-0.24407984127883117
1.7686123348017622,-0.2210343809981323
1.8019823788546256,-0.2271901941344624
1.8353524229074891,-0.2513323159142317
1.8687224669603526,-0.2675596006255904
1.9020925110132159,-0.2474417306949063
1.9354625550660793,-0.17444872408488316
1.9688325991189428,-0.053287122811982106
2.002202643171806,0.09084375753398344
2.0355726872246698,0.2229047620713241
2.068942731277533,0.3132778655126307
2.1023127753303967,0.35007751565319833
2.13568281938326,0.3427429755679882
2.1690528634361232,0.3157948986398394
2.202422907488987,0.2964548285546198
2.23579295154185,0.302300671607141
2.269162995594714,0.33435483821657735
2.302533039647577,0.37788276581987235
2.3359030837004404,0.40958292221006537
2.369273127753304,0.4074425112391216
2.4026431718061674,0.3590796446816097
2.436013215859031,0.2656836377556507
2.4693832599118943,0.1408445471936331
2.5027533039647576,0.005582905492489919
2.5361233480176213,-0.11804285905666353
2.5694933920704845,-0.21248544440386938
2.6028634361233483,-0.2680721111971386
2.6362334801762115,-0.2839245222209248
2.6696035242290748,-0.26690869096187847
2.7029735682819385,-0.22933826720984915
2.7363436123348017,-0.1860972819860627
2.7697136563876654,-0.15170575350182935
2.8030837004405287,-0.1377110451602654
2.8364537444933924,-0.15064040123004585
2.8698237885462556,-0.19062601102467536
2.903193832599119,-0.2508117189641613
2.9365638766519826,-0.317806492869618
2.969933920704846,-0.3736052179399615
3.0033039647577096,-0.39924497178149937
3.036674008810573,-0.3798022052599506
3.070044052863436,-0.3093537860005487
3.1034140969162998,-0.19385106571456476
3.136784140969163,-0.05019176328985696
3.1701541850220267,0.09870819506220627
3.20352422907489,0.23103812505154425
3.2368942731277532,0.33234989197369247
3.270264317180617,0.39827345796507496
3.30363436123348,0.43288631824923957
3.337004405286344,0.44414351396178714
3.370374449339207,0.43900834178825826
3.4037444933920704,0.4205900619102215
3.437114537444934,0.3881291707904305
3.4704845814977974,0.33909482340523533
3.503854625550661,0.2718378929040449
3.5372246696035243,0.18740266710483686
3.5705947136563876,0.08986681295545898
3.6039647577092513,-0.014613400762053204
3.6373348017621145,-0.11939043312267668
3.6707048458149782,-0.21876745800386133
3.7040748898678415,-0.30865792858461977
3.737444933920705,-0.3861419982466405
3.7708149779735685,-0.44807459613876555
3.8041850220264317,-0.4894621076627387
3.8375550660792954,-0.5027363565070706
3.8709251101321587,-0.4789717562509548
3.9042951541850224,-0.41129965556813924
3.9376651982378856,-0.2994648268691669
3.971035242290749,-0.15332207821844282
4.004405286343612,0.007055488055637716
4.037775330396476,0.15567877542238406
4.0711453744493395,0.26816238923348346
4.104515418502203,0.32943037204790004
4.137885462555066,0.3382995231108789
4.171255506607929,0.307101930611668
4.2046255506607935,0.256779786725494
4.237995594713657,0.20963364717278546
4.27136563876652,0.1823807843170626
4.304735682819383,0.18156075799523302
4.3381057268722465,0.20230013754258616
4.371475770925111,0.23055077515409436
4.404845814977974,0.24820667053224357
4.438215859030837,0.23978345252217195
4.4715859030837,0.19860331398167638
4.504955947136564,0.13007894566189496
4.538325991189428,0.0503090841177817
4.571696035242291,-0.02004647233610562
4.605066079295154,-0.06438178597435346
4.638436123348018,-0.07746396072247626
4.671806167400881,-0.06788219085852477
4.705176211453745,-0.054176186647083215
4.738546255506608,-0.056255292932342486
4.7719162995594715,-0.08612911575030338
4.805286343612335,-0.14241467602295368
4.838656387665198,-0.21126345428673232
4.872026431718062,-0.2731546708642338
4.905396475770925,-0.3120614689785859
4.938766519823789,-0.32234931328476196
4.972136563876652,-0.3100353285963318
5.005506607929515,-0.2880719452975859
5.038876651982379,-0.26849533628895744
5.072246696035243,-0.2558638090208441
5.105616740088106,-0.2455271807528222
5.138986784140969,-0.22742242994188255
5.172356828193832,-0.19291274816516826
5.2057268722466965,-0.1404978974689818
5.23909691629956,-0.07697961232883263
5.272466960352423,-0.013405906180914296
5.305837004405286,0.04175663223475118
5.3392070484581495,0.08807101086876809
5.372577092511014,0.1337525239685744
5.405947136563877,0.19074734571275856
5.43931718061674,0.2667664729301698
5.4726872246696034,0.3586678351694705
5.506057268722468,0.451058841521879
5.539427312775331,0.5213019264572875
5.572797356828194,0.5486998047743087
5.606167400881057,0.5233786430622274
5.639537444933921,0.45051220742153547
5.672907488986785,0.34794992801906055
5.706277533039648,0.23866429135230424
5.739647577092511,0.14186849966022333
5.7730176211453745,0.0669176568884828
5.806387665198238,0.012250655935080833
5.839757709251102,-0.03109413056606316
5.873127753303965,-0.07386589898731195
5.9064977973568284,-0.12373409911069318
5.939867841409692,-0.18289548489983873
5.973237885462555,-0.24824352013434042
6.006607929515419,-0.31305601574935166
6.039977973568282,-0.36902463870715463
6.073348017621146,-0.40806136773244595
6.106718061674009,-0.42395530227252765
6.140088105726872,-0.414018471472116
6.173458149779736,-0.38034372952878875
6.2068281938325995,-0.32979294625702926
6.240198237885463,-0.2720226062043859
6.273568281938326,-0.21587418291788463
6.306938325991189,-0.16568070661846726
6.3403083700440535,-0.11950895018077258
6.373678414096917,-0.07054328469738023
6.40704845814978,-0.01110521831256629
6.440418502202643,0.062742792294423
6.4737885462555065,0.14844560490056213
6.507158590308371,0.23747575550259167
6.540528634361234,0.31875068856103467
6.573898678414097,0.3830291011827436
6.60726872246696,0.42590729134325717
6.640638766519824,0.44788153363156075
6.674008810572688,0.4516398654661824
6.707378854625551,0.4383756567226561
6.740748898678414,0.4055389388285376
6.774118942731278,0.34764151660961257
6.807488986784141,0.25992068820734415
6.840859030837005,0.14289858121673873
6.874229074889868,0.005207464129547049
6.9075991189427315,-0.13712114721532084
6.940969162995595,-0.2648773872045844
6.974339207048458,-0.36157867363954255
7.007709251101322,-0.4184110463937438
7.041079295154185,-0.436086446464716
7.074449339207049,-0.4230540144023789
7.107819383259912,-0.39126338268589134
7.141189427312775,-0.35172296940808634
7.174559471365639,-0.31188290963930276
7.207929515418503,-0.2755471669072617
7.241299559471366,-0.24439040833663908
7.274669603524229,-0.21925506093409647
7.308039647577092,-0.1998455060013847
7.3414096916299565,-0.1829583930159137
7.37477973568282,-0.1609394670587565
7.408149779735683,-0.12245210523727863
7.441519823788546,-0.05640437666113129
7.47488986784141,0.04232242246537011
7.508259911894274,0.16841335219097467
7.541629955947137,0.30593221024377504
7.575,0.4333591296606934
7.608370044052863,0.5318460293029611
7.641740088105728,0.5925596415272067
7.675110132158591,0.6190571366877667
7.708480176211454,0.6230709707978453
7.741850220264317,0.6156844201566554
7.775220264317181,0.5987169926140778
7.808590308370045,0.5615122926393002
7.841960352422908,0.48573367342394563
7.875330396475771,0.35636943064700766
7.9087004405286345,0.1732888266538871
7.942070484581498,-0.04329368568896177
7.975440528634362,-0.2573217533712882
8.008810572687224,-0.43001359211871815
8.042180616740088,-0.5354012672356333
8.075550660792953,-0.5704636701888447
8.108920704845815,-0.5546429915191261
8.142290748898679,-0.5190310015258969
8.175660792951541,-0.49083696536808974
8.209030837004406,-0.48098446545000445
8.24240088105727,-0.48073872316002425
8.275770925110132,-0.46841288865720837
8.309140969162996,-0.4221862002437736
8.342511013215859,-0.3324481727971431
8.375881057268723,-0.20788692425383182
8.409251101321587,-0.07295195791388014
8.44262114537445,0.04159764317610367
8.475991189427313,0.11052986490216649
8.509361233480176,0.12331546780210771
8.54273127753304,0.08725609255337209
8.576101321585904,0.023992534920654996
8.609471365638766,-0.038547131965752664
8.64284140969163,-0.07530687602224671
8.676211453744493,-0.07112406604962657
8.709581497797357,-0.02376549230225677
8.742951541850221,0.057153053151641015
8.776321585903084,0.15425715255437156
8.809691629955948,0.24794218587810976
8.84306167400881,0.32184193551316886
8.876431718061674,0.3669593478915016
8.909801762114538,0.3834033536841095
8.9431718061674,0.3790943489374344
8.976541850220265,0.36565548911644785
9.009911894273127,0.3528943119040183
9.043281938325991,0.344235877946926
9.076651982378856,0.335455006753302
9.110022026431718,0.3176903386533369
9.143392070484582,0.28343460115992586
9.176762114537445,0.23221058271421324
9.210132158590309,0.1723436194995592
9.243502202643173,0.11718471245505328
9.276872246696035,0.07743865635816845
9.3102422907489,0.053933162420322645
9.343612334801762,0.03539299163572149
9.376982378854626,0.003163350019597892
9.41035242290749,-0.05919220151359601
9.443722466960352,-0.15648105473189067
9.477092511013216,-0.2778272203935687
9.510462555066079,-0.40029619111116227
9.543832599118943,-0.49842473524784187
9.577202643171807,-0.5548780859273883
9.61057268722467,-0.5670896707790577
9.643942731277534,-0.5469548893149709
9.677312775330396,-0.5140642325491347
9.71068281938326,-0.48581218655220904
9.744052863436124,-0.4688185091865262
9.777422907488987,-0.4552499383789803
9.81079295154185,-0.4254697110622299
9.844162995594713,-0.3559717388800248
9.877533039647577,-0.22966565484639728
9.910903083700441,-0.0447676700402573
9.944273127753304,0.1810705101829792
9.977643171806168,0.4133188548493555
10.01101321585903,0.6095149784576211
10.044383259911895,0.7318766526669784
10.077753303964759,0.759142635434877
10.111123348017621,0.6931228518327398
10.144493392070485,0.5573234948070886
10.177863436123348,0.3882010974697132
10.211233480176212,0.22266329432280493
10.244603524229076,0.08691816250035332
10.277973568281938,-0.00903277457342724
10.311343612334802,-0.06967559544729855
10.344713656387665,-0.10678585515835654
10.378083700440529,-0.1308530888141797
10.411453744493393,-0.14548009222601294
10.444823788546255,-0.1471738869027757
10.47819383259912,-0.12989014273739077
10.511563876651982,-0.09119750980819337
10.544933920704846,-0.03634278970970343
10.57830396475771,0.021973722226129186
10.611674008810573,0.06772820809641328
10.645044052863437,0.08722005272333587
10.678414096916299,0.07349349891455031
10.711784140969163,0.027976916974431013
10.745154185022027,-0.040554215337084386
10.77852422907489,-0.11856078128210466
10.811894273127754,-0.19074300397452357
10.845264317180618,-0.24290841163741386
10.87863436123348,-0.2645502957690486
10.912004405286345,-0.25087382184819
10.945374449339207,-0.20368983239525204
10.978744493392071,-0.13063319444920618
11.012114537444935,-0.042792139303761016
11.045484581497798,0.04829819323644816
11.078854625550662,0.1329226376544185
11.112224669603524,0.20379369101313702
11.145594713656388,0.2551983071092531
11.178964757709252,0.28191107921842307
11.212334801762115,0.2792968395530548
11.245704845814979,0.24518791942420276
11.279074889867841,0.18273322538765466
11.312444933920705,0.10234073998275413
11.34581497797357,0.02081099113131249
11.379185022026432,-0.04302373094088823
11.412555066079296,-0.07490667373663386
11.445925110132158,-0.0711599891216134
11.479295154185023,-0.04098598350522336
11.512665198237887,-0.003435995510806881
11.546035242290749,0.020028500191256637
11.579405286343613,0.014159285699891921
11.612775330396476,-0.02423505898619852
11.64614537444934,-0.08589107539476377
11.679515418502204,-0.15411744161608623
11.712885462555066,-0.21258919216728842
11.74625550660793,-0.25205698273434857
11.779625550660793,-0.2729223303523085
11.812995594713657,-0.2828696484624818
11.846365638766521,-0.29115700509317827
11.879735682819383,-0.30255864350836065
11.913105726872248,-0.31382030272631445
11.94647577092511,-0.314130095414462
11.979845814977974,-0.28929401344882255
12.013215859030838,-0.22782578027315586
12.0465859030837,-0.12650604896453566
12.079955947136565,0.006768153302473259
12.113325991189427,0.15404839016800076
12.146696035242291,0.2921829848393504
12.180066079295155,0.39996690525137574
12.213436123348018,0.46508895353964813
12.246806167400882,0.48807343009285675
12.280176211453744,0.48121337815874904
12.313546255506608,0.4624272463648947
12.346916299559473,0.446412204912003
12.380286343612335,0.43718679216757994
12.413656387665199,0.42592067225201
12.447026431718061,0.3955637605902844
12.480396475770926,0.33028576828121053
12.51376651982379,0.22505257467469283
12.547136563876652,0.0903925396916628
12.580506607929516,-0.05024286330379324
12.613876651982379,-0.169433389103725
12.647246696035243,-0.2469014533065794
12.680616740088107,-0.2776598528682728
12.71398678414097,-0.27353861046388034
12.747356828193833,-0.25750017449081825
12.780726872246696,-0.2533717972503267
12.81409691629956,-0.2755858435579791
12.847466960352424,-0.3234018655020588
12.880837004405286,-0.38196692652918135
12.91420704845815,-0.4294185743791665
12.947577092511013,-0.4465153882751017
12.980947136563877,-0.4242872233566775
13.014317180616741,-0.3663877342017137
13.047687224669604,-0.28556197710383013
13.081057268722468,-0.19650360714835508
13.11442731277533,-0.10895087170158661
13.147797356828194,-0.02445997915358776
13.181167400881058,0.06177528145002016
13.21453744493392,0.15530811783185455
13.247907488986785,0.2561548126749587
13.281277533039647,0.3552528924154645
13.314647577092511,0.43570515627558853
13.348017621145376,0.4785339662430427
13.381387665198238,0.4704846216267708
13.414757709251102,0.41034794212174236
13.448127753303964,0.31079710668818344
13.481497797356829,0.19464465614742169
13.514867841409693,0.08690917939988954
13.548237885462555,0.006026914628845963
13.58160792951542,-0.04198829329360075
13.614977973568282,-0.0639410222410019
13.648348017621146,-0.07442989328424986
13.68171806167401,-0.08794718698529215
13.715088105726872,-0.11191829353320196
13.748458149779736,-0.1438960012075015
13.781828193832599,-0.17398893892492104
13.815198237885463,-0.1910267364012158
13.848568281938327,-0.18920400746568908
13.88193832599119,-0.17180559369172554
13.915308370044054,-0.15011218530863246
13.948678414096916,-0.13797867660160051
13.98204845814978,-0.14471261664842117
14.015418502202644,-0.16971511418473992
14.048788546255507,-0.20147688706500333
14.08215859030837,-0.2214221318943848
14.115528634361233,-0.21086887076584726
14.148898678414097,-0.158127509603656
14.182268722466961,-0.06297007706793062
14.215638766519824,0.06295070858868552
14.249008810572688,0.19947504898208795
14.28237885462555,0.32359629410700735
14.315748898678414,0.41544185545267825
14.349118942731279,0.462865099821326
14.382488986784141,0.46361224468098094
14.415859030837005,0.4248173767676726
14.449229074889868,0.36027250036884534
14.482599118942732,0.2863880521095865
14.515969162995596,0.21794004389503052
14.549339207048458,0.1646112281514366
14.582709251101322,0.1290584991323907
14.616079295154185,0.10686476040675305
14.649449339207049,0.08831846052873989
14.682819383259913,0.06156477829996747
14.716189427312775,0.016370792894062253
14.74955947136564,-0.052391424091613334
14.782929515418502,-0.14241874773741314
14.816299559471366,-0.2435410038310383
14.84966960352423,-0.3396196850482094
14.883039647577093,-0.41269083929818484
14.916409691629957,-0.4484644210671859
14.94977973568282,-0.44148464296325873
14.983149779735683,-0.3979146150258186
15.016519823788547,-0.3344296545177458
15.04988986784141,-0.2730664459435819
15.083259911894274,-0.2335604039571338
15.116629955947138,-0.22593461783718796
15.15,-0.24625550682066463
15.183370044052865,-0.2774024192629787
15.216740088105727,-0.2948270199160333
15.250110132158591,-0.275359786638003
15.283480176211455,-0.20590004478308171
15.316850220264318,-0.08875599803302872
15.350220264317182,0.05846898199439243
15.383590308370044,0.20856350948602387
15.416960352422908,0.33391801369325713
15.450330396475772,0.41568826764794503
15.483700440528635,0.4492084897197845
15.517070484581499,0.4434548935685277
15.550440528634361,0.4150160773376859
15.583810572687225,0.3796511668010399
15.61718061674009,0.345730895975854
15.650550660792952,0.312846829289505
15.683920704845816,0.27598776257225205
15.717290748898678,0.23241541330402082
15.750660792951543,0.18662362762296852
15.784030837004407,0.14972845000109247
15.817400881057269,0.13297074764953543
15.850770925110133,0.13887650723168682
15.884140969162996,0.15565043165768322
15.91751101321586,0.15912768468625346
15.950881057268724,0.12254917666047141
15.984251101321586,0.02981606928401584
16.01762114537445,-0.11454068038975257
16.050991189427315,-0.28414343812732595
16.084361233480177,-0.43942012752460635
16.11773127753304,-0.5422739864202909
16.151101321585905,-0.570042236500913
16.184471365638768,-0.5226319056620498
16.21784140969163,-0.4202622930191659
16.251211453744492,-0.2936829562639218
16.284581497797358,-0.17182745516089776
16.31795154185022,-0.07231932609116098
16.351321585903083,0.0017609938905920228
16.38469162995595,0.058618219280734636
16.41806167400881,0.11052715187783696
16.451431718061674,0.16643743811774991
16.48480176211454,0.2276243300019095
16.518171806167402,0.28775809104632594
16.551541850220264,0.33655406464288845
16.584911894273127,0.3646059283184904
16.618281938325993,0.3667759314511807
16.651651982378855,0.34266742418480195
16.685022026431717,0.2945816902985452
16.718392070484583,0.22488124907776721
16.751762114537446,0.13492466314452572
16.785132158590308,0.02653337802345347
16.818502202643174,-0.09495107968213627
16.851872246696036,-0.21832967841050221
16.8852422907489,-0.3271477894959672
16.91861233480176,-0.4038914330556057
16.951982378854627,-0.43630118996542244
16.98535242290749,-0.42288175761858754
17.01872246696035,-0.374761104190578
17.052092511013218,-0.3126072053075325
17.08546255506608,-0.2595210195497707
17.118832599118942,-0.23261759285960323
17.152202643171808,-0.23662072079586133
17.18557268722467,-0.2620534343428311
17.218942731277533,-0.2888486988751717
