Frequency (Hz),Amplitude
0.0,1.9104966243050931
0.019801980198019802,1.9097377880843165
0.039603960396039604,1.9074624603055583
0.0594059405940594,1.9036741859358535
0.07920792079207921,1.8983788810214446
0.09900990099009901,1.8915848445041463
0.1188118811881188,1.8833027750965246
0.13861386138613863,1.8735457935558735
0.15841584158415842,1.862329470804779
0.1782178217821782,1.8496718624628723
0.19801980198019803,1.835593550481122
0.21782178217821782,1.8201176927103588
0.2376237623762376,1.8032700813908398
0.25742574257425743,1.7850792117231795
0.27722772277227725,1.765576361874763
0.297029702970297,1.7447956859932572
0.31683168316831684,1.7227743220421594
0.33663366336633666,1.6995525165451117
0.3564356435643564,1.6751737686275259
0.37623762376237624,1.6496849960763886
0.39603960396039606,1.6231367265004832
0.4158415841584158,1.595583317059164
0.43564356435643564,1.5670832066287144
0.45544554455445546,1.537699204674827
0.4752475247524752,1.5074988214705072
0.495049504950495,1.4765546445985729
0.5148514851485149,1.4449447668423798
0.5346534653465347,1.4127532705029209
0.5544554455445545,1.3800707727478725
0.5742574257425742,1.3469950356047364
0.594059405940594,1.3136316423865055
0.613861386138614,1.2800947393189188
0.6336633663366337,1.2465078364401403
0.6534653465346534,1.2130046548486213
0.6732673267326733,1.1797299973282496
0.6930693069306931,1.1468406054202738
0.7128712871287128,1.1145059472608034
0.7326732673267327,1.082908856260979
0.7524752475247525,1.0522459108019797
0.7722772277227723,1.0227274104685637
0.7920792079207921,0.9945767677733863
0.8118811881188118,0.9680291015446428
0.8316831683168316,0.943328798718556
0.8514851485148516,0.9207258189621365
0.8712871287128713,0.9004705682339842
0.891089108910891,0.8828072794420952
0.9108910891089109,0.8679660197406148
0.9306930693069307,0.856153686827599
0.9504950495049505,0.8475446273716559
0.9702970297029703,0.8422717483103102
0.99009900990099,0.8404191186368408
1.00990099009901,0.8420170072630346
1.0297029702970297,0.8470400456083184
1.0495049504950495,0.8554087803513982
1.0693069306930694,0.8669943911425579
1.0891089108910892,0.8816259148059848
1.108910891089109,0.8990990443219059
1.1287128712871286,0.9191855019226111
1.1485148514851484,0.9416420997675661
1.1683168316831685,0.9662188330050235
1.188118811881188,0.9926656206258564
1.2079207920792079,1.0207375562749939
1.227722772277228,1.050198718257909
1.2475247524752475,1.0808247056222258
1.2673267326732673,1.1124041233422919
1.2871287128712872,1.1447392503402236
1.3069306930693068,1.177646106355182
1.3267326732673268,1.2109541016127725
1.3465346534653466,1.244505416752082
1.3663366336633662,1.2781542255400296
1.3861386138613863,1.311765842563021
1.405940594059406,1.3452158533792795
1.4257425742574257,1.3783892654363759
1.4455445544554455,1.4111797037364762
1.4653465346534653,1.4434886648950667
1.4851485148514851,1.4752248360207498
1.504950495049505,1.506303479979265
1.5247524752475248,1.5366458854650629
1.5445544554455446,1.5661788783946489
1.5643564356435644,1.5948343900836746
1.5841584158415842,1.6225490771974178
1.6039603960396038,1.6492639883731635
1.6237623762376237,1.6749242725612232
1.6435643564356437,1.6994789244219668
1.6633663366336633,1.722880562482072
1.683168316831683,1.7450852361508418
1.7029702970297032,1.766052258098516
1.7227722772277227,1.7857440588854097
1.7425742574257426,1.8041260610941143
1.7623762376237624,1.8211665705513624
1.782178217821782,1.8368366825303504
1.801980198019802,1.8511102010981961
1.8217821782178218,1.8639635700188206
1.8415841584158414,1.875375813840722
1.8613861386138615,1.8853284879948493
1.881188118811881,1.8938056369027423
1.900990099009901,1.9007937592516506
1.920792079207921,1.9062817797346387
1.9405940594059405,1.9102610266817273
1.9603960396039604,1.912725215125504
1.98019801980198,1.9136704349533167
2.0,1.9130951439002943
2.01980198019802,1.9110001652350344
2.0396039603960396,1.9073886900845105
2.0594059405940595,1.9022662844382765
2.0792079207920793,1.8956409009667883
2.099009900990099,1.8875228958855608
2.118811881188119,1.877925051198458
2.1386138613861387,1.8668626027611204
2.1584158415841586,1.8543532747218259
2.1782178217821784,1.840417321023716
2.1980198019801978,1.825077574791816
2.217821782178218,1.8083595065830562
2.237623762376238,1.7902912926501418
2.257425742574257,1.7709038945634248
2.2772277227722775,1.750231151751499
2.297029702970297,1.7283098887639503
2.3168316831683167,1.7051800393310848
2.336633663366337,1.6808847895966246
2.3564356435643563,1.6554707432322546
2.376237623762376,1.6289881115048426
2.3960396039603964,1.6014909317551125
2.4158415841584158,1.5730373181511683
2.4356435643564356,1.543689748985711
2.455445544554456,1.5135153951662976
2.4752475247524752,1.4825864948623624
2.495049504950495,1.4509807794589575
2.514851485148515,1.4187819559331256
2.5346534653465347,1.3860802503808867
2.5544554455445545,1.3529730164923164
2.5742574257425743,1.3195654110345383
2.594059405940594,1.2859711354997778
2.6138613861386135,1.2523132385312723
2.633663366336634,1.2187249669428366
2.6534653465346536,1.1853506433473113
2.673267326732673,1.1523465347402098
2.6930693069306932,1.1198816579534734
2.712871287128713,1.0881384439601625
2.7326732673267324,1.057313153324886
2.7524752475247527,1.0276159004484628
2.7722772277227725,0.9992701072759143
2.792079207920792,0.9725111732860262
2.811881188118812,0.9475841271368207
2.8316831683168315,0.9247400298600181
2.8514851485148514,0.9042309468889494
2.8712871287128716,0.8863034133275653
2.891089108910891,0.8711904938461625
2.910891089108911,0.8591027793633615
2.9306930693069306,0.8502189358680244
2.9504950495049505,0.8446766667316792
2.9702970297029703,0.842565090731258
2.99009900990099,0.8439195026468631
3.00990099009901,0.8487192406322359
3.0297029702970297,0.8568889679130837
3.0495049504950495,0.8683031816939485
3.0693069306930694,0.8827933153738564
3.089108910891089,0.9001565086531121
3.108910891089109,0.9201650340654208
3.128712871287129,0.9425754712161226
3.148514851485148,0.9671369472848611
3.1683168316831685,0.9935980351119637
3.1881188118811883,1.0217121528094941
3.2079207920792077,1.0512415028709639
3.227722772277228,1.0819597126143214
3.2475247524752473,1.1136533985300978
3.267326732673267,1.1461228906433683
3.2871287128712874,1.179182336642619
3.3069306930693068,1.2126593738102582
3.3267326732673266,1.2463945200254165
3.346534653465347,1.2802403996175107
3.366336633663366,1.3140608888579208
3.386138613861386,1.3477302405505063
3.4059405940594063,1.381132227470022
3.4257425742574257,1.4141593296462824
3.4455445544554455,1.4467119798254617
3.4653465346534653,1.4786978739779446
3.485148514851485,1.5100313486825343
3.504950495049505,1.540632823955292
3.5247524752475248,1.5704283081000674
3.5445544554455446,1.599348960051757
3.564356435643564,1.627330704178016
3.5841584158415842,1.6543138923944032
3.603960396039604,1.6802430085865865
3.6237623762376234,1.705066410619919
3.6435643564356437,1.7287361055829038
3.6633663366336635,1.7512075543112091
3.683168316831683,1.7724395016437335
3.702970297029703,1.7923938292537387
3.722772277227723,1.8110354282658445
3.7425742574257423,1.8283320892088328
3.762376237623762,1.8442544071623048
3.7821782178217824,1.8587757002332725
3.801980198019802,1.8718719397476398
3.8217821782178216,1.8835216907640027
3.841584158415842,1.8937060617155856
3.8613861386138613,1.902408662163354
3.881188118811881,1.9096155678022755
3.9009900990099013,1.915315292005471
3.9207920792079207,1.9194987633207934
3.9405940594059405,1.922159308452951
3.96039603960396,1.923292640374187
3.98019801980198,1.9228968513095794
4.0,1.9209724104414498
4.01980198019802,1.9175221662725832
4.03960396039604,1.912551353682443
4.0594059405940595,1.9060676058053172
4.079207920792079,1.8980809709569268
4.099009900990099,1.88860393493773
4.118811881188119,1.8776514491492533
4.138613861386139,1.8652409650761774
4.158415841584159,1.85139247581375
4.178217821782178,1.8361285654597936
4.198019801980198,1.8194744673455903
4.217821782178218,1.801458132252715
4.237623762376238,1.7821103079566991
4.257425742574258,1.7614646316554405
4.2772277227722775,1.7395577370838542
4.297029702970297,1.716429378388738
4.316831683168317,1.6921225731410159
4.336633663366336,1.666683767197594
4.356435643564357,1.640163024491075
4.376237623762377,1.6126142452185377
4.3960396039603955,1.5840954163126477
4.415841584158416,1.5546688984941444
4.435643564356436,1.524401754599588
4.455445544554455,1.4933661242124163
4.475247524752476,1.4616396498385276
4.4950495049504955,1.4293059598701516
4.514851485148514,1.3964552132432266
4.534653465346535,1.3631847098280563
4.554455445544555,1.3295995689411402
4.574257425742574,1.2958134755734938
4.594059405940594,1.261949489524999
4.613861386138614,1.2281409060060993
4.633663366336633,1.1945321466638503
4.653465346534653,1.161279646533055
4.673267326732674,1.128552684183636
4.693069306930693,1.0965340785425335
4.712871287128713,1.0654206461767295
4.732673267326733,1.0354232778938461
4.752475247524752,1.0067664557941673
4.772277227722772,0.9796869966361261
4.792079207920793,0.9544317836281733
4.811881188118812,0.9312542499961329
4.8316831683168315,0.9104094209928093
4.851485148514852,0.8921474239407621
4.871287128712871,0.8767055498394752
4.891089108910891,0.8642991907897176
4.910891089108912,0.855112255469235
4.930693069306931,0.8492879214515003
4.9504950495049505,0.8469207392792945
4.97029702970297,0.8480510841671193
4.99009900990099,0.8526627205526484
5.00990099009901,0.8606838308509617
5.02970297029703,0.8719913567011884
5.0495049504950495,0.8864180370305896
5.069306930693069,0.9037612154527332
5.089108910891089,0.9237923863618102
5.108910891089109,0.9462665420806139
5.128712871287129,0.9709306091427105
5.148514851485149,0.9975305392854161
5.1683168316831685,1.0258168812740747
5.188118811881188,1.0555488619787765
5.207920792079208,1.0864971357888347
5.227722772277227,1.1184454268229445
5.247524752475248,1.151191304482628
5.267326732673268,1.184546317488974
5.2871287128712865,1.2183356797303526
5.306930693069307,1.2523976638310892
5.326732673267327,1.2865828219885256
5.346534653465346,1.3207531217574264
5.366336633663367,1.3547810583573385
5.3861386138613865,1.3885487847320528
5.405940594059405,1.4219472853475636
5.425742574257426,1.4548756086850205
5.445544554455446,1.4872401656630367
5.465346534653465,1.518954096005095
5.485148514851486,1.5499367011868415
5.504950495049505,1.5801129405307555
5.524752475247524,1.6094129858639847
5.544554455445545,1.63777182962452
5.564356435643565,1.6651289411788202
5.584158415841584,1.6914279662499958
5.603960396039604,1.7166164646448385
5.623762376237624,1.7406456818402847
5.643564356435643,1.763470350397105
5.663366336633663,1.7850485175814017
5.683168316831684,1.8053413959739861
5.702970297029703,1.8243132342227981
5.7227722772277225,1.8419312054396575
5.742574257425743,1.858165311056955
5.762376237623762,1.8729882982434398
5.782178217821782,1.8863755892320724
5.801980198019803,1.8983052211396196
5.821782178217822,1.908757795059826
5.841584158415841,1.917716433392475
5.861386138613861,1.9251667445322413
5.881188118811881,1.9310967941867037
5.900990099009901,1.9354970827244091
5.920792079207921,1.9383605280746592
5.9405940594059405,1.9396824538118311
5.96039603960396,1.9394605821616637
5.98019801980198,1.9376950317665254
6.0,1.9343883201428653
6.01980198019802,1.929545370859667
6.03960396039604,1.923173525562127
6.0594059405940595,1.9152825610634134
6.079207920792079,1.9058847118295599
6.099009900990099,1.894994698291789
6.118811881188119,1.882629761537293
6.138613861386139,1.8688097050576726
6.158415841584159,1.8535569443744035
6.178217821782178,1.8368965655171496
6.198019801980198,1.8188563935046715
6.217821782178218,1.799467072173382
6.237623762376237,1.7787621569177623
6.257425742574258,1.7567782221527124
6.2772277227722775,1.733554985583572
6.297029702970296,1.709135451676751
6.316831683168317,1.6835660770642007
6.336633663366337,1.6568969609874873
6.356435643564356,1.6291820642892474
6.376237623762377,1.6004794608829034
6.396039603960396,1.5708516260623469
6.415841584158415,1.5403657664273254
6.435643564356436,1.5090941965594629
6.455445544554456,1.4771147678294434
6.475247524752475,1.444511354760204
6.495049504950495,1.4113744040854523
6.514851485148515,1.3778015508448986
6.534653465346534,1.3438983042890003
6.554455445544554,1.3097788036753255
6.574257425742575,1.2755666397523309
6.594059405940594,1.241395731232961
6.6138613861386135,1.2074112360953997
6.633663366336634,1.1737704642161702
6.653465346534653,1.1406437396828317
6.673267326732673,1.1082151372976217
6.693069306930694,1.0766829878394626
6.712871287128713,1.0462600111267681
6.732673267326732,1.017172897094617
6.752475247524753,0.9896611180323571
6.772277227722772,0.9639747287660609
6.792079207920792,0.9403709094135442
6.811881188118813,0.9191090448473226
6.8316831683168315,0.9004442345578552
6.851485148514851,0.8846192990570194
6.871287128712871,0.8718555918697857
6.891089108910891,0.8623432115739655
6.910891089108911,0.8562314778905946
6.930693069306931,0.8536207085513388
6.9504950495049505,0.8545563304401246
6.97029702970297,0.8590261371663318
6.99009900990099,0.8669610896870023
7.00990099009901,0.8782395401139131
7.02970297029703,0.8926942735521987
7.0495049504950495,0.9101214285992243
7.069306930693069,0.9302902371182885
7.089108910891089,0.95295260927804
7.108910891089109,0.9778518170740029
7.128712871287128,1.0047298147889745
7.148514851485149,1.0333330056263526
7.1683168316831685,1.0634164756952198
7.188118811881187,1.0947468545199073
7.207920792079208,1.12710403117596
7.227722772277228,1.160281973380863
7.247524752475247,1.1940888818687911
7.267326732673268,1.2283468799461021
7.287128712871287,1.2628913996086883
7.306930693069306,1.2975703880288103
7.326732673267327,1.3322434252306494
7.346534653465347,1.3667808167329754
7.366336633663366,1.4010627038557315
7.3861386138613865,1.4349782185975166
7.405940594059406,1.4684246985695584
7.425742574257425,1.5013069694809287
7.445544554455446,1.5335366972737459
7.465346534653466,1.5650318085142632
7.485148514851485,1.5957159755128965
7.504950495049505,1.6255181614595855
7.524752475247524,1.6543722203159064
7.544554455445544,1.6822165460816723
7.564356435643565,1.7089937661955636
7.584158415841584,1.7346504741289865
7.603960396039604,1.7591369966163763
7.623762376237624,1.782407191385452
7.643564356435643,1.8044182716757748
7.663366336633663,1.8251306542450803
7.683168316831684,1.8445078279486007
7.702970297029703,1.8625162403319626
7.7227722772277225,1.8791252000010439
7.742574257425743,1.894306792822901
7.762376237623762,1.9080358102721355
7.782178217821782,1.9202896884691516
7.801980198019803,1.9310484566637425
7.821782178217822,1.940294694101972
7.841584158415841,1.9480134943795
7.861386138613862,1.9541924365328698
7.881188118811881,1.958821562254704
7.900990099009901,1.961893358741578
7.92079207920792,1.9634027467966824
7.9405940594059405,1.9633470739157968
7.96039603960396,1.9617261121861578
7.980198019801979,1.9585420609257302
8.0,1.953799554087051
8.01980198019802,1.9475056725468611
8.03960396039604,1.9396699615023805
8.05940594059406,1.9303044532988312
8.07920792079208,1.9194236961231006
8.099009900990099,1.9070447891169882
8.118811881188119,1.8931874245928286
8.138613861386139,1.8778739381766658
8.158415841584159,1.8611293678623266
8.178217821782178,1.8429815231363622
8.198019801980198,1.8234610655319632
8.217821782178218,1.8026016021925535
8.237623762376238,1.7804397942761594
8.257425742574258,1.757015482312352
8.277227722772277,1.7323718309375142
8.297029702970297,1.7065554957823992
8.316831683168317,1.679616815668895
8.336633663366337,1.6516100336872097
8.356435643564357,1.6225935511639313
8.376237623762377,1.5926302189819306
8.396039603960396,1.5617876711517513
8.415841584158416,1.530138705924306
8.435643564356436,1.497761720018401
8.455445544554456,1.4647412016278494
8.475247524752476,1.431168287644922
8.495049504950495,1.3971413898070597
8.514851485148515,1.3627668929857535
8.534653465346535,1.3281599262359447
8.554455445544555,1.293445203035031
8.574257425742575,1.2587579207398012
8.594059405940595,1.224244699897222
8.613861386138613,1.190064530732541
8.633663366336634,1.1563896758997056
8.653465346534654,1.1234064544859785
8.673267326732672,1.091315801781528
8.693069306930694,1.0603334628454713
8.712871287128714,1.0306896375480328
8.732673267326732,1.0026278554772785
8.752475247524753,0.9764028297791244
8.772277227722773,0.95227703334004
8.792079207920791,0.9305157767543687
8.811881188118813,0.9113806647202156
8.831683168316832,0.8951214803216418
8.85148514851485,0.8819667944349158
8.871287128712872,0.8721138934888907
8.891089108910892,0.8657189041888206
8.91089108910891,0.8628881846430067
8.930693069306932,0.8636720630977619
8.950495049504951,0.8680617899613431
8.97029702970297,0.87599014600594
8.990099009900991,0.8873356135957495
9.00990099009901,0.9019295063197112
9.029702970297029,0.9195650935698312
9.04950495049505,0.9400076204829358
9.06930693069307,0.9630042044054274
9.089108910891088,0.9882928217064864
9.10891089108911,1.0156098954273516
9.12871287128713,1.0446962779296218
9.148514851485148,1.0753016457389166
9.16831683168317,1.1071874695071902
9.188118811881187,1.1401287962138162
9.207920792079207,1.173915100454525
9.227722772277229,1.2083504463532269
9.247524752475247,1.2432531679195897
9.267326732673267,1.2784552355325178
9.287128712871288,1.3138014370572928
9.306930693069306,1.3491484677334644
9.326732673267326,1.3843639948270068
9.346534653465348,1.419325741129503
9.366336633663366,1.4539206150030792
9.386138613861386,1.4880439028404773
9.405940594059407,1.5215985315511538
9.425742574257425,1.5544944031213008
9.445544554455445,1.5866477997062851
9.465346534653467,1.6179808555313717
9.485148514851485,1.6484210906708614
9.504950495049505,1.677901001230502
9.524752475247526,1.706357700345159
9.544554455445544,1.733732604562039
9.564356435643564,1.7599711604986685
9.584158415841586,1.7850226070682857
9.603960396039604,1.8088397690042604
9.623762376237623,1.8313788778576923
9.643564356435645,1.8525994170686844
9.663366336633663,1.8724639881117595
9.683168316831683,1.8909381950832809
9.702970297029704,1.90799054543204
9.722772277227723,1.9235923648341349
9.742574257425742,1.937717724481343
9.762376237623764,1.9503433792909186
9.782178217821782,1.9614487157576805
9.801980198019802,1.9710157083586366
9.821782178217823,1.9790288835898528
9.841584158415841,1.9854752908674818
9.861386138613861,1.9903444796623389
9.881188118811881,1.9936284823632147
9.900990099009901,1.9953218024799115
9.92079207920792,1.995421407905601
9.94059405940594,1.9939267290613736
9.96039603960396,1.9908396618455346
9.98019801980198,1.9861645754088644
10.0,1.9799083248757803
10.01980198019802,1.9720802692328976
10.03960396039604,1.9626922947121288
10.05940594059406,1.9517588441076734
10.07920792079208,1.9392969525871586
10.099009900990099,1.9253262906888915
10.118811881188119,1.9098692153424686
10.138613861386139,1.892950829911348
10.158415841584159,1.8745990544365205
10.178217821782178,1.854844707462967
10.198019801980198,1.8337216010587716
10.217821782178218,1.811266650893492
10.237623762376238,1.7875200035310423
10.257425742574258,1.7625251834158655
10.277227722772277,1.7363292623909665
10.297029702970297,1.7089830549835012
10.316831683168317,1.6805413431251925
10.336633663366337,1.6510631344352216
10.356435643564357,1.620611958669279
10.376237623762377,1.589256207408367
10.396039603960396,1.5570695224885338
10.415841584158416,1.5241312390014077
10.435643564356436,1.4905268888395335
10.455445544554454,1.4563487705941598
10.475247524752476,1.4216965909525154
10.495049504950495,1.3866781813292295
10.514851485148514,1.3514102909418293
10.534653465346535,1.3160194534183671
10.554455445544555,1.2806429176666243
10.574257425742573,1.2454296243303038
10.594059405940595,1.2105411957377101
10.613861386138614,1.1761528887416888
10.633663366336632,1.1424544352373374
10.653465346534654,1.1096506637756784
10.673267326732674,1.0779617578183665
