Frequency (Hz),Amplitude
0.0,4.642778145639386
0.01993355481727575,4.64050873058384
0.0398671096345515,4.633702766943717
0.059800664451827246,4.622367097567452
0.079734219269103,4.606513121444899
0.09966777408637874,4.586156785115867
0.11960132890365449,4.561318570733325
0.13953488372093023,4.532023480875597
0.159468438538206,4.49830102023395
0.17940199335548174,4.460185174337724
0.19933554817275748,4.4177143855202425
0.21926910299003324,4.370931526377166
0.23920265780730898,4.319883871025731
0.25913621262458475,4.264623064542438
0.27906976744186046,4.205205091040154
0.29900332225913623,4.141690240948767
0.318936877076412,4.074143078191544
0.3388704318936877,4.00263240810992
0.3588039867109635,3.9272312471929407
0.37873754152823924,3.8480167959269838
0.39867109634551495,3.765070416415954
0.4186046511627907,3.6784776168566293
0.4385382059800665,3.5883280455228794
0.4584717607973422,3.4947154976662755
0.47840531561461797,3.3977379397458574
0.49833887043189373,3.2974975567570133
0.5182724252491695,3.1941008302782086
0.5382059800664452,3.08765865740333
0.5581395348837209,2.97828652428173
0.5780730897009968,2.866104753009108
0.5980066445182725,2.7512388478004586
0.6179401993355482,2.6338199768194763
0.637873754152824,2.513985641451395
0.6578073089700996,2.391880607943177
0.6777408637873754,2.267658211718136
0.6976744186046512,2.1414821998831974
0.717607973421927,2.0135293655130617
0.7375415282392027,1.883993371190282
0.7574750830564785,1.753090400674116
0.7774086378737541,1.6210676944048417
0.7973421926910299,1.4882167674625613
0.8172757475083057,1.354894479067279
0.8372093023255814,1.2215577461224922
0.8571428571428572,1.088822912622002
0.877076411960133,0.9575715658670234
0.8970099667774087,0.829147502568827
0.9169435215946844,0.7057382400737026
0.9368770764119602,0.5911282726891548
0.9568106312292359,0.492107939016541
0.9767441860465116,0.42035995829653566
0.9966777408637875,0.3915203429106474
1.0166112956810631,0.41475348619656915
1.036544850498339,0.4825210618441694
1.0564784053156147,0.5791961295215894
1.0764119601328903,0.6924897905689724
1.0963455149501662,0.8151577936442062
1.1162790697674418,0.9431656333323848
1.1362126245847177,1.0741948273807678
1.1561461794019936,1.2068313429848687
1.176079734219269,1.3401542288224646
1.196013289036545,1.4735240087987513
1.2159468438538206,1.6064695418835333
1.2358803986710964,1.7386248460299298
1.255813953488372,1.8696923214124035
1.275747508305648,1.9994205164525105
1.2956810631229239,2.127590227607478
1.3156146179401993,2.2540055503819776
1.3355481727574752,2.37848796932852
1.3554817275747508,2.5008723686569168
1.3754152823920267,2.6210042888486154
1.3953488372093024,2.738738010801656
1.4152823920265782,2.853935201239901
1.435215946843854,2.9664639460131546
1.4551495016611296,3.076198056002379
1.4750830564784054,3.183016567483082
1.495016611295681,3.286803383033476
1.514950166112957,3.3874470151842044
1.5348837209302328,3.4848404059029683
1.5548172757475083,3.5788808024946186
1.5747508305647842,3.6694696757190077
1.5946843853820598,3.756512669620235
1.6146179401993357,3.8399195752039943
1.6345514950166113,3.9196043220150645
1.6544850498338872,3.9954849830704595
1.6744186046511629,4.067483789643011
1.6943521594684385,4.135527153167769
1.7142857142857144,4.199545692130636
1.73421926910299,4.259474262246195
1.754152823920266,4.315251988575858
1.7740863787375416,4.366822298504293
1.7940199335548175,4.414132954701171
1.8139534883720931,4.457136087359835
1.8338870431893688,4.495788225136084
1.8538205980066447,4.530050324315528
1.8737541528239203,4.559887795823804
1.893687707641196,4.585270529764105
1.9136212624584719,4.606172917224868
1.9335548172757475,4.622573869149604
1.9534883720930232,4.6344568321026935
1.9734219269102993,4.641809800801569
1.993355481727575,4.644625327317975
2.0132890365448506,4.642900526880321
2.0332225913621262,4.636637080236547
2.0531561461794023,4.625841232562813
2.073089700996678,4.610523788929217
2.0930232558139537,4.590700106359521
2.1129568106312293,4.566390082549135
2.132890365448505,4.537618141334563
2.1528239202657806,4.504413215039391
2.1727574750830567,4.466808723857947
2.1926910299003324,4.424842552478749
2.212624584717608,4.378557024198032
2.2325581395348837,4.327998872830634
2.25249169435216,4.273219212794065
2.2724252491694354,4.214273507824856
2.292358803986711,4.1512215388888505
2.312292358803987,4.084127371974406
2.332225913621263,4.013059326616865
2.352159468438538,3.9380899462046797
2.3720930232558137,3.8592959713747232
2.39202657807309,3.7767583181357
2.4119601328903655,3.6905620627884526
2.431893687707641,3.6007964362745755
2.4518272425249172,3.5075548313288314
2.471760797342193,3.4109348268025372
2.4916943521594686,3.311038234861607
2.511627906976744,3.207971178582047
2.5315614617940203,3.101844209969162
2.551495016611296,2.992772481913387
2.5714285714285716,2.8808759925119305
2.5913621262458477,2.7662799272117975
2.611295681063123,2.6491151344179906
2.6312292358803986,2.5295187852151604
2.6511627906976742,2.4076352903238325
2.6710963455149503,2.283617581693149
2.691029900332226,2.157628919473263
2.7109634551495017,2.029845469932822
2.7308970099667778,1.9004600380044714
2.7508305647840534,1.7696875689563465
2.770764119601329,1.6377734305379845
2.7906976744186047,1.5050061908167636
2.810631229235881,1.3717378982499246
2.8305647840531565,1.2384173271714907
2.850498338870432,1.1056465054733153
2.870431893687708,0.9742807889332822
2.8903654485049834,0.8456137276414799
2.910299003322259,0.7217322936299638
2.9302325581395348,0.6062137949282677
2.950166112956811,0.5054329251917257
2.9700996677740865,0.43039908460494486
2.990033222591362,0.39638036764478346
3.0099667774086383,0.41376110031185726
3.029900332225914,0.47689988790662685
3.0498338870431896,0.5706178873080383
3.0697674418604657,0.6821499556939418
3.089700996677741,0.803777186421358
3.1096345514950166,0.931173355908285
3.129568106312292,1.0618566187345686
3.1495016611295683,1.19432082382097
3.169435215946844,1.3275911661017852
3.1893687707641196,1.4609953088246306
3.2093023255813957,1.5940411968781967
3.2292358803986714,1.726349003478819
3.249169435215947,1.857611625493153
3.2691029900332227,1.9875708656594495
3.289036544850499,2.1160025798314024
3.3089700996677744,2.242707136275097
3.32890365448505,2.3675031271803246
3.3488372093023258,2.490223130704209
3.3687707641196014,2.6107108004328996
3.388704318936877,2.7288188347068245
3.4086378737541527,2.8444075416404537
3.428571428571429,2.9573438151690783
3.4485049833887045,3.0675003995511587
3.46843853820598,3.174755359382039
3.4883720930232562,3.2789916979865152
3.508305647840532,3.380097084189703
3.5282392026578075,3.4779636590348315
3.548172757475083,3.57248790195529
3.5681063122923593,3.6635705414371
3.588039867109635,3.7511164991113968
3.60797342192691,3.8350348590084566
3.6279069767441863,3.9152388557255735
3.647840531561462,3.9916458767398755
3.6677740863787376,4.064177475192056
3.6877076411960132,4.132759390284017
3.7076411960132893,4.197321573051068
3.727574750830565,4.257798215738772
3.7475083056478407,4.314127783375379
3.7674418604651168,4.3662530464108755
3.787375415282392,4.414121113512163
3.807308970099668,4.457683463776145
3.8272425249169437,4.496895977760045
3.8471760797342194,4.531718966838093
3.867109634551495,4.562117200483177
3.887043189368771,4.588059931145325
3.9069767441860463,4.609520916459342
3.9269102990033224,4.626478438565043
3.9468438538205985,4.638915320367222
3.9667774086378738,4.646818938599855
3.98671096345515,4.650181233592713
4.0066445182724255,4.648998715668883
4.026578073089701,4.6432724681296795
4.046511627906977,4.633008146810064
4.0664451827242525,4.618215976214419
4.086378737541528,4.598910742268807
4.106312292358805,4.575111781753689
4.1262458471760795,4.54684296851057
4.146179401993356,4.514132696549028
4.166112956810632,4.477013860216323
4.186046511627907,4.435523831634717
4.205980066445183,4.389704435659641
4.225913621262459,4.339601922670269
4.245847176079734,4.285266939573474
4.26578073089701,4.226754499486835
4.2857142857142865,4.164123950670067
4.305647840531561,4.097438945403493
4.325581395348838,4.0267674096735755
4.345514950166113,3.9521815147295247
4.365448504983389,3.8737576518354806
4.385382059800665,3.791576411876811
4.40531561461794,3.705722571913042
4.425249169435216,3.6162850913367186
4.445182724252492,3.5233571210463657
4.465116279069767,3.427036030038425
4.485049833887043,3.327423455165065
4.50498338870432,3.2246253816275297
4.524916943521594,3.1187522642810666
4.544850498338871,3.0099192033103512
4.5647840531561465,2.898246192738098
4.584717607973422,2.7838584672227613
4.604651162790698,2.6668869827203894
4.624584717607974,2.547469081452219
4.644518272425249,2.4257494138284774
4.664451827242526,2.3018812237578135
4.6843853820598005,2.1760281561640307
4.704318936877076,2.0483668285449244
4.724252491694353,1.9190905430330376
4.7441860465116275,1.7884147393683245
4.764119601328904,1.6565851722330451
4.78405315614618,1.5238904717095472
4.803986710963455,1.390681975987683
4.823920265780731,1.2574060472254467
4.8438538205980075,1.124658625196885
4.863787375415282,0.9932809820708015
4.883720930232559,0.8645348104615375
4.9036544850498345,0.7404346759662584
4.92358803986711,0.6243919996489362
4.943521594684386,0.52241218968705
4.963455149501661,0.44481042242063157
4.983388704318937,0.40619125992226
5.003322259136213,0.41767691635800647
5.023255813953488,0.47561760146031795
5.043189368770764,0.5657445507475188
5.063122923588041,0.6750214096677579
5.083056478405315,0.7952636723458952
5.102990033222592,0.9218172468178778
5.122923588039868,1.0520035456006935
5.142857142857143,1.184200462710548
5.162790697674419,1.3173631837353692
5.182724252491695,1.4507755538329732
5.20265780730897,1.5839170396467546
5.222591362126246,1.7163886275460756
5.242524916943522,1.8478698482544507
5.262458471760797,1.9780929014469124
5.282392026578074,2.1068265432552864
5.3023255813953485,2.23386575071488
5.322259136212625,2.3590249176938864
5.342192691029901,2.482133273999987
5.362126245847176,2.6030317415018875
5.382059800664452,2.7215707414008667
5.4019933554817285,2.8376086446075606
5.421926910299003,2.951010665326138
5.44186046511628,3.061648065347327
5.4617940199335555,3.169397579506762
5.48172757475083,3.274141000708413
5.501661129568107,3.3757648814364325
5.5215946843853825,3.4741603211732586
5.541528239202658,3.5692228177054086
5.561461794019934,3.6608521662562494
5.5813953488372094,3.748952394586953
5.601328903654485,3.8334317252092145
5.621262458471762,3.914202558024346
5.641196013289036,3.991181468290977
5.661129568106313,4.0642892159972925
5.681063122923589,4.133450763589756
5.700996677740864,4.1985952996710845
5.72093023255814,4.25965626678253
5.740863787375416,4.316571391771425
5.760797342192691,4.369282717543702
5.780730897009967,4.417736635234262
5.800664451827243,4.4618839160119625
5.820598006644518,4.501679741882028
5.840531561461795,4.537083734965884
5.8604651162790695,4.5680599848331385
5.880398671096346,4.594577073538334
5.900332225913622,4.616608098079138
5.920265780730897,4.634130690046777
5.940199335548173,4.647127032285287
5.960132890365449,4.655583872416145
5.980066445182724,4.659492533119825
6.0,4.658848919097629
6.0199335548172765,4.653653520666699
6.039867109634551,4.643911413968969
6.059800664451828,4.629632257802389
6.0797342192691035,4.610830287110424
6.099667774086379,4.587524303194679
6.119601328903655,4.559737660746277
6.139534883720931,4.527498251825452
6.159468438538206,4.490838486956686
6.179401993355482,4.449795273550157
6.1993355481727574,4.404409991910989
6.219269102990033,4.3547284691576325
6.23920265780731,4.300800951442949
6.259136212624584,4.242682074958704
6.279069767441861,4.180430836312034
6.299003322259137,4.114110562995271
6.318936877076412,4.043788884837502
6.338870431893688,3.9695377075367215
6.3588039867109645,3.891433189639393
6.378737541528239,3.8095557246787095
6.398671096345516,3.7239899306285675
6.418604651162791,3.6348246494131153
6.438538205980066,3.5421529599792634
6.458471760797343,3.4460722094616214
6.4784053156146175,3.346684068341474
6.498338870431894,3.244094617364203
6.51827242524917,3.1384144765347646
6.538205980066445,3.0297589900565174
6.558139534883721,2.918248486059661
6.578073089700998,2.8040086370542596
6.598006644518272,2.6871709572741946
6.617940199335549,2.5678734880709655
6.6378737541528245,2.4462617448461454
6.6578073089701,2.3224900328636724
6.677740863787376,2.1967232915960717
6.6976744186046515,2.069139709803002
6.717607973421927,1.9399344867787816
6.737541528239203,1.8093253356617998
6.7574750830564785,1.6775606994398153
6.777408637873754,1.5449323062300697
6.797342192691031,1.4117948754334277
6.8172757475083055,1.2785980001746629
6.837209302325582,1.1459395115663886
6.857142857142858,1.0146581765327736
6.877076411960133,0.8860010428124764
6.897009966777409,0.761936237826803
6.9169435215946855,0.6457476426726956
6.93687707641196,0.5431190837013211
6.956810631229236,0.46368008021722434
6.9767441860465125,0.4211586786293203
6.996677740863787,0.42691901027924367
7.016611295681064,0.479210541080559
7.036544850498339,0.5651052212838031
7.056478405315615,0.6715782045848263
7.076411960132891,0.7900326011037105
7.096345514950166,0.9154626918963087
7.116279069767442,1.0449608929995922
7.136212624584719,1.1767636990604515
7.156146179401993,1.309738280394404
7.17607973421927,1.4431121807436493
7.196013289036546,1.5763276683922494
7.21594684385382,1.7089603451043114
7.235880398671097,1.8406718799395525
7.2558139534883725,1.9711815406235929
7.275747508305648,2.1002484690200514
7.295681063122924,2.2276603156076207
7.3156146179402,2.3532257601865063
7.335548172757475,2.47676947771357
7.355481727574752,2.598128683495125
7.3754152823920265,2.717150722938281
7.395348837209303,2.8336913670175496
7.415282392026579,2.9476135937416905
7.435215946843854,3.058786710106951
7.45514950166113,3.1670857162813606
7.475083056478406,3.27239084448514
7.495016611295681,3.3745872253817164
7.514950166112956,3.4735646485088636
7.5348837209302335,3.569217392673012
7.554817275747508,3.6614441087593326
7.574750830564784,3.750147742012434
7.5946843853820605,3.8352354841282517
7.614617940199336,3.916618747871669
7.634551495016611,3.9942131586696514
7.6544850498338874,4.067938558911185
7.674418604651163,4.137719021641322
7.694352159468439,4.2034828710571395
7.714285714285715,4.265162707760799
7.73421926910299,4.322695437145076
7.754152823920266,4.376022299611604
7.774086378737542,4.425088901575716
7.794019933554818,4.469845246411398
7.813953488372093,4.510245764648252
7.83388704318937,4.546249342859385
7.853820598006645,4.577819350781873
7.8737541528239205,4.604923666295224
7.893687707641197,4.627534697952898
7.913621262458472,4.6456294048198
7.9335548172757475,4.659189313418311
7.953488372093024,4.668200531627861
7.9734219269103,4.6726537594210065
7.9933554817275745,4.672544296352606
8.013289036544851,4.667872045750345
8.033222591362128,4.658641515584453
8.053156146179402,4.644861816023744
8.073089700996679,4.626546653714519
8.093023255813954,4.603714322849223
8.11295681063123,4.576387693124598
8.132890365448505,4.544594194724489
8.152823920265782,4.508365800502755
8.172757475083056,4.467739005587508
8.192691029900331,4.422754804681295
8.21262458471761,4.373458667395327
8.232558139534884,4.319900512031623
8.252491694352159,4.262134678319347
8.272425249169435,4.200219899724654
8.292358803986712,4.134219276093955
8.312292358803987,4.06420024756564
8.332225913621263,3.9902345709071465
8.352159468438538,3.912398299715582
8.372093023255815,3.8307717702817476
8.392026578073091,3.7454395953850597
8.411960132890366,3.6564906688967054
8.43189368770764,3.5640181848720216
8.451827242524917,3.4681196758798145
8.471760797342194,3.3688970767477673
8.491694352159469,3.2664568218420578
8.511627906976745,3.1609099866544628
8.53156146179402,3.0523724881471366
8.551495016611296,2.940965363458603
8.571428571428573,2.8268151538912254
8.591362126245848,2.710054431631626
8.611295681063122,2.590822522041821
8.6312292358804,2.4692664971984373
8.651162790697676,2.345542550853781
8.67109634551495,2.2198179180768975
8.691029900332227,2.0922735861974666
8.710963455149502,1.963108177508436
8.730897009966778,1.8325436042449184
8.750830564784053,1.7008334677194603
8.77076411960133,1.5682758180015375
8.790697674418604,1.4352330431200475
8.81063122923588,1.3021637837345665
8.830564784053157,1.1696758198196642
8.850498338870432,1.0386168115369634
8.870431893687707,0.9102355954600808
8.890365448504983,0.7864778239722794
8.91029900332226,0.6705342838278059
8.930232558139535,0.5678112811344611
8.950166112956811,0.48727577580924836
8.970099667774086,0.44163800505087236
8.990033222591363,0.4420465960252512
9.00996677740864,0.4883940638860978
9.029900332225914,0.5694333511748909
9.049833887043189,0.672498085218171
9.069767441860467,0.7886900577105904
9.089700996677742,0.9126499953419022
9.109634551495017,1.0412138939576534
9.129568106312293,1.1724508417202968
9.14950166112957,1.3051202120193999
9.169435215946844,1.4383790151959166
9.189368770764121,1.5716221655568217
9.209302325581396,1.7043925683828112
9.22923588039867,1.8363286850667186
9.249169435215949,1.9671328737806315
9.269102990033224,2.0965516497332928
9.289036544850498,2.2243630159818375
9.308970099667773,2.3503681208710843
9.328903654485051,2.4743856395239616
9.348837209302326,2.596247915354904
9.368770764119601,2.7157982656838673
9.388704318936878,2.832889073756873
9.408637873754152,2.94738042225229
9.428571428571429,3.0591391060872257
9.448504983388705,3.1680379150407862
9.46843853820598,3.2739551109695926
9.488372093023255,3.376774047080252
9.508305647840533,3.4763828920123045
9.528239202657808,3.572674431952658
9.548172757475083,3.665545931276411
9.56810631229236,3.7548990373334896
9.588039867109636,3.8406397186574837
9.60797342192691,3.9226782285143957
9.627906976744187,4.000929087638344
9.647840531561462,4.075311081425549
9.667774086378738,4.14574726792012
9.687707641196015,4.212164993724772
9.70764119601329,4.274495915577187
9.727574750830565,4.332676025798627
9.747508305647841,4.3866456801812115
9.767441860465118,4.436349627161416
9.787375415282392,4.481737037348004
9.807308970099669,4.522761532647625
9.827242524916944,4.5593812143717924
9.84717607973422,4.591558689821971
9.867109634551497,4.619261096942016
9.887043189368772,4.642460126703434
9.906976744186046,4.6611320429529295
9.926910299003321,4.6752576995055195
9.9468438538206,4.684822554313448
9.966777408637874,4.68981668058203
9.986710963455149,4.690234774740594
10.006644518272426,4.686076161210687
10.026578073089702,4.677344793946048
10.046511627906977,4.664049254750394
10.066445182724253,4.646202748410793
10.086378737541528,4.623823094717256
10.106312292358805,4.596932717474401
10.126245847176081,4.565558630649388
10.146179401993356,4.529732421843512
10.16611295681063,4.489490233324216
10.186046511627907,4.444872740911763
10.205980066445184,4.395925131083035
10.225913621262459,4.342697076736487
10.245847176079735,4.285242712161674
10.26578073089701,4.223620607878303
10.285714285714286,4.1578937461605605
10.305647840531563,4.088129498251163
10.325581395348838,4.0143996045065355
10.345514950166113,3.9367801590171854
10.36544850498339,3.855351600633683
10.385382059800666,3.7701987128291825
10.40531561461794,3.6814106354808147
10.425249169435217,3.5890808925091804
10.445182724252492,3.4933074404511806
10.465116279069768,3.39419274456325
10.485049833887045,3.2918438911089782
10.50498338870432,3.1863727472967605
10.524916943521594,3.0778961842171686
10.544850498338871,2.966536383560545
10.564784053156147,2.852421256583763
10.584717607973422,2.735685014828742
10.604651162790697,2.6164689481599996
10.624584717607974,2.4949224894453996
10.64451827242525,2.3712046809327822
10.664451827242525,2.245486212091584
10.684385382059801,2.1179522841440153
10.704318936877076,1.9888066928376147
10.724252491694353,1.8582777435383329
10.74418604651163,1.7266269850442522
10.764119601328904,1.5941623881602918
10.784053156146179,1.4612587250788382
10.803986710963457,1.3283899599834252
