Frequency (Hz),Amplitude
0.0,0.9470896287187593
0.019823788546255508,0.9484160540958781
0.039647577092511016,0.95237893794552
0.059471365638766524,0.9589298006353668
0.07929515418502203,0.9679900951127507
0.09911894273127755,0.9794543475637351
0.11894273127753305,0.9931941222590231
0.13876651982378857,1.0090624681822904
0.15859030837004406,1.026898508885636
0.17841409691629956,1.0465318813107327
0.1982378854625551,1.0677867988445273
0.2180616740088106,1.0904855924580827
0.2378854625550661,1.1144516580575894
0.25770925110132165,1.139511799560484
0.27753303964757714,1.165498001946001
0.29735682819383263,1.1922486966815982
0.31718061674008813,1.2196095959154614
0.3370044052863437,1.2474341750961184
0.3568281938325991,1.2755838797336572
0.37665198237885467,1.3039281238628382
0.3964757709251102,1.3323441376996226
0.41629955947136565,1.3607167115781857
0.4361233480176212,1.3889378734878077
0.4559471365638767,1.416906528910603
0.4757709251101322,1.4445280843889807
0.49559471365638774,1.4717140703250027
0.5154185022026433,1.4983817738181
0.5352422907488987,1.5244538887190318
0.5550660792951543,1.5498581873375454
0.5748898678414097,1.5745272162185417
0.5947136563876653,1.5983980169447656
0.6145374449339208,1.6214118719044175
0.6343612334801763,1.6435140742744863
0.6541850220264318,1.6646537210302332
0.6740088105726874,1.6847835275319687
0.6938325991189428,1.7038596621120379
0.7136563876651982,1.7218415990477778
0.7334801762114539,1.7386919883329646
0.7533039647577093,1.7543765407278549
0.7731277533039648,1.7688639266628619
0.7929515418502204,1.7821256876800968
0.8127753303964759,1.794136159214795
0.8325991189427313,1.804872403637726
0.8524229074889869,1.8143141525985778
0.8722466960352424,1.8224437578251234
0.8920704845814978,1.829246149643848
0.9118942731277534,1.8347088025933245
0.931718061674009,1.8388217076025317
0.9515418502202644,1.8415773503020971
0.9713656387665199,1.842970695128607
0.9911894273127755,1.842999174970561
1.0110132158590308,1.841662686190306
1.0308370044052866,1.838963588940407
1.0506607929515421,1.8349067127762755
1.0704845814977975,1.8294993676497462
1.090308370044053,1.8227513604530026
1.1101321585903086,1.8146750173678146
1.1299559471365639,1.8052852123643517
1.1497797356828194,1.7945994022857539
1.1696035242290752,1.7826376690516967
1.1894273127753305,1.7694227696150808
1.209251101321586,1.754980194413141
1.2290748898678416,1.7393382351653506
1.248898678414097,1.7225280629871942
1.2687224669603525,1.7045838179085526
1.288546255506608,1.6855427110066066
1.3083700440528636,1.665445140482203
1.3281938325991192,1.644334823120543
1.3480176211453747,1.622258942673561
1.36784140969163,1.5992683167721469
1.3876651982378856,1.5754175840052103
1.4074889867841411,1.55076541276889
1.4273127753303965,1.5253747333631422
1.4471365638766522,1.4993129945565737
1.4669603524229078,1.472652445401803
1.4867841409691631,1.4454704423966054
1.5066079295154187,1.4178497810654516
1.5264317180616742,1.389879049575055
1.5462555066079295,1.361652999966194
1.5660792951541853,1.3332729298286725
1.5859030837004409,1.3048470635938487
1.6057268722466962,1.2764909178878614
1.6255506607929517,1.2483276294104702
1.6453744493392073,1.220488216462646
1.6651982378854626,1.1931117365350403
1.6850220264317182,1.1663452924855848
1.7048458149779737,1.1403438292916923
1.7246696035242293,1.1152696531408022
1.7444933920704848,1.0912915963163285
1.7643171806167404,1.0685837472672948
1.7841409691629957,1.0473236684673324
1.8039647577092512,1.027690038729025
1.8237885462555068,1.0098596850441512
1.8436123348017623,0.9940040142416048
1.863436123348018,0.9802849168678723
1.8832599118942732,0.9688502909091602
1.9030837004405288,0.9598294125609648
1.9229074889867843,0.9533284516606486
1.9427312775330399,0.9494264741883947
1.9625550660792954,0.9481722779829028
1.982378854625551,0.9495823611352167
2.002202643171806,0.9536402265210973
2.0220264317180616,0.960297093850803
2.041850220264317,0.9694739454438462
2.061674008810573,0.981064700344322
2.0814977973568287,0.9949402162239277
2.1013215859030843,1.0109527727880487
2.1211453744493394,1.028940694977409
2.140969162995595,1.0487328196104022
2.1607929515418505,1.0701525797563187
2.180616740088106,1.0930215606600493
2.2004405286343616,1.1171624559976783
2.220264317180617,1.142401415007716
2.2400881057268722,1.1685698159087872
2.2599118942731278,1.1955055291175196
2.2797356828193833,1.223053747615045
2.299559471365639,1.2510674648837323
2.319383259911895,1.2794076766907707
2.3392070484581504,1.3079433746650277
2.3590308370044055,1.3365513894015975
2.378854625550661,1.3651161303165635
2.3986784140969166,1.3935292596293456
2.418502202643172,1.421689329179971
2.4383259911894277,1.449501401485106
2.4581497797356833,1.4768766704913732
2.4779735682819384,1.5037320927811406
2.497797356828194,1.5299900363551684
2.5176211453744495,1.555577951378528
2.537444933920705,1.5804280652573255
2.5572687224669606,1.6044771029622003
2.577092511013216,1.6276660325007049
2.5969162995594717,1.6499398347578211
2.6167400881057272,1.6712472964885767
2.6365638766519828,1.6915408249918504
2.6563876651982383,1.7107762828695914
2.676211453744494,1.7289128412422625
2.6960352422907494,1.745912849820173
2.715859030837005,1.7617417223009533
2.73568281938326,1.7763678356595045
2.7555066079295156,1.7897624420084282
2.775330396475771,1.801899591825158
2.7951541850220267,1.8127560674631644
2.8149779735682823,1.8223113259835328
2.834801762114538,1.8305474504597095
2.854625550660793,1.837449109019177
2.874449339207049,1.843003520992586
2.8942731277533045,1.8472004296417395
2.91409691629956,1.8500320810350477
2.9339207048458156,1.8514932087310052
2.953744493392071,1.8515810240196375
2.9735682819383262,1.8502952115582627
2.993392070484582,1.8476379303225476
3.0132158590308373,1.843613819877855
3.033039647577093,1.8382300120598631
3.0528634361233484,1.831496148238699
3.072687224669604,1.8234244024277884
3.092511013215859,1.814029510588795
3.1123348017621146,1.803328806577838
3.1321585903083706,1.7913422652762967
3.151982378854626,1.7780925535531342
3.1718061674008817,1.7636050898142843
3.1916299559471373,1.7479081130091538
3.2114537444933924,1.7310327620838393
3.231277533039648,1.713013166993827
3.2511013215859035,1.6938865525149038
3.270925110132159,1.6736933562146132
3.2907488986784146,1.6524773620644884
3.31057268722467,1.6302858512763578
3.3303964757709252,1.6071697720242049
3.350220264317181,1.5831839297503694
3.3700440528634363,1.5583871997299812
3.389867841409692,1.5328427634514452
3.4096916299559474,1.5066183701237137
3.4295154185022034,1.4797866241919775
3.4493392070484585,1.452425299063575
3.469162995594714,1.4246176762293874
3.4889867841409696,1.3964529075026635
3.508810572687225,1.3680263960546533
3.5286343612334807,1.3394401891443053
3.5484581497797363,1.3108033717395062
3.5682819383259914,1.2822324454184588
3.588105726872247,1.2538516708433731
3.6079295154185025,1.2257933445862905
3.627753303964758,1.1981979721400813
3.6475770925110136,1.1712142887537356
3.667400881057269,1.1449990687987726
3.6872246696035247,1.119716653695487
3.7070484581497802,1.095538119627485
3.726872246696036,1.072640001740563
3.7466960352422913,1.0512024944113934
3.7665198237885464,1.0314070611907702
3.7863436123348024,1.0134334168599302
3.8061674008810575,0.9974558903365844
3.8259911894273135,0.9836392411213232
3.8458149779735686,0.972134079753222
3.8656387665198246,0.9630721253537413
3.8854625550660797,0.9565616066978572
3.905286343612335,0.9526831601890818
3.925110132158591,0.9514865824506797
3.9449339207048464,0.952988747105446
3.964757709251102,0.9571728958006303
3.9845814977973575,0.9639893764874594
4.004405286343612,0.9733577514443587
4.024229074889869,0.9851700614159421
4.044052863436123,0.9992949343070292
4.06387665198238,1.015582180526817
4.083700440528634,1.0338675229818814
4.103524229074891,1.0539771576951984
4.123348017621146,1.0757319148027125
4.143171806167401,1.0989508721536907
4.162995594713657,1.123454351014444
4.182819383259912,1.149066286656704
4.2026431718061685,1.1756160122368524
4.222466960352423,1.2029395226382975
4.242290748898679,1.2308802985526697
4.262114537444934,1.2592897737034259
4.28193832599119,1.288027523450972
4.301762114537445,1.3169612441840537
4.321585903083701,1.3459665822513618
4.3414096916299565,1.3749268603193499
4.361233480176212,1.4037327389262932
4.381057268722468,1.4322818421363015
4.400881057268723,1.4604783687579623
4.420704845814979,1.4882327045595773
4.440528634361234,1.515461046156415
4.46035242290749,1.5420850435865512
4.4801762114537445,1.5680314658420782
4.500000000000001,1.5932318916027512
4.5198237885462555,1.617622425973458
4.539647577092512,1.6411434430218668
4.559471365638767,1.663739353241002
4.579295154185023,1.6853583946371913
4.599118942731278,1.7059524459000937
4.618942731277533,1.7254768599964434
4.63876651982379,1.7438903165050947
4.658590308370044,1.7611546910479017
4.678414096916301,1.777234940248203
4.6982378854625555,1.7920990007515925
4.718061674008811,1.805717700959538
4.737885462555067,1.8180646842502877
4.757709251101322,1.8291163425853434
4.777533039647578,1.8388517595228995
4.797356828193833,1.8472526617784681
4.817180616740089,1.8543033785863168
4.837004405286344,1.8599908082244934
4.856828193832599,1.864304391168938
4.876651982378855,1.867236089440685
4.896475770925111,1.8687803718042164
4.9162995594713665,1.8689342045657387
4.936123348017622,1.8676970478075938
4.955947136563877,1.86507085698173
4.975770925110133,1.861060089870191
4.995594713656388,1.8556717190063121
5.015418502202644,1.848915249737255
5.035242290748899,1.8408027441974124
5.055066079295155,1.8313488515543455
5.07488986784141,1.820570844985441
5.094713656387666,1.8084886659440151
5.114537444933921,1.7951249763809287
5.134361233480177,1.7805052196996263
5.154185022026432,1.7646576913418899
5.174008810572688,1.7476136200260066
5.193832599118943,1.7294072607886277
5.213656387665199,1.7100760011139455
5.2334801762114544,1.6896604815666427
5.25330396475771,1.6682047324715283
5.2731277533039655,1.6457563282973466
5.292951541850221,1.6223665614930964
5.312775330396477,1.598090637576145
5.332599118942731,1.572987893262475
5.352422907488988,1.5471220393300134
5.372246696035242,1.5205614296766599
5.392070484581499,1.4933793576220222
5.4118942731277535,1.465654379837925
5.43171806167401,1.437470667285719
5.451541850220265,1.4089183810774615
5.47136563876652,1.3800940691222232
5.491189427312777,1.3511010766017475
5.511013215859031,1.3220499595509716
5.530837004405288,1.293058885893296
5.550660792951542,1.2642540020014503
5.570484581497798,1.2357697350726493
5.5903083700440535,1.2077489922808158
5.610132158590309,1.1803432069655966
5.6299559471365646,1.15371217053813
5.64977973568282,1.1280235773273168
5.669603524229076,1.1034521999308513
5.689427312775331,1.080178607262127
5.709251101321586,1.058387339726549
5.729074889867842,1.0382644697792824
5.748898678414098,1.019994505514427
5.768722466960353,1.0037566428875007
5.788546255506609,0.9897204391005715
5.808370044052864,0.9780410617369544
5.82819383259912,0.9688543560228351
5.848017621145375,0.9622720511638001
5.867841409691631,0.9583774776317637
5.887665198237886,0.9572221730504753
5.907488986784142,0.9588237041222888
5.927312775330397,0.9631649268424574
5.9471365638766525,0.970194761846338
5.966960352422908,0.9798304019929872
5.986784140969164,0.9919607251788843
6.00660792951542,1.0064505823693235
6.026431718061675,1.0231455830958383
6.04625550660793,1.041877008567717
6.066079295154186,1.0624665348497464
6.085903083700441,1.0847305276287256
6.105726872246697,1.1084837576274065
6.125550660792952,1.1335424670343954
6.145374449339208,1.1597267832895524
6.1651982378854635,1.1868625235827734
6.185022026431718,1.2147824620512675
6.204845814977975,1.2433271449287744
6.224669603524229,1.2723453408105705
6.244493392070486,1.3016942076707814
6.264317180616741,1.3312392485860451
6.284140969162996,1.360854116721528
6.303964757709252,1.3904203186580886
6.323788546255507,1.419826854554236
6.3436123348017635,1.4489698244276024
6.363436123348018,1.4777520221631537
6.3832599118942746,1.5060825326654095
6.403083700440529,1.5338763427183695
6.422907488986785,1.5610539724042292
6.44273127753304,1.587541131157528
6.462555066079296,1.61326840050655
6.482378854625551,1.6381709441144692
6.502202643171807,1.6621882447415937
6.5220264317180625,1.6852638670946376
6.541850220264318,1.7073452451232016
6.561674008810574,1.7283834920967531
6.581497797356829,1.7483332316977123
6.601321585903085,1.7671524483565548
6.62114537444934,1.7848023551055185
6.640969162995596,1.8012472773167643
6.6607929515418505,1.816454550803462
6.680616740088107,1.8303944328876078
6.700440528634362,1.8430400251693897
6.720264317180618,1.8543672068635633
6.740088105726873,1.864354577696945
6.759911894273129,1.872983409484666
6.779735682819384,1.8802376056204377
6.799559471365639,1.886103667828927
6.819383259911895,1.8905706696340134
6.83920704845815,1.893630236098237
6.859030837004407,1.8952765294853977
6.8788546255506615,1.8955062405910166
6.898678414096917,1.8943185855755238
6.918502202643173,1.89171530822382
6.938325991189428,1.8877006876418059
6.958149779735684,1.8822815514893905
6.977973568281939,1.8754672949377929
6.997797356828195,1.8672699056315039
7.01762114537445,1.8577039950301701
7.037444933920705,1.8467868366051245
7.0572687224669615,1.834538411470619
7.077092511013216,1.8209814621408666
7.096916299559473,1.8061415552216193
7.116740088105728,1.7900471539702598
7.136563876651983,1.7727297017901587
7.156387665198239,1.7542237178627607
7.176211453744494,1.734566906263497
7.19603524229075,1.7138002800515
7.215859030837005,1.6919683019630984
7.235682819383261,1.669119043469422
7.255506607929516,1.6453043640662326
7.275330396475772,1.6205801127359676
7.295154185022027,1.5950063535350512
7.314977973568283,1.568647617184258
7.334801762114538,1.5415731803365262
7.354625550660794,1.5138573738101164
7.374449339207049,1.4855799204333817
7.394273127753305,1.4568263021593453
7.4140969162995605,1.427688154653451
7.433920704845816,1.3982636854894994
7.453744493392072,1.368658109230309
7.473568281938327,1.3389840888116356
7.493392070484583,1.3093621675696754
7.513215859030838,1.2799211697263473
7.533039647577093,1.250798538995887
7.552863436123348,1.2221405751249406
7.572687224669605,1.1941025167610175
7.59251101321586,1.1668484065436826
7.612334801762115,1.1405506617363814
7.6321585903083715,1.1153892627984174
7.651982378854627,1.0915504656612451
7.671806167400882,1.0692249446972244
7.691629955947137,1.0486052867743643
7.711453744493394,1.0298827868515756
7.731277533039649,1.0132435457517464
7.751101321585904,0.9988639418498533
7.7709251101321595,0.9869056366110666
7.790748898678416,0.9775103692706003
7.81057268722467,0.9707948822636115
7.830396475770926,0.9668463760266737
7.850220264317182,0.9657188999855781
7.870044052863436,0.9674310336158304
7.889867841409693,0.9719650981535842
7.909691629955948,0.9792679819665796
7.929515418502204,0.9892534892857991
7.9493392070484585,1.0018059660522431
7.969162995594715,1.016784846062184
7.9889867841409705,1.0340297107196335
8.008810572687224,1.0533654664871042
8.02863436123348,1.0746073027557093
8.048458149779737,1.0975651796797583
8.068281938325994,1.1220476904532313
8.088105726872246,1.1478652296941203
8.107929515418503,1.1748324694706922
8.12775330396476,1.2027701935213084
8.147577092511014,1.231506569344763
8.167400881057269,1.2608779506008567
8.187224669603525,1.290729303117241
8.207048458149782,1.3209143410177193
8.226872246696036,1.35129544857719
8.246696035242293,1.3817434509353774
8.266519823788547,1.4121372844489688
8.286343612334802,1.4423636062061072
8.306167400881058,1.4723163725293045
8.325991189427315,1.5018964082756638
8.345814977973568,1.5310109823305837
8.365638766519824,1.5595733996996002
8.38546255506608,1.5875026168146724
8.405286343612337,1.614722883862026
8.42511013215859,1.6411634159065105
8.444933920704846,1.666758093157746
8.464757709251103,1.6914451897511122
8.484581497797357,1.7151671297849749
8.504405286343614,1.7378702689752215
8.524229074889869,1.7595047000860402
8.544052863436125,1.780024080221417
8.56387665198238,1.7993854780739627
8.583700440528636,1.8175492392967028
8.60352422907489,1.8344788682696458
8.623348017621145,1.8501409246603648
8.643171806167402,1.864504933315126
8.662995594713658,1.8775433061591575
8.682819383259913,1.8892312749246851
8.702643171806168,1.899546833661585
8.722466960352424,1.908470690115661
8.74229074889868,1.9159862251838082
8.762114537444935,1.9220794597723
8.78193832599119,1.9267390284950625
8.801762114537446,1.9299561597542707
8.821585903083701,1.9317246618456898
8.841409691629957,1.9320409148271531
8.861233480176212,1.9309038679823127
8.881057268722468,1.9283150428028282
8.900881057268723,1.924278541503016
8.92070484581498,1.9188010611721418
8.940528634361234,1.911891913761966
8.960352422907489,1.903563052202646
8.980176211453745,1.8938291030392804
9.000000000000002,1.8827074060852729
9.019823788546258,1.8702180616988853
9.039647577092511,1.8563839864064646
9.059471365638768,1.8412309777202291
9.079295154185024,1.8247877891315605
9.099118942731279,1.8070862164015866
9.118942731277533,1.788161196420013
9.13876651982379,1.768050920057821
9.158590308370046,1.746796960598408
9.1784140969163,1.7244444194893627
9.198237885462555,1.7010420913068915
9.218061674008812,1.6766426499562466
9.237885462555067,1.651302858229274
9.257709251101323,1.6250838028826005
9.27753303964758,1.5980511573570864
9.297356828193834,1.5702754740898468
9.317180616740089,1.5418325080177533
9.337004405286345,1.512803572263044
9.356828193832602,1.4832759260280415
9.376651982378855,1.4533431932840284
9.396475770925111,1.423105808759726
9.416299559471367,1.3926714848261827
9.436123348017622,1.362155688910998
9.455947136563877,1.33168211580256
9.475770925110133,1.3013831323686724
9.49559471365639,1.2714001635892418
9.515418502202644,1.24188397827073
9.5352422907489,1.212994820459737
9.555066079295155,1.1849023188559442
9.57488986784141,1.1577850924540853
9.594713656387666,1.1318299580242088
9.614537444933923,1.1072306366703335
9.634361233480178,1.0841858564855742
9.654185022026432,1.0628967610602598
9.674008810572689,1.0435635644099768
9.693832599118945,1.0263814459363392
9.713656387665198,1.011535755647267
9.733480176211454,0.9991966963184002
9.75330396475771,0.9895137549325184
9.773127753303967,0.9826102527095204
9.792951541850222,0.9785784485312177
9.812775330396477,0.9774756422473493
9.832599118942733,0.9793216678208585
9.852422907488988,0.9840980418846714
9.872246696035244,0.9917488590033049
9.892070484581499,1.002183332988966
9.911894273127754,1.015279711493121
9.93171806167401,1.0308901703207147
9.951541850220266,1.0488462413785573
9.971365638766521,1.0689643431841196
9.991189427312776,1.0910510503640702
10.011013215859032,1.1149078360864388
10.030837004405289,1.140335126357995
10.050660792951543,1.1671356001751838
10.070484581497798,1.1951167444922808
10.090308370044054,1.2240927245033164
10.11013215859031,1.2538856593645136
10.129955947136565,1.2843264054372008
10.14977973568282,1.3152549484856704
10.169603524229077,1.3465204977547072
10.189427312775331,1.3779813622809307
10.209251101321588,1.4095046758823468
10.229074889867842,1.440966023763861
10.248898678414099,1.4722490115443478
10.268722466960353,1.5032448071809934
10.28854625550661,1.5338516778160125
10.308370044052865,1.5639745368756706
10.32819383259912,1.593524511590852
10.348017621145376,1.62241853722745
10.367841409691632,1.6505789814671126
10.387665198237887,1.6779333003422554
10.407488986784141,1.704413725715171
10.427312775330398,1.7299569833463302
10.447136563876654,1.7545040399985994
10.466960352422909,1.7779998776772217
10.486784140969164,1.8003932929373694
10.50660792951542,1.8216367191471237
10.526431718061675,1.8416860696338737
10.546255506607931,1.8605005997363813
10.566079295154186,1.878042785912624
10.585903083700442,1.89427822019945
10.605726872246697,1.9091755184743175
10.625550660792953,1.9227062411248264
10.645374449339208,1.9348448248840469
10.665198237885463,1.945568524735707
