Frequency (Hz),Amplitude
0.0,1.148503915924934
0.01978021978021978,1.1535892100682157
0.03956043956043956,1.1686926064480814
0.05934065934065934,1.1933759244007376
0.07912087912087912,1.2269675798587283
0.0989010989010989,1.268633968363135
0.11868131868131868,1.3174538179381472
0.13846153846153844,1.372482900412005
0.15824175824175823,1.432802581510997
0.17802197802197803,1.4975512352927725
0.1978021978021978,1.5659409993528248
0.21758241758241756,1.6372636824160673
0.23736263736263735,1.7108895614429624
0.2571428571428572,1.7862620759930783
0.2769230769230769,1.8628905557724718
0.2967032967032967,1.940342356620456
0.31648351648351647,2.018235210383454
0.3362637362637363,2.0962302072457613
0.35604395604395606,2.174025585750477
0.3758241758241758,2.2513513633626387
0.3956043956043956,2.327964764000299
0.4153846153846154,2.403646363166403
0.4351648351648351,2.478196859194203
0.45494505494505494,2.551434379916115
0.4747252747252747,2.6231922412589515
0.4945054945054945,2.6933170840734544
0.5142857142857143,2.7616673258362354
0.5340659340659341,2.828111873650186
0.5538461538461538,2.8925290537349984
0.5736263736263736,2.954805720192047
0.5934065934065934,3.014836512266094
0.6131868131868132,3.0725232347120883
0.6329670329670329,3.127774340340385
0.6527472527472528,3.1805044974950616
0.6725274725274726,3.230634228244633
0.6923076923076923,3.278089605545648
0.7120879120879121,3.3228019996742515
0.7318681318681318,3.3647078658898093
0.7516483516483516,3.403748566665914
0.7714285714285715,3.439870222953016
0.7912087912087912,3.473023589868347
0.810989010989011,3.5031639529804393
0.8307692307692308,3.530251041996585
0.8505494505494506,3.55424895919728
0.8703296703296702,3.575126120411058
0.8901098901098901,3.5928552067034025
0.9098901098901099,3.607413125277087
0.9296703296703297,3.618780978359751
0.9494505494505494,3.626944039096964
0.9692307692307692,3.631891733683017
0.989010989010989,3.6336176291535294
1.0087912087912088,3.63211942644014
1.0285714285714287,3.6273989584519293
1.0483516483516484,3.619462193106763
1.0681318681318681,3.6083192413915945
1.087912087912088,3.593984370689229
1.1076923076923075,3.5764760237737367
1.1274725274725275,3.5558168440528606
1.1472527472527472,3.532033707827834
1.1670329670329669,3.5051577645554453
1.1868131868131868,3.4752244863396764
1.2065934065934065,3.442273728159206
1.2263736263736265,3.4063498006612587
1.2461538461538462,3.3675015577327567
1.2659340659340659,3.325782501509841
1.2857142857142858,3.2812509080229546
1.3054945054945055,3.2339699773162898
1.3252747252747252,3.1840080126525674
1.3450549450549452,3.1314386343459417
1.3648351648351649,3.076341034895059
1.3846153846153846,3.0188002834594276
1.4043956043956045,2.9589076893909065
1.4241758241758242,2.89676123656535
1.443956043956044,2.83246610273838
1.4637362637362636,2.766135281169872
1.4835164835164834,2.69789032543664
1.5032967032967033,2.6278622428079172
1.523076923076923,2.55619256692901
1.542857142857143,2.4830346469747178
1.5626373626373626,2.4085551979944504
1.5824175824175823,2.3329361658911862
1.6021978021978023,2.256376970200412
1.621978021978022,2.179097198078106
1.6417582417582417,2.101339832595514
1.6615384615384616,2.023375105482614
1.6813186813186813,1.9455050650797336
1.7010989010989013,1.8680689379419873
1.720879120879121,1.7914493265813238
1.7406593406593405,1.7160792093608168
1.7604395604395604,1.642449566436525
1.7802197802197801,1.5711172131898967
1.7999999999999998,1.5027120377084082
1.8197802197802198,1.4379422727788833
1.8395604395604395,1.37759567812876
1.8593406593406594,1.3225336447402258
1.879120879120879,1.2736745112964747
1.8989010989010988,1.2319623099681762
1.9186813186813187,1.1983184802889455
1.9384615384615385,1.1735775033121132
1.9582417582417584,1.1584128953903359
1.978021978021978,1.153266040360087
1.9978021978021978,1.1582938480238332
2.0175824175824175,1.1733491058938612
2.0373626373626372,1.1979991429106223
2.0571428571428574,1.231577447401528
2.076923076923077,1.27325451237918
2.096703296703297,1.322111901015621
2.1164835164835165,1.3772069263591304
2.1362637362637362,1.4376213549010624
2.1560439560439564,1.5024930665392693
2.175824175824176,1.571033070890546
2.195604395604396,1.6425316455095416
2.215384615384615,1.716357314223066
2.2351648351648348,1.7919516719951214
2.254945054945055,1.8688221995753085
2.2747252747252746,1.9465344531842044
2.2945054945054943,2.0247044441966318
2.314285714285714,2.1029916351688933
2.3340659340659338,2.181092733266878
2.353846153846154,2.2587363180584266
2.3736263736263736,2.3356782628701316
2.3934065934065933,2.411697872140879
2.413186813186813,2.486594644406404
2.4329670329670328,2.5601855708900967
2.452747252747253,2.6323028865711464
2.4725274725274726,2.702792200217207
2.4923076923076923,2.7715109400832483
2.512087912087912,2.8383270616977194
2.5318681318681318,2.903117972884906
2.5516483516483515,2.965769638746228
2.5714285714285716,3.026175835754209
2.5912087912087913,3.084237529498407
2.610989010989011,3.1398623550911515
2.6307692307692307,3.192964182927618
2.6505494505494505,3.2434627555256776
2.6703296703296706,3.291283383658322
2.6901098901098903,3.3363566920321017
2.70989010989011,3.3786184064394917
2.7296703296703297,3.4180091756893747
2.7494505494505495,3.4544744227530138
2.769230769230769,3.487964220498447
2.7890109890109893,3.5184331881609445
2.808791208791209,3.5458404053415125
2.8285714285714287,3.5701493408634613
2.8483516483516484,3.5913277942689685
2.8681318681318677,3.609347848119576
2.887912087912088,3.6241858295903295
2.9076923076923076,3.6358222801271047
2.9274725274725273,3.6442419321808304
2.947252747252747,3.6494336922474613
2.9670329670329667,3.651390629635944
2.986813186813187,3.6501099705637494
3.0065934065934066,3.6455930973452486
3.0263736263736263,3.637845552597977
3.046153846153846,3.626877048549199
3.0659340659340657,3.612701481684751
3.085714285714286,3.5953369531486836
3.1054945054945056,3.5748057954797448
3.1252747252747253,3.5511346064648404
3.145054945054945,3.5243542911058077
3.1648351648351647,3.494500112940919
3.184615384615385,3.4616117562436672
3.2043956043956046,3.4257334009486446
3.2241758241758243,3.386913812538057
3.243956043956044,3.345206449575936
3.2637362637362637,3.3006695921175067
3.2835164835164834,3.253366494867317
3.3032967032967036,3.2033655697366252
3.3230769230769233,3.1507406033882517
3.342857142857143,3.0955710164916517
3.3626373626373627,3.0379421727884246
3.3824175824175824,2.977945747742451
3.4021978021978025,2.9156801685874374
3.4219780219780223,2.8512511400665312
3.441758241758242,2.7847722731796885
3.4615384615384617,2.7163658379240614
3.481318681318681,2.6461636654540643
3.501098901098901,2.574308230431097
3.520879120879121,2.50095395070056
3.5406593406593405,2.426268748914218
3.5604395604395602,2.3504359293086967
3.58021978021978,2.273656432379218
3.5999999999999996,2.1961515401363045
3.61978021978022,2.1181661138904953
3.6395604395604395,2.039972452937399
3.659340659340659,1.9618748622772526
3.679120879120879,1.8842150040492947
3.6989010989010986,1.8073780699737862
3.718681318681319,1.7317997340081013
3.7384615384615385,1.6579737008223199
3.758241758241758,1.586459422637501
3.7780219780219784,1.5178891737570006
3.7978021978021976,1.4529731122901481
3.8175824175824173,1.3925002177735541
3.8373626373626375,1.3373321538124596
3.8571428571428568,1.288386417059057
3.876923076923077,1.2466050948786265
3.896703296703296,1.2129068854822378
3.916483516483517,1.1881233987390112
3.936263736263736,1.1729261123851542
3.956043956043956,1.1677562158738721
3.9758241758241755,1.1727729546413805
3.9956043956043956,1.1878340158088196
4.015384615384615,1.2125134992655582
4.035164835164835,1.246152356453351
4.054945054945055,1.28792798740541
4.0747252747252745,1.3369273567911744
4.094505494505494,1.3922111930590242
4.114285714285715,1.4528626498954724
4.134065934065934,1.518019220956305
4.153846153846154,1.5868901499243895
4.173626373626373,1.6587629815989726
4.193406593406594,1.733002903537329
4.213186813186813,1.809047857479064
4.232967032967033,1.8864015623514458
4.252747252747253,1.9646258450819354
4.2725274725274724,2.04333310902183
4.292307692307692,2.1221793805640448
4.312087912087913,2.200858126827885
4.331868131868132,2.279094890402109
4.351648351648352,2.3566427068736635
4.371428571428571,2.4332782321014617
4.391208791208792,2.508798491899861
4.410989010989011,2.5830181660668794
4.43076923076923,2.655767324846255
4.450549450549451,2.726889545028403
4.4703296703296695,2.7962403427807567
4.49010989010989,2.863685869806297
4.50989010989011,2.929101828025747
4.52967032967033,2.992372565474152
4.549450549450549,3.0533903224904106
4.569230769230769,3.112054602641607
4.589010989010989,3.1682716472854113
4.608791208791209,3.2219539963605723
4.628571428571428,3.273020121031812
4.648351648351649,3.321394116310743
4.6681318681318675,3.3670054438234884
4.687912087912088,3.409788716579599
4.707692307692308,3.449683518981546
4.7274725274725276,3.486634256455515
4.747252747252747,3.5205900300272472
4.767032967032967,3.5515045319480336
4.786813186813187,3.579335959126495
4.806593406593407,3.604046941664978
4.826373626373626,3.6256044842563324
4.846153846153847,3.643979918583039
4.8659340659340655,3.6591488651902018
4.885714285714286,3.671091203587479
4.905494505494506,3.6797910495821626
4.9252747252747255,3.685236739063885
4.945054945054945,3.6874208176576517
4.964835164835165,3.6863400358417207
4.984615384615385,3.6819953492955624
5.004395604395604,3.6743919244052603
5.024175824175824,3.6635391490138596
5.043956043956045,3.649450648666795
5.0637362637362635,3.6321443087717347
5.083516483516483,3.6116423032732845
5.103296703296703,3.5879711306403657
5.123076923076923,3.5611616581845844
5.142857142857143,3.5312491759768894
5.162637362637362,3.498273461916437
5.182417582417583,3.4622788598380216
5.2021978021978015,3.423314372934564
5.221978021978022,3.381433775232025
5.241758241758242,3.336695744402123
5.2615384615384615,3.2891640198538963
5.281318681318681,3.2389075908317433
5.301098901098901,3.186000920196652
5.320879120879121,3.1305242107138667
5.340659340659341,3.0725637220602766
5.36043956043956,3.0122121484520163
5.380219780219781,2.94956906884308
5.3999999999999995,2.8847414841378702
5.41978021978022,2.8178444588866793
5.43956043956044,2.749001888599562
5.4593406593406595,2.678347418238072
5.479120879120879,2.606025542747047
5.498901098901099,2.5321929267797403
5.518681318681319,2.4570199881173544
5.538461538461538,2.3806927976605583
5.558241758241758,2.303415358057608
5.578021978021979,2.2254123324606514
5.5978021978021975,2.1469323033795713
5.617582417582418,2.0682516468958307
5.637362637362637,1.989679105656469
5.6571428571428575,1.91156112842737
5.676923076923077,1.834288003767202
5.696703296703297,1.7583007339219503
5.716483516483517,1.6840984479831989
5.736263736263735,1.6122459079299976
5.756043956043956,1.5433802790739009
5.775824175824176,1.4782157852690725
5.795604395604395,1.4175441504986859
5.815384615384615,1.3622279301976143
5.835164835164835,1.3131832095152083
5.854945054945055,1.2713481753794278
5.874725274725275,1.237635438037632
5.894505494505494,1.212869286961486
5.914285714285715,1.1977142244866292
5.934065934065933,1.192606667220358
5.953846153846154,1.1977048202047398
5.973626373626374,1.212869654301114
5.993406593406593,1.2376822654566886
6.013186813186813,1.2714927468562056
6.032967032967033,1.3134878718554237
6.052747252747253,1.3627625679282909
6.072527472527473,1.4183831050400797
6.092307692307692,1.4794354211068146
6.112087912087913,1.545057211816878
6.131868131868131,1.6144558008661494
6.151648351648352,1.6869152447344378
6.171428571428572,1.7617961988601227
6.191208791208791,1.8385314652162053
6.210989010989011,1.9166193471747484
6.230769230769231,1.9956162155855397
6.2505494505494505,2.075129133271531
6.270329670329671,2.1548089976088614
6.29010989010989,2.2343444110528625
6.309890109890111,2.3134563392156977
6.329670329670329,2.391893532447736
6.349450549450549,2.469428645218016
6.36923076923077,2.545854971037077
6.3890109890109885,2.620983708262532
6.408791208791209,2.694641677086785
6.428571428571428,2.7666694162926424
6.4483516483516485,2.836919597685107
6.468131868131868,2.905255705242646
6.487912087912088,2.9715509343864035
6.507692307692308,3.035687274109015
6.527472527472527,3.097554741000611
6.547252747252747,3.1570507395211944
6.567032967032967,3.2140795273030593
6.5868131868131865,3.2685517679441647
6.606593406593407,3.320384156789427
6.626373626373626,3.3694991076979286
6.6461538461538465,3.415824490852394
6.665934065934065,3.4592934133614257
6.685714285714286,3.499844035800811
6.705494505494506,3.5374194189923056
6.725274725274725,3.5719673962711624
6.745054945054945,3.6034404672849534
6.764835164835165,3.6317957100246896
6.7846153846153845,3.6569947083407737
6.804395604395605,3.679003492659748
6.824175824175824,3.6977924920109406
6.8439560439560445,3.7133364958067916
6.863736263736263,3.725614624110003
6.883516483516484,3.7346103053723394
6.903296703296704,3.7403112608528124
6.923076923076923,3.742709495123502
6.942857142857143,3.7418012922553006
6.962637362637362,3.737587217448559
6.9824175824175825,3.7300721240399883
7.002197802197802,3.7192651659814002
7.021978021978022,3.705179816053028
7.041758241758242,3.6878338902479295
7.061538461538461,3.6672495789501744
7.081318681318681,3.6434534857326084
7.101098901098901,3.616476674826144
7.1208791208791204,3.5863547285689923
7.140659340659341,3.553127816437994
7.16043956043956,3.5168407776056987
7.1802197802197805,3.477543219366657
7.199999999999999,3.435289634248441
7.21978021978022,3.390139539183592
7.23956043956044,3.3421576407883284
7.259340659340659,3.2914140315967586
7.279120879120879,3.237984423065316
7.298901098901099,3.1819504223285926
7.318681318681318,3.1233998610973734
7.338461538461539,3.0624271867981303
7.358241758241758,2.999133928123238
7.3780219780219785,2.9336292496700422
7.397802197802197,2.866030613383147
7.417582417582418,2.7964645681781928
7.437362637362638,2.7250676935257685
7.457142857142857,2.6519877280185065
7.476923076923077,2.5773849201221593
7.496703296703297,2.5014336454614448
7.516483516483516,2.4243243430417856
7.536263736263736,2.346265831478384
7.556043956043957,2.267488074936255
7.575824175824176,2.18824547577107
7.595604395604395,2.1088207744122505
7.615384615384615,2.029529632713794
7.635164835164835,1.9507259579665168
7.654945054945055,1.872807980126555
7.674725274725275,1.7962250080152045
7.694505494505494,1.7214846375799224
7.7142857142857135,1.6491599356948063
7.734065934065935,1.5798957415874761
7.753846153846154,1.5144126884605391
7.7736263736263735,1.4535068603811836
7.793406593406592,1.3980422612754544
7.813186813186814,1.3489327380389808
7.832967032967034,1.307110134548811
7.852747252747252,1.2734768880503238
7.872527472527472,1.2488445275632847
7.892307692307693,1.2338644277149364
7.912087912087912,1.2289622789364707
7.931868131868132,1.234290444032711
7.951648351648351,1.2497102290622055
7.971428571428572,1.2748088634413905
7.991208791208791,1.3089465354020322
8.010989010989011,1.3513215427729526
8.03076923076923,1.4010394020416377
8.05054945054945,1.4571744081017848
8.07032967032967,1.518817218799301
8.09010989010989,1.5851069361629586
8.10989010989011,1.6552494235862074
8.129670329670331,1.7285250541740629
8.149450549450549,1.804289236710496
8.169230769230769,1.8819685410676952
8.189010989010988,1.9610545117385791
8.20879120879121,2.041096572500771
8.22857142857143,2.1216948857625715
8.248351648351647,2.2024936480394213
8.268131868131867,2.2831750524642334
8.287912087912087,2.363453995674819
8.307692307692308,2.4430735188652264
8.327472527472528,2.5218009275488718
8.347252747252746,2.599424515092197
8.367032967032966,2.6757508104195202
8.386813186813187,2.750602273589955
8.406593406593407,2.8238153700489987
8.426373626373627,2.895238962855688
8.446153846153845,2.964732970758251
8.465934065934066,3.0321672479704254
8.485714285714286,3.097420648598116
8.505494505494505,3.160380244805428
8.525274725274725,3.2209406730254098
8.545054945054945,3.2790035868999188
8.564835164835165,3.3344771992818707
8.584615384615384,3.3872758986573688
8.604395604395604,3.437319927845825
8.624175824175826,3.484535114899755
8.643956043956043,3.528852647829522
8.663736263736263,3.570208886185013
8.683516483516483,3.6085452036897734
8.703296703296704,3.6438078570880275
8.723076923076924,3.6759478771666934
8.742857142857142,3.704920978583976
8.762637362637362,3.730687485696904
8.782417582417583,3.753212272052667
8.802197802197803,3.772464711609702
8.821978021978023,3.788418640096898
8.84175824175824,3.8010523252153257
8.86153846153846,3.810348444645164
8.881318681318682,3.8162940710495192
8.901098901098901,3.818880663473111
8.920879120879121,3.8181040647235602
8.940659340659339,3.813964504501343
8.96043956043956,3.8064666082165064
8.98021978021978,3.795619411600464
9.0,3.781436381394319
9.01978021978022,3.7639354425757268
9.03956043956044,3.743139012779433
9.05934065934066,3.719074044777627
9.079120879120879,3.6917720781212453
9.098901098901099,3.661269301309179
9.11868131868132,3.62760662615734
9.138461538461538,3.59082977639319
9.158241758241758,3.5509893929152305
9.178021978021977,3.508141158644634
9.197802197802199,3.4623459464750828
9.217582417582419,3.4136699945162925
9.237362637362637,3.3621851136522607
9.257142857142856,3.3079689334262543
9.276923076923078,3.251105193457418
9.296703296703297,3.1916840890328095
9.316483516483517,3.1298026812554363
9.336263736263735,3.0655653842268356
9.356043956043957,2.9990845442741643
9.375824175824176,2.9304811292807127
9.395604395604396,2.8598855498370166
9.415384615384616,2.787438638293261
9.435164835164835,2.71329281695077
9.454945054945055,2.6376134926413495
9.474725274725275,2.560580721803835
9.494505494505495,2.482391197744044
9.514285714285714,2.4032606196868627
9.534065934065934,2.3234265107164607
9.553846153846154,2.243151557276276
9.573626373626373,2.162727543961087
9.593406593406593,2.082479949492219
9.613186813186815,2.0027732459231213
9.632967032967032,1.9240168922356264
9.652747252747252,1.8466719191821872
9.672527472527472,1.771257841724031
9.692307692307693,1.6983593799993688
9.712087912087913,1.6286320893972783
9.731868131868131,1.5628054768935657
9.75164835164835,1.5016815361624183
9.771428571428572,1.446125977418982
9.791208791208792,1.3970490167036573
9.810989010989012,1.355372866122476
9.83076923076923,1.3219845923842395
9.850549450549451,1.297676186082258
9.87032967032967,1.2830782414495416
9.89010989010989,1.2785981873300967
9.90989010989011,1.2843761785581607
9.92967032967033,1.3002694828673822
9.94945054945055,1.3258694447434016
9.96923076923077,1.360546523988432
9.989010989010989,1.4035123507038307
10.008791208791209,1.45388572792036
10.028571428571428,1.5107518633447379
10.048351648351648,1.5732086937297067
10.068131868131868,1.6403986588439918
10.08791208791209,1.7115273586354895
10.107692307692307,1.7858719710770101
10.127472527472527,1.862782537553216
10.147252747252747,1.9416787941009002
10.167032967032966,2.022044571315754
10.186813186813188,2.103421150111203
10.206593406593406,2.1854004476375355
10.226373626373626,2.2676185363944974
10.246153846153845,2.34974975090909
10.265934065934067,2.4315014804084454
10.285714285714286,2.5126096544701655
10.305494505494504,2.592834879405666
10.325274725274724,2.671959160167268
10.345054945054946,2.7497831351263757
10.364835164835165,2.826123752249372
10.384615384615385,2.900812320741254
10.404395604395603,2.973692879608458
10.424175824175824,3.0446208323813493
10.443956043956044,3.1134618046766915
10.463736263736264,3.18009068801308
10.483516483516484,3.2443908391903404
10.503296703296703,3.3062534096035567
10.523076923076923,3.365576783144582
10.542857142857143,3.422266104934135
10.562637362637362,3.4762328861211858
10.582417582417584,3.5273946724724214
10.602197802197802,3.575674766535769
10.621978021978022,3.6210019948691103
10.641758241758241,3.6633105132405293
10.661538461538463,3.702539643880102
10.681318681318682,3.7386337398393046
