Time (s),Filtered Signal
0.0,0.020246175929563414
0.0334075723830735,0.0569618210363105
0.066815144766147,0.08361132915496297
0.1002227171492205,0.09333150218660978
0.133630289532294,0.08433912656115881
0.1670378619153675,0.060204344115829096
0.200445434298441,0.02838135233357223
0.23385300668151449,-0.0023951131727328497
0.267260579064588,-0.024873245954504297
0.3006681514476615,-0.03524670651180544
0.334075723830735,-0.03372490033960567
0.3674832962138085,-0.02368970459155862
0.400890868596882,-0.009954832513801816
0.4342984409799555,0.003073921143990455
0.46770601336302897,0.012626660515441611
0.5011135857461025,0.017868753584565182
0.534521158129176,0.01943281151325664
0.5679287305122495,0.018644454876755392
0.601336302895323,0.016885856744504994
0.6347438752783965,0.015278667563455804
0.66815144766147,0.014582410376299494
0.7015590200445435,0.015100641103566187
0.734966592427617,0.01650665812589781
0.7683741648106905,0.017707100103035552
0.801781737193764,0.01696241386161287
0.8351893095768375,0.012381384902387957
0.868596881959911,0.00266817100066464
0.9020044543429845,-0.012207101914577271
0.9354120267260579,-0.030770865790501596
0.9688195991091315,-0.05041393370959186
1.002227171492205,-0.06823823300706448
1.0356347438752784,-0.08201013120136318
1.069042316258352,-0.09079188122659214
1.1024498886414256,-0.09498590802139278
1.135857461024499,-0.09581723739367196
1.1692650334075725,-0.09454166993736457
1.202672605790646,-0.09177370812452704
1.2360801781737194,-0.08724388431050717
1.269487750556793,-0.0800789562388245
1.3028953229398665,-0.06945580195148886
1.33630289532294,-0.055310183725983446
1.3697104677060135,-0.03874755140720899
1.403118040089087,-0.02191787696628317
1.4365256124721606,-0.007339867781582715
1.469933184855234,0.0030926331217424052
1.5033407572383075,0.009017746059489034
1.536748329621381,0.012003596074765154
1.5701559020044544,0.015174296879527616
1.603563474387528,0.022098047027113446
1.6369710467706016,0.03530623130307898
1.670378619153675,0.055046258404181904
1.7037861915367485,0.07887171830949614
1.737193763919822,0.1023828022490495
1.7706013363028954,0.12092445998805566
1.804008908685969,0.1315467782144994
1.8374164810690425,0.1343049795501853
1.8708240534521159,0.1322031080785671
1.9042316258351895,0.129713427379318
1.937639198218263,0.1305338951573472
1.9710467706013366,0.1356784446395915
2.00445434298441,0.14286398060532696
2.0378619153674835,0.14751053388947147
2.071269487750557,0.1448546243809145
2.1046770601336307,0.13213629049590644
2.138084632516704,0.10983389974336724
2.1714922048997773,0.0814404187784263
2.204899777282851,0.05198545751595596
2.2383073496659245,0.02603840469797741
2.271714922048998,0.006061143029271085
2.3051224944320716,-0.008273745227873063
2.338530066815145,-0.01964162845145174
2.3719376391982183,-0.03178446098651842
2.405345211581292,-0.04793586063009435
2.4387527839643655,-0.06953432405316236
2.472160356347439,-0.09565459032373685
2.5055679287305126,-0.12332788595166967
2.538975501113586,-0.14863019191753457
2.5723830734966593,-0.16816271535607133
2.605790645879733,-0.18040630961328208
2.6391982182628064,-0.18646516753303502
2.67260579064588,-0.18992321996103884
2.7060133630289536,-0.19582861057880352
2.739420935412027,-0.20907087572829341
2.7728285077951007,-0.23255382619628573
2.806236080178174,-0.2656237247655141
2.8396436525612474,-0.3032474197181531
2.873051224944321,-0.3364303117573499
2.9064587973273945,-0.35419215521911884
2.939866369710468,-0.346951880469475
2.9732739420935417,-0.31045344980292666
3.006681514476615,-0.24868937370386132
3.0400890868596884,-0.1740993411340892
3.073496659242762,-0.10400286982988298
3.1069042316258355,-0.053771487898801054
3.140311804008909,-0.02914306192724767
3.1737193763919826,-0.021376570291496637
3.207126948775056,-0.008640687003265993
3.2405345211581293,0.03531821184306494
3.273942093541203,0.12794359578034276
3.3073496659242765,0.26622540926917
3.34075723830735,0.42374868925480286
3.3741648106904236,0.560598775391592
3.407572383073497,0.6439664954163073
3.4409799554565703,0.6703163032905401
3.474387527839644,0.6763104631432392
3.5077951002227175,0.7284861534433363
3.541202672605791,0.891151155501416
3.5746102449888646,1.184365446068157
3.608017817371938,1.5527491576138306
3.6414253897550113,1.8651880223389588
3.674832962138085,1.9534429641363655
3.7082405345211584,1.678611091823041
3.7416481069042318,0.9977407822578732
3.7750556792873056,-0.0015315621669423347
3.808463251670379,-1.1183682864841276
3.8418708240534527,-2.1043023432949273
3.875278396436526,-2.7496078445548227
3.9086859688195994,-2.9527435244930493
3.942093541202673,-2.743817446523771
3.9755011135857465,-2.2557774543106532
4.00890868596882,-1.6613001731656838
4.042316258351893,-1.1065924445165796
4.075723830734967,-0.6700715858600512
4.109131403118041,-0.357969018568399
4.142538975501114,-0.1300968604611855
4.1759465478841875,0.06300162436002806
4.209354120267261,0.25102142884012885
4.242761692650334,0.43394211140217365
4.276169265033408,0.5904722346432784
4.309576837416482,0.6957758629929353
4.342984409799555,0.7373450703589236
4.3763919821826285,0.7216027822502623
4.409799554565702,0.6700501025879227
4.443207126948775,0.608963613388045
4.476614699331849,0.5586979605837713
4.510022271714923,0.52746179913361
4.543429844097996,0.511380547327062
4.5768374164810695,0.4995329269507327
4.610244988864143,0.4807799901766754
4.643652561247216,0.44906210074097386
4.67706013363029,0.40510451905033484
4.710467706013364,0.35437964752682755
4.743875278396437,0.30287312801391036
4.77728285077951,0.2530425016911696
4.810690423162584,0.20207606558552646
4.844097995545657,0.1433443569775966
4.877505567928731,0.07035257667710071
4.910913140311805,-0.01873722895601217
4.944320712694878,-0.11828416592500404
4.977728285077951,-0.2156013152541429
5.011135857461025,-0.2947445517414103
5.044543429844098,-0.3422110902208176
5.077951002227172,-0.35215308251449917
5.111358574610246,-0.3288068035972469
5.144766146993319,-0.2849751905392351
5.178173719376392,-0.2371105361535749
5.211581291759466,-0.1990627311678416
5.244988864142539,-0.17716614600332184
5.278396436525613,-0.16871844070434225
5.311804008908687,-0.1643398418591008
5.34521158129176,-0.1529553298276915
5.378619153674833,-0.12706201672639758
5.412026726057907,-0.08600913679454696
5.445434298440981,-0.036104185832414294
5.478841870824054,0.012149961104529232
5.512249443207128,0.04822047300095519
5.545657015590201,0.0652780449866057
5.579064587973274,0.06210602837322054
5.612472160356348,0.04271128187134197
5.645879732739422,0.014116175610344138
5.679287305122495,-0.016549046112145013
5.712694877505569,-0.044387156883329844
5.746102449888642,-0.06759810985262726
5.779510022271715,-0.08666936619116765
5.812917594654789,-0.10248067001076044
5.846325167037863,-0.11442853346868212
5.879732739420936,-0.11966895385878311
5.91314031180401,-0.11401466821060503
5.946547884187083,-0.09414547420206712
5.979955456570156,-0.060023130215256126
6.01336302895323,-0.01616220059591919
6.046770601336304,0.02912480124649285
6.080178173719377,0.0664052526385779
6.1135857461024505,0.08862056945416275
6.146993318485524,0.09381025680477016
6.180400890868597,0.08579501060207545
6.213808463251671,0.07249381077292112
6.247216035634745,0.06263099981459672
6.280623608017818,0.06227543447310049
6.3140311804008915,0.07265885091297024
6.347438752783965,0.09010487796427717
6.380846325167038,0.107980550989493
6.414253897550112,0.11975448017982095
6.447661469933186,0.1218307712790155
6.481069042316259,0.1149784057173136
6.5144766146993325,0.10382783613150232
6.547884187082406,0.0947767983563406
6.581291759465479,0.09332593359120611
6.614699331848553,0.1020134948178465
6.648106904231627,0.11967978715313368
6.6815144766147,0.1420522246388353
6.7149220489977735,0.1630620165140856
6.748329621380847,0.17620939315126902
6.78173719376392,0.17564899887771296
6.815144766146994,0.15710969432820776
6.848552338530068,0.11889590280194316
6.881959910913141,0.06292353138023452
6.915367483296214,-0.004716052325468184
6.948775055679288,-0.07435612374379717
6.982182628062361,-0.13485340461137618
7.015590200445435,-0.17674841997199386
7.048997772828509,-0.19532724308061833
7.082405345211582,-0.1922411679023115
7.115812917594655,-0.17488406637728987
7.149220489977729,-0.1537399150445465
7.182628062360802,-0.1388367021040302
7.216035634743876,-0.1367608047898051
7.24944320712695,-0.14925322820944448
7.282850779510023,-0.17354207287891896
7.316258351893096,-0.20381307661935433
7.34966592427617,-0.23298133538430024
7.383073496659243,-0.25420339318620594
7.416481069042317,-0.26202102628250207
7.449888641425391,-0.2532690439541805
7.4832962138084635,-0.22776200543854055
7.516703786191537,-0.18847705195144102
7.550111358574611,-0.14082168811455056
7.583518930957685,-0.09086011895395812
7.616926503340758,-0.042992170682436916
7.650334075723832,0.0018602546520040165
7.683741648106905,0.04646262243315844
7.717149220489978,0.09543144252147104
7.750556792873052,0.15197902900618673
7.783964365256126,0.21475701316050771
7.817371937639199,0.27650498759329034
7.850779510022273,0.3255523432215987
7.884187082405346,0.34999569998314123
7.917594654788419,0.34309861337752534
7.951002227171493,0.30765353521775635
7.984409799554567,0.2570727374000375
8.01781737193764,0.2119575271439
8.051224944320714,0.1926373816144685
8.084632516703786,0.2101110988426076
8.118040089086861,0.2591257566095499
8.151447661469934,0.31699673922566207
8.184855233853007,0.3498860017103684
8.218262806236082,0.3251228748298643
8.251670378619155,0.22507268825199156
8.285077951002227,0.05661634082778402
8.318485523385302,-0.148461469182722
8.351893095768375,-0.3431858649001226
8.385300668151448,-0.4816654563578078
8.418708240534523,-0.5352362895484701
8.452115812917596,-0.501736777932289
8.485523385300668,-0.40431910063234433
8.518930957683743,-0.28092949509286413
8.552338530066816,-0.1695045004588777
8.585746102449889,-0.09521699429768843
8.619153674832964,-0.06444967323973337
8.652561247216036,-0.06673391225884126
8.68596881959911,-0.08248770753989347
8.719376391982184,-0.09249013515017253
8.752783964365257,-0.08514538689486682
8.78619153674833,-0.05924235962789203
8.819599109131405,-0.022102394530556214
8.853006681514477,0.01524041023411341
8.88641425389755,0.04341627954300612
8.919821826280625,0.05850656686205271
8.953229398663698,0.06304775459972219
8.98663697104677,0.06422508024541877
9.020044543429846,0.0701876857061084
9.053452115812918,0.08594949264013521
9.086859688195991,0.1104143691704869
9.120267260579066,0.13573718406723406
9.153674832962139,0.14955275588709813
9.187082405345212,0.13963566013392037
9.220489977728286,0.09949755839174879
9.25389755011136,0.032696107850852626
9.287305122494432,-0.046296759551515576
9.320712694877507,-0.11570330955531735
9.35412026726058,-0.15369270064062768
9.387527839643653,-0.14663039611700374
9.420935412026727,-0.09486996364908337
9.4543429844098,-0.013396199932123275
9.487750556792873,0.07325225831232014
9.521158129175948,0.139833754981807
9.55456570155902,0.169389124589853
9.587973273942094,0.1586981078708518
9.621380846325168,0.11817656801785299
9.654788418708241,0.06664020572247237
9.688195991091314,0.023451282645382297
9.721603563474389,0.0013848562309044517
9.755011135857462,0.0028864257186583756
9.788418708240535,0.020720753542815232
9.82182628062361,0.04216760376727754
9.855233853006682,0.05467334692456913
9.888641425389755,0.050616855895513096
9.92204899777283,0.029533585070495263
9.955456570155903,-0.0026498636354564003
9.988864142538976,-0.0366315726462218
10.02227171492205,-0.06354050545854517
10.055679287305123,-0.07801125959135459
10.089086859688196,-0.0795182884813438
10.12249443207127,-0.07176581612453235
10.155902004454344,-0.06068323529935496
10.189309576837417,-0.05200333958727118
10.222717149220491,-0.04938761720543964
10.256124721603564,-0.0536777433170782
10.289532293986637,-0.06330080790705309
10.322939866369712,-0.0753835173631466
10.356347438752785,-0.08692242706348528
10.389755011135858,-0.09547359588391355
10.423162583518932,-0.09918883590185915
10.456570155902005,-0.09644965682750425
10.489977728285078,-0.08560270802507008
10.523385300668153,-0.06521662436958728
10.556792873051226,-0.03487906644023411
10.590200445434299,0.003924908513397269
10.623608017817373,0.04752444714367512
10.657015590200446,0.09077542292985229
10.69042316258352,0.12856389520975334
10.723830734966594,0.1573115128702388
10.757238307349667,0.17558955768997703
10.790645879732741,0.18346312667768958
10.824053452115814,0.18103724491887
10.857461024498887,0.16730722394575523
10.890868596881962,0.14035743766846936
10.924276169265035,0.09914745299239226
10.957683741648108,0.04600162952183355
10.991091314031182,-0.011831693634808306
11.024498886414255,-0.06301699918795288
11.057906458797328,-0.09569377294205643
11.091314031180403,-0.10252176700584163
11.124721603563476,-0.08482604248467199
11.158129175946549,-0.05347976386737947
11.191536748329623,-0.0255010801456463
11.224944320712696,-0.017416426893400706
11.25835189309577,-0.0381962644600424
11.291759465478844,-0.08502254134521724
11.325167037861917,-0.14396833485116808
11.35857461024499,-0.1953991933475552
11.391982182628064,-0.2216860711396141
11.425389755011137,-0.21378108236174106
11.45879732739421,-0.17385607556110155
11.492204899777285,-0.11316577746780943
11.525612472160358,-0.046541165681857934
11.55902004454343,0.013677756218934438
11.592427616926505,0.061525279112779524
11.625835189309578,0.0977355642711872
11.659242761692651,0.12700067317916774
11.692650334075726,0.15402216553546738
11.726057906458799,0.18046946453346963
11.759465478841872,0.20412282559977743
11.792873051224946,0.22015678596951707
11.82628062360802,0.2234877677701944
11.859688195991092,0.21086305676076725
11.893095768374167,0.18187389123613804
11.92650334075724,0.13886317967349143
11.959910913140313,0.08622036216449491
11.993318485523387,0.029557042518101474
12.02672605790646,-0.02509343360921907
12.060133630289533,-0.07220378240927618
12.093541202672608,-0.10789939062802864
12.12694877505568,-0.13104730147919452
12.160356347438753,-0.14367677715056817
12.193763919821828,-0.15017662529794013
12.227171492204901,-0.15524898728887418
12.260579064587974,-0.16134787666051784
12.293986636971049,-0.16683609061478688
12.327394209354122,-0.16599051722172134
12.360801781737194,-0.15122914781684013
12.39420935412027,-0.11684733721715386
12.427616926503342,-0.06267355937987162
12.461024498886415,0.00413557829150102
12.49443207126949,0.07027958472668841
12.527839643652563,0.12033518205598256
12.561247216035635,0.14217744702310225
12.59465478841871,0.13164335693933213
12.628062360801783,0.09448281856095618
12.661469933184856,0.044693737581538114
12.69487750556793,-0.00021747326451325053
12.728285077951004,-0.025285519072524413
12.761692650334076,-0.023178472958768032
12.795100222717151,0.0035374200488826556
12.828507795100224,0.0437179813799673
12.861915367483297,0.08193013252207783
12.895322939866372,0.10399682934641974
12.928730512249444,0.10168905379385985
12.962138084632517,0.07490781303319373
12.995545657015592,0.030797572816575466
13.028953229398665,-0.01950677795575159
13.062360801781738,-0.06493613180510087
13.095768374164813,-0.09768789671068388
13.129175946547885,-0.11455943857574975
13.162583518930958,-0.11639226364113567
13.195991091314033,-0.10640189029235783
13.229398663697106,-0.088416244166782
13.262806236080179,-0.065747714157562
13.296213808463254,-0.040875155341292185
13.329621380846326,-0.01566332336963629
13.3630289532294,0.00830580156755365
13.396436525612474,0.029594419400462254
13.429844097995547,0.04702994355258318
13.46325167037862,0.059958755066792574
13.496659242761694,0.06843507468713074
13.530066815144767,0.07319355607578064
13.56347438752784,0.07536828555437909
13.596881959910915,0.0760474802170542
13.630289532293988,0.07584364422441996
13.66369710467706,0.0746760820025086
13.697104677060135,0.07188963495918001
13.730512249443208,0.06668482402518974
13.763919821826281,0.05866343307559681
13.797327394209356,0.04818621608735288
13.830734966592429,0.03628252851259124
13.864142538975502,0.024071836213855467
13.897550111358576,0.011967782248349544
13.93095768374165,-0.0008478716437093612
13.964365256124722,-0.016246267159701143
13.997772828507797,-0.03617922693351823
14.03118040089087,-0.061293493911603394
14.064587973273943,-0.08982367667817295
14.097995545657017,-0.11741440726085851
14.13140311804009,-0.1381319513435643
14.164810690423163,-0.14638469816310326
14.198218262806238,-0.13904226990166438
14.23162583518931,-0.1169071933914142
14.265033407572384,-0.08489103702871278
14.298440979955458,-0.05069965734018865
14.331848552338531,-0.022392133467264885
14.365256124721604,-0.005658834930426666
14.398663697104679,-0.0018704300514511404
14.432071269487752,-0.007743330575702633
14.465478841870825,-0.016856117276643514
14.4988864142539,-0.022439213440035494
14.532293986636972,-0.020200842246566566
14.565701559020045,-0.0098090619973723
14.59910913140312,0.005797705622653191
14.632516703786193,0.02300404510595283
14.665924276169266,0.04060468666650017
14.69933184855234,0.061434834834889304
14.732739420935413,0.0911158948471088
14.766146993318486,0.13400909909429162
14.79955456570156,0.1882842579359079
14.832962138084634,0.24305629435087778
14.866369710467707,0.27999436676334233
14.899777282850781,0.2796779765523503
14.933184855233854,0.23027340758655268
14.966592427616927,0.13437258030155358
15.0,0.01024123458143925
