Frequency (Hz),Amplitude
0.0,0.4131086932009953
0.019823788546255508,0.42323393524738956
0.039647577092511016,0.45221422644740616
0.059471365638766524,0.4966586745446968
0.07929515418502203,0.5526980854044179
0.09911894273127755,0.6169920477419617
0.11894273127753305,0.6870094281269373
0.13876651982378857,0.7609332065621848
0.15859030837004406,0.8374750579793758
0.17841409691629956,0.9157125086540713
0.1982378854625551,0.9949708907815723
0.2180616740088106,1.074743467099837
0.2378854625550661,1.1546385748874763
0.25770925110132165,1.234344697390719
0.27753303964757714,1.3136071850808524
0.29735682819383263,1.3922125376182024
0.31718061674008813,1.4699776323880551
0.3370044052863437,1.546742230136461
0.3568281938325991,1.6223636834090125
0.37665198237885467,1.6967131482600852
0.3964757709251102,1.769672837394151
0.41629955947136565,1.8411340053552225
0.4361233480176212,1.9109954554543604
0.4559471365638767,1.9791624234096157
0.4757709251101322,2.0455457363005487
0.49559471365638774,2.110061175000227
0.5154185022026433,2.172628988548054
0.5352422907488987,2.2331735230476046
0.5550660792951543,2.2916229376180945
0.5748898678414097,2.3479089870139345
0.5947136563876653,2.401966855631985
0.6145374449339208,2.453735031343134
0.6343612334801763,2.503155210319058
0.6541850220264318,2.5501722260553135
0.6740088105726874,2.59473399731253
0.6938325991189428,2.6367914908478776
0.7136563876651982,2.676298695685063
0.7334801762114539,2.7132126063443627
0.7533039647577093,2.7474932129757765
0.7731277533039648,2.7791034967450337
0.7929515418502204,2.8080094291421664
0.8127753303964759,2.8341799741356537
0.8325991189427313,2.857587092297508
0.8524229074889869,2.8782057461875885
0.8722466960352424,2.8960139064175885
0.8920704845814978,2.910992557923914
0.9118942731277534,2.9231257060682747
0.931718061674009,2.9324003822607523
0.9515418502202644,2.938806648864318
0.9713656387665199,2.9423376031958477
0.9911894273127755,2.9429893804881964
1.0110132158590308,2.94076115572305
1.0308370044052866,2.9356551442862204
1.0506607929515421,2.9276766014376756
1.0704845814977975,2.916833820628766
1.090308370044053,2.903138130740504
1.1101321585903086,2.886603892360565
1.1299559471365639,2.867248493264304
1.1497797356828194,2.845092343318719
1.1696035242290752,2.8201588690888926
1.1894273127753305,2.7924745084982074
1.209251101321586,2.762068705977281
1.2290748898678416,2.7289739086380105
1.248898678414097,2.6932255641319665
1.2687224669603525,2.6548621210026604
1.288546255506608,2.6139250325280745
1.3083700440528636,2.570458765282399
1.3281938325991192,2.524510813938973
1.3480176211453747,2.476131724207911
1.36784140969163,2.425375126276549
1.3876651982378856,2.372297781731884
1.4074889867841411,2.316959647737219
1.4273127753303965,2.2594239632716264
1.4471365638766522,2.1997573636084917
1.4669603524229078,2.1380300310266316
1.4867841409691631,2.074315892186988
1.5066079295154187,2.008692875910677
1.5264317180616742,1.9412432496120593
1.5462555066079295,1.8720540588827541
1.5660792951541853,1.8012177034438963
1.5859030837004409,1.7288326950068753
1.6057268722466962,1.6550046602082442
1.6255506607929517,1.579847677311717
1.6453744493392073,1.5034860728344681
1.6651982378854626,1.42605685999124
1.6850220264317182,1.3477130849352392
1.7048458149779737,1.268628475410133
1.7246696035242293,1.1890039858797514
1.7444933920704848,1.1090771462003912
1.7643171806167404,1.0291356165257117
1.7841409691629957,0.9495371382641152
1.8039647577092512,0.8707393097184508
1.8237885462555068,0.793344498923333
1.8436123348017623,0.7181678103776367
1.863436123348018,0.6463386790968351
1.8832599118942732,0.5794459011851302
1.9030837004405288,0.5197199286029424
1.9229074889867843,0.4701856180397498
1.9427312775330399,0.4345751313113635
1.9625550660792954,0.4166362004026693
1.982378854625551,0.4187258151843005
2.002202643171806,0.4405572645676903
2.0220264317180616,0.4793688065661327
2.041850220264317,0.5313242918547574
2.061674008810573,0.5928066602407299
2.0814977973568287,0.6609589769993794
2.1013215859030843,0.7336968155089563
2.1211453744493394,0.8095387687780722
2.140969162995595,0.8874294409103743
2.1607929515418505,0.9666037295296227
2.180616740088106,1.0464930282338427
2.2004405286343616,1.1266627471374018
2.220264317180617,1.2067710339709865
2.2400881057268722,1.2865413592326427
2.2599118942731278,1.3657440981065185
2.2797356828193833,1.4441839793152242
2.299559471365639,1.5216914021928238
2.319383259911895,1.5981163396758287
2.3392070484581504,1.6733239959809019
2.3590308370044055,1.747191673029583
2.378854625550661,1.8196064818955238
2.3986784140969166,1.8904636533830028
2.418502202643172,1.9596652790889277
2.4383259911894277,2.027119365648405
2.4581497797356833,2.092739119475269
2.4779735682819384,2.1564424029573774
2.497797356828194,2.218151319436889
2.5176211453744495,2.2777918957806005
2.537444933920705,2.3352938394850478
2.5572687224669606,2.3905903531010626
2.577092511013216,2.4436179929976456
2.5969162995594717,2.49431656258795
2.6167400881057272,2.542629032435633
2.6365638766519828,2.58850148137457
2.6563876651982383,2.631883054065589
2.676211453744494,2.6727259313955116
2.6960352422907494,2.710985310875034
2.715859030837005,2.746619394772003
2.73568281938326,2.779589384168155
2.7555066079295156,2.8098594774810666
2.775330396475771,2.8373968722724876
2.7951541850220267,2.8621717693866042
2.8149779735682823,2.88415737864053
2.834801762114538,2.9033299254334386
2.854625550660793,2.9196686577590363
2.874449339207049,2.933155853203396
2.8942731277533045,2.9437768255916943
2.91409691629956,2.9515199310163966
2.9339207048458156,2.9563765730388982
2.953744493392071,2.9583412069091466
2.9735682819383262,2.9574113426945314
2.993392070484582,2.953587547253276
3.0132158590308373,2.946873445028512
3.033039647577093,2.937275717680455
3.0528634361233484,2.924804102614712
3.072687224669604,2.9094713905087697
3.092511013215859,2.8912934219847597
3.1123348017621146,2.870289083628636
3.1321585903083706,2.8464803036145483
3.151982378854626,2.8198920472611415
3.1718061674008817,2.790552312926495
3.1916299559471373,2.7584921287439177
3.2114537444933924,2.723745550816641
3.231277533039648,2.686349663630191
3.2511013215859035,2.6463445836159947
3.270925110132159,2.6037734670160826
3.2907488986784146,2.558682523471061
3.31057268722467,2.5111210370969776
3.3303964757709252,2.4611413972550333
3.350220264317181,2.4087991417795807
3.3700440528634363,2.3541530161570843
3.389867841409692,2.2972650530957703
3.4096916299559474,2.238200678170436
3.4295154185022034,2.1770288488760348
3.4493392070484585,2.113822236627793
3.469162995594714,2.0486574642188486
3.4889867841409696,1.9816154152952805
3.508810572687225,1.9127816379785405
3.5286343612334807,1.8422468725097372
3.5484581497797363,1.7701077436786452
3.5682819383259914,1.696467674290326
3.588105726872247,1.62143809823174
3.6079295154185025,1.545140084247537
3.627753303964758,1.4677065296564373
3.6475770925110136,1.3892851553705503
3.667400881057269,1.3100426432054428
3.6872246696035247,1.2301704253410712
3.7070484581497802,1.1498928991892243
3.726872246696036,1.0694792558971042
3.7466960352422913,0.9892607679373383
3.7665198237885464,0.9096564177527694
3.7863436123348024,0.831211346176071
3.8061674008810575,0.7546548991962776
3.8259911894273135,0.6809877802907675
3.8458149779735686,0.6116089562081902
3.8656387665198246,0.5484849278874027
3.8854625550660797,0.49432552015639053
3.905286343612335,0.4526230106485369
3.925110132158591,0.42723965525013885
3.9449339207048464,0.4212554470057547
3.964757709251102,0.43550673396559364
3.9845814977973575,0.4681088639393299
4.004405286343612,0.5154890899831979
4.024229074889869,0.5738470516526356
4.044052863436123,0.6399980495900186
4.06387665198238,0.7115551008702676
4.083700440528634,0.78680668851117
4.103524229074891,0.8645348581818623
4.123348017621146,0.9438623923205192
4.143171806167401,1.0241433925360257
4.162995594713657,1.104889382694536
4.182819383259912,1.1857202960185227
4.2026431718061685,1.266331955616765
4.222466960352423,1.3464743010580895
4.242290748898679,1.4259366177466941
4.262114537444934,1.50453736910506
4.28193832599119,1.5821170924848107
4.301762114537445,1.6585333638741957
4.321585903083701,1.7336571805446888
4.3414096916299565,1.8073703299974975
4.361233480176212,1.8795634548163007
4.381057268722468,1.9501346152276249
4.400881057268723,2.0189882121786105
4.420704845814979,2.0860341746738813
4.440528634361234,2.151187342951866
4.46035242290749,2.2143669982643366
4.4801762114537445,2.2754965034116807
4.500000000000001,2.3345030276435184
4.5198237885462555,2.3913173362919893
4.539647577092512,2.4458736303874002
4.559471365638767,2.498109425069007
4.579295154185023,2.547965458231712
4.599118942731278,2.595385622804086
4.618942731277533,2.6403169175215737
4.63876651982379,2.6827094121705715
4.658590308370044,2.7225162241281273
4.678414096916301,2.759693503675748
4.6982378854625555,2.7942004260727114
4.718061674008811,2.82599918877042
4.737885462555067,2.855055012461902
4.757709251101322,2.8813361449076096
4.777533039647578,2.904813866677514
4.797356828193833,2.925462498108819
4.817180616740089,2.943259406909095
4.837004405286344,2.9581850159412806
4.856828193832599,2.9702228108164017
4.876651982378855,2.9793593469944337
4.896475770925111,2.985584256158405
4.9162995594713665,2.988890251682551
4.936123348017622,2.9892731330655122
4.955947136563877,2.9867317892453107
4.975770925110133,2.9812682007557947
4.995594713656388,2.9728874407261703
5.015418502202644,2.961597674766999
5.035242290748899,2.9474101598297864
5.055066079295155,2.9303392421732206
5.07488986784141,2.910402354620466
5.094713656387666,2.887620013348889
5.114537444933921,2.862015814519713
5.134361233480177,2.8336164311320453
5.154185022026432,2.8024516105774078
5.174008810572688,2.7685541734812475
5.193832599118943,2.7319600145521115
5.213656387665199,2.692708106324287
5.2334801762114544,2.650840506884409
5.25330396475771,2.6064023729284234
5.2731277533039655,2.55944197981809
5.292951541850221,2.5100107507155
5.312775330396477,2.4581632973984164
5.332599118942731,2.4039574760343414
5.352422907488988,2.3474544620689937
5.372246696035242,2.2887188495334714
5.392070484581499,2.227818781590904
5.4118942731277535,2.164826121162705
5.43171806167401,2.0998166731869694
5.451541850220265,2.032870473739463
5.47136563876652,1.9640721662847391
5.491189427312777,1.8935114922935898
5.511013215859031,1.8212839332112036
5.530837004405288,1.7474915545518277
5.550660792951542,1.6722441226438307
5.570484581497798,1.5956605931821346
5.5903083700440535,1.5178711128046503
5.610132158590309,1.4390197375236256
5.6299559471365646,1.3592681663277217
5.64977973568282,1.2788009327655256
5.669603524229076,1.1978327210762991
5.689427312775331,1.1166188236106889
5.709251101321586,1.0354703079602077
5.729074889867842,0.9547763304287953
5.748898678414098,0.8750373766511848
5.768722466960353,0.7969151905395219
5.788546255506609,0.7213076989405451
5.808370044052864,0.6494592012578712
5.82819383259912,0.5831126595828117
5.848017621145375,0.5246874568483745
5.867841409691631,0.47739068914262756
5.887665198237886,0.44501820361650546
5.907488986784142,0.43110451318478893
5.927312775330397,0.4374898190090979
5.9471365638766525,0.4633303159266034
5.966960352422908,0.5055772356354572
5.986784140969164,0.5604027648870263
6.00660792951542,0.6243297444798631
6.026431718061675,0.6946453936672996
6.04625550660793,0.7693710251017938
6.066079295154186,0.8470928829178346
6.085903083700441,0.926796088559126
6.105726872246697,1.0077388431004035
6.125550660792952,1.089365412239877
6.145374449339208,1.1712478593899152
6.1651982378854635,1.2530472911993902
6.185022026431718,1.3344879401867586
6.204845814977975,1.4153396363767508
6.224669603524229,1.4954057884141747
6.244493392070486,1.574515021872188
6.264317180616741,1.6525152778601415
6.284140969162996,1.7292695907866804
6.303964757709252,1.8046530289910498
6.323788546255507,1.8785504522691407
6.3436123348017635,1.9508548511523678
6.363436123348018,2.021466105872481
6.3832599118942746,2.0902900517822687
6.403083700440529,2.157237771082182
6.422907488986785,2.2222250534075685
6.44273127753304,2.285171983613414
6.462555066079296,2.346002626198438
6.482378854625551,2.404644783716416
6.502202643171807,2.461029812212435
6.5220264317180625,2.515092480861874
6.541850220264318,2.5667708660310047
6.561674008810574,2.6160062722344963
6.581497797356829,2.6627431741539747
6.601321585903085,2.7069291751572666
6.62114537444934,2.7485149787287044
6.640969162995596,2.7874543699667225
6.6607929515418505,2.8237042048809355
6.680616740088107,2.857224405670993
6.700440528634362,2.887977960521991
6.720264317180618,2.9159309267308324
6.740088105726873,2.9410524362006782
6.759911894273129,2.963314702519876
6.779735682819384,2.982693028986938
6.799559471365639,2.9991658170623476
6.819383259911895,3.0127145748265844
6.83920704845815,3.0233239251060726
6.859030837004407,3.0309816129997507
6.8788546255506615,3.035678512599235
6.898678414096917,3.037408632749968
6.918502202643173,3.036169121749399
6.938325991189428,3.031960270923672
6.958149779735684,3.0247855170681808
6.977973568281939,3.0146514437804086
6.997797356828195,3.001567781758021
7.01762114537445,2.985547408181931
7.037444933920705,2.9666063453548217
7.0572687224669615,2.944763758822852
7.077092511013216,2.9200419552726786
7.096916299559473,2.892466380571721
7.116740088105728,2.862065618408502
7.136563876651983,2.8288713900971487
7.156387665198239,2.7929185562391408
7.176211453744494,2.7542451210946957
7.19603524229075,2.7128922407118035
7.215859030837005,2.668904236105693
7.235682819383261,2.6223286130883263
7.255506607929516,2.5732160907362975
7.275330396475772,2.521620640981199
7.295154185022027,2.467599542443099
7.314977973568283,2.4112134524523015
7.334801762114538,2.3525265022800093
7.354625550660794,2.291606422013098
7.374449339207049,2.228524703384472
7.394273127753305,2.163356811379887
7.4140969162995605,2.0961824588311524
7.433920704845816,2.02708596282442
7.453744493392072,1.9561567081112818
7.473568281938327,1.8834897515596003
7.493392070484583,1.8091866141301736
7.513215859030838,1.7333563245858878
7.533039647577093,1.656116804670377
7.552863436123348,1.5775967227423968
7.572687224669605,1.4979379979088483
7.59251101321586,1.4172992191542455
7.612334801762115,1.3358603690719668
7.6321585903083715,1.2538294339818958
7.651982378854627,1.1714517806063025
7.671806167400882,1.0890236461877771
7.691629955947137,1.006911819581978
7.711453744493394,0.9255827213234223
7.731277533039649,0.845645774107225
7.751101321585904,0.7679182178134567
7.7709251101321595,0.6935207144845594
7.790748898678416,0.6240121557791395
7.81057268722467,0.5615581462569771
7.830396475770926,0.509076701645591
7.850220264317182,0.470184836948288
7.870044052863436,0.4486285971328933
7.889867841409693,0.4470389383685946
7.909691629955948,0.46565258104454565
7.929515418502204,0.5021849160596803
7.9493392070484585,0.5529910593007545
7.969162995594715,0.6143865884880196
7.9889867841409705,0.6833323187974665
8.008810572687224,0.7575503044919493
8.02863436123348,0.8353956785441489
8.048458149779737,0.9156865716698355
8.068281938325994,0.9975631009823694
8.088105726872246,1.0803860195123327
8.107929515418503,1.1636676670074657
8.12775330396476,1.2470257167798093
8.147577092511014,1.3301521879427938
8.167400881057269,1.4127925095699554
8.187224669603525,1.4947312016087055
8.207048458149782,1.5757819452968589
8.226872246696036,1.655780599935779
8.246696035242293,1.734580224298669
8.266519823788547,1.8120474813777434
8.286343612334802,1.8880600112739157
8.306167400881058,1.9625044909657177
8.325991189427315,2.035275187790873
8.345814977973568,2.1062728721768615
8.365638766519824,2.1754039947904866
8.38546255506608,2.242580060385673
8.405286343612337,2.3077171494081687
8.42511013215859,2.3707355515838935
8.444933920704846,2.4315594850602253
8.464757709251103,2.4901168813722365
8.484581497797357,2.546339221365674
8.504405286343614,2.6001614107685715
8.524229074889869,2.651521686736305
8.544052863436125,2.700361548659446
8.56387665198238,2.746625708004318
8.583700440528636,2.7902620530789104
8.60352422907489,2.831221625477506
8.623348017621145,2.869458605620724
8.643171806167402,2.904930305323752
8.662995594713658,2.9375971657294357
8.682819383259913,2.9674227592623534
8.702643171806168,2.9943737945130677
8.722466960352424,3.0184201231658885
8.74229074889868,3.0395347482472355
8.762114537444935,3.057693833106496
8.78193832599119,3.072876710651555
8.801762114537446,3.085065892453822
8.821585903083701,3.0942470774155404
8.841409691629957,3.10040915975966
8.861233480176212,3.1035442361614276
8.881057268722468,3.103647611893898
8.900881057268723,3.1007178059085243
8.92070484581498,3.094756554818258
8.940528634361234,3.0857688157961767
8.960352422907489,3.0737627684486024
8.980176211453745,3.0587498157698962
9.000000000000002,3.0407445843377245
9.019823788546258,3.0197649239651274
9.039647577092511,2.995831907090375
9.059471365638768,2.9689698282608177
9.079295154185024,2.9392062041549134
9.099118942731279,2.9065717746918582
9.118942731277533,2.871100505905153
9.13876651982379,2.8328295954113054
9.158590308370046,2.791799481495614
9.1784140969163,2.748053857073844
9.198237885462555,2.7016396900855866
9.218061674008812,2.6526072522488704
9.237885462555067,2.6010101585820933
9.257709251101323,2.5469054207080153
9.27753303964758,2.490353517741149
9.297356828193834,2.4314184895816893
9.317180616740089,2.3701680587782628
9.337004405286345,2.306673788891094
9.356828193832602,2.241011289644019
9.376651982378855,2.1732604823221315
9.396475770925111,2.1035059431702345
9.416299559471367,2.031837348436035
9.436123348017622,1.9583500528525655
9.455947136563877,1.883145844756414
9.475770925110133,1.8063339371697769
9.49559471365639,1.7280322772647148
9.515418502202644,1.648369290083424
9.5352422907489,1.5674862214713858
9.555066079295155,1.485540318109884
9.57488986784141,1.4027091922665729
9.594713656387666,1.319196885978835
9.614537444933923,1.2352424065204843
9.634361233480178,1.151131903706196
9.654185022026432,1.0672162790005828
9.674008810572689,0.9839369701604881
9.693832599118945,0.9018640789418949
9.713656387665198,0.8217529679395758
9.733480176211454,0.7446275751231567
9.75330396475771,0.6718990140518674
9.773127753303967,0.6055198840601791
9.792951541850222,0.548140793968994
9.812775330396477,0.5031465575346837
9.832599118942733,0.47430984547374794
9.852422907488988,0.46480483514036586
9.872246696035244,0.4758634045332279
9.892070484581499,0.5061309386247985
9.911894273127754,0.5523816118945062
9.93171806167401,0.6108634588685169
9.951541850220266,0.6782446790416399
9.971365638766521,0.751928343277564
9.991189427312776,0.830004123509776
10.011013215859032,0.9110907870898155
10.030837004405289,0.9941844375625836
10.050660792951543,1.0785427333307562
10.070484581497798,1.1636037690012209
10.090308370044054,1.2489310074092441
10.11013215859031,1.3341761728907489
10.129955947136565,1.4190541404306931
10.14977973568282,1.5033257724409852
10.169603524229077,1.5867860396265443
10.189427312775331,1.669255687888746
10.209251101321588,1.7505753139292257
10.229074889867842,1.8306010989707304
10.248898678414099,1.9092016995922623
10.268722466960353,1.9862559569928782
10.28854625550661,2.061651192687493
10.308370044052865,2.1352819296102994
10.32819383259912,2.207048925411394
10.348017621145376,2.276858437348771
10.367841409691632,2.344621660709318
10.387665198237887,2.4102542984457904
10.407488986784141,2.4736762308611144
10.427312775330398,2.534811262143107
10.447136563876654,2.5935869263165996
10.466960352422909,2.6499343393901666
10.486784140969164,2.7037880875797398
10.50660792951542,2.755086143802912
10.526431718061675,2.803769806373707
10.546255506607931,2.849783655142477
10.566079295154186,2.8930755213296533
10.585903083700442,2.933596468074726
10.605726872246697,2.971300779321212
10.625550660792953,3.006145955126707
10.645374449339208,3.0380927118556635
10.665198237885463,3.067104986005174
