Frequency (Hz),Amplitude
0.0,0.6419146930092436
0.04,0.6453264074145655
0.08,0.6554419001876469
0.12,0.6719201767471678
0.16,0.6942467168946389
0.19999999999999998,0.7217964212614271
0.24,0.7538957395972911
0.27999999999999997,0.7898729619725693
0.32,0.829092447744715
0.36,0.8709737786039123
0.39999999999999997,0.914999357043689
0.44,0.9607143976956781
0.48,1.0077225974971673
0.52,1.0556798042207742
0.5599999999999999,1.10428713418959
0.6,1.1532843489703488
0.64,1.2024438811474312
0.6799999999999999,1.2515656484993494
0.72,1.3004726587358157
0.76,1.3490073400464135
0.7999999999999999,1.3970285063683252
0.84,1.4444088617710735
0.88,1.491032954553054
0.9199999999999999,1.5367955022744948
0.96,1.5816000206746652
1.0,1.6253577005941888
1.04,1.6679864869440595
1.0799999999999998,1.7094103222270434
1.1199999999999999,1.7495585241659068
1.1600000000000001,1.788365272774979
1.2,1.8257691869101305
1.24,1.8617129741286145
1.28,1.8961431407482707
1.3199999999999998,1.9290097514555224
1.3599999999999999,1.9602662297907252
1.4,1.989869192433156
1.44,2.017778311493587
1.48,2.0439562000621576
1.52,2.068368317102234
1.5599999999999998,2.0909828884669763
1.5999999999999999,2.11177084137536
1.64,2.130705750143685
1.68,2.14776379134692
1.72,2.1629237068974465
1.76,2.1761667737897645
1.7999999999999998,2.187476779478505
1.8399999999999999,2.196840002042287
1.88,2.2042451944440224
1.92,2.2096835723348724
1.9599999999999997,2.213148804968824
2.0,2.2146370089016503
2.0399999999999996,2.214146744245061
2.08,2.2116790133372346
2.12,2.2072372617771454
2.1599999999999997,2.2008273818547224
2.2,2.192457718494221
2.2399999999999998,2.182139077916759
2.28,2.169884739322216
2.3200000000000003,2.1557104699934735
2.36,2.1396345443404208
2.4,2.121677767530634
2.44,2.1018635045027882
2.48,2.0802177153322337
2.5199999999999996,2.056768998122218
2.56,2.0315486408362915
2.6,2.00459068377639
2.6399999999999997,1.9759319947586422
2.68,1.945612359458588
2.7199999999999998,1.9136745899069874
2.76,1.8801646547379725
2.8,1.8451318355503514
2.84,1.8086289146736512
2.88,1.7707124007751347
2.92,1.731442800154447
2.96,1.6908849433129467
2.9999999999999996,1.6491083785338603
3.04,1.6061878468619968
3.08,1.5622038561403788
3.1199999999999997,1.5172433757741208
3.16,1.4714006787884126
3.1999999999999997,1.4247783636619284
3.2399999999999998,1.377488595448979
3.28,1.329654613856945
3.32,1.281412565017271
3.36,1.2329137230716154
3.4,1.1843271760391179
3.44,1.13584305507396
3.4799999999999995,1.087676382278913
3.52,1.0400715912055043
3.5599999999999996,0.9933077219508037
3.5999999999999996,0.9477041872622111
3.64,0.9036268151692524
3.6799999999999997,0.8614935559974938
3.7199999999999998,0.8217787555445993
3.76,0.785014226958563
3.7999999999999994,0.7517845717879391
3.84,0.7227135548702465
3.88,0.6984383493595367
3.9199999999999995,0.6795698998032027
3.96,0.6666411415811012
4.0,0.660050080594183
4.04,0.660009787318202
4.079999999999999,0.6665188690438991
4.12,0.6793615587122535
4.16,0.6981374012851508
4.199999999999999,0.7223113694394933
4.24,0.7512708342100797
4.28,0.7843773443918532
4.319999999999999,0.8210062284101761
4.36,0.8605722983476874
4.4,0.902543421460836
4.4399999999999995,0.946445150399632
4.4799999999999995,0.9918596105225229
4.5200000000000005,1.038421194199527
4.56,1.085810828634346
4.6,1.1337499140700456
4.640000000000001,1.181994543183222
4.68,1.2303302950015367
4.72,1.2785677060224792
4.76,1.326538415929194
4.8,1.3740919332564978
4.84,1.4210929454628507
4.88,1.4674190940237957
4.92,1.5129591398814046
4.96,1.557611452983815
5.0,1.6012827690723483
5.039999999999999,1.6438871659743017
5.08,1.6853452198338008
5.12,1.7255833087604568
5.159999999999999,1.7645330373012964
5.2,1.8021307600462984
5.24,1.8383171866971435
5.279999999999999,1.8730370542021169
5.319999999999999,1.9062388542164173
5.36,1.9378746062990984
5.3999999999999995,1.9678996690005977
5.4399999999999995,1.996272582407221
5.48,2.0229549368552058
5.52,2.047911263459415
5.56,2.071108942861971
5.6,2.0925181292282335
5.64,2.1121116870282077
5.68,2.1298651385626264
5.72,2.145756620541749
5.76,2.159766848315569
5.8,2.171879086597746
5.84,2.1820791257314185
5.879999999999999,2.190355262720545
5.92,2.1966982864016136
5.96,2.201101466262721
5.999999999999999,2.2035605445340907
6.04,2.204073731280104
6.08,2.2026417023206
6.119999999999999,2.1992675999017615
6.16,2.1939570361266383
6.2,2.1867180992449655
6.239999999999999,2.177561362993747
6.279999999999999,2.1664998992765723
6.32,2.1535492945737493
6.359999999999999,2.1387276705896205
6.3999999999999995,2.1220557097716504
6.44,2.1035566864815767
6.4799999999999995,2.0832565047666547
6.52,2.0611837438744396
6.56,2.037369712883565
6.6,2.0118485160939326
6.64,1.9846571311415582
6.68,1.9558355021877685
6.72,1.9254266509934423
6.76,1.8934768092433503
6.8,1.8600355761544087
6.84,1.8251561062095425
6.88,1.7888953328364963
6.92,1.7513142350340591
6.959999999999999,1.7124781553800315
7.0,1.672457179584463
7.04,1.6313265898342297
7.08,1.5891674066691122
7.119999999999999,1.5460670370925897
7.16,1.5021200500967058
7.199999999999999,1.4574291047821322
7.239999999999999,1.4121060607274665
7.28,1.3662733050264373
7.32,1.320065335066377
7.359999999999999,1.2736306398848816
7.3999999999999995,1.2271339244074655
7.4399999999999995,1.1807587176286585
7.4799999999999995,1.1347103938988485
7.52,1.0892196096830014
7.5600000000000005,1.0445461070736384
7.599999999999999,1.0009827466561727
7.64,0.9588594888223166
7.68,0.9185468254429084
7.719999999999999,0.8804578596018847
7.76,0.8450478479846624
7.800000000000001,0.8128096162863797
7.839999999999999,0.7842629780006037
7.88,0.7599363920458193
7.92,0.7403399303896607
7.959999999999999,0.725930464027204
8.0,0.7170727006441918
8.040000000000001,0.7140025125306928
8.08,0.716800440389659
8.12,0.7253820201853604
8.159999999999998,0.7395075504944801
8.2,0.7588086858163297
8.24,0.7828252054506806
8.28,0.8110440624767882
8.32,0.8429342630074956
8.36,0.8779739354556798
8.399999999999999,0.9156686812185422
8.44,0.9555621407562432
8.48,0.9972405471823118
8.52,1.0403331444334418
8.56,1.084510065509984
8.6,1.1294788601044485
8.639999999999999,1.174980476117297
8.68,1.2207851940981354
8.72,1.2666887956655328
8.76,1.3125091030075813
8.8,1.3580829376721164
8.84,1.4032634957095818
8.879999999999999,1.4479181094543327
8.92,1.4919263543876125
8.959999999999999,1.535178456356624
9.0,1.57757395596168
9.040000000000001,1.6190205907523902
9.079999999999998,1.6594333605851264
9.12,1.698733746306012
9.16,1.7368490564356782
9.2,1.773711880565259
9.24,1.8092596316749079
9.280000000000001,1.8434341625695028
9.32,1.8761814441369375
9.36,1.9074512952301137
9.399999999999999,1.9371971557138743
9.44,1.9653758956587832
9.48,1.9919476548542419
9.52,2.0168757077972432
9.559999999999999,2.0401263501264366
9.6,2.0616688031446047
9.639999999999999,2.081475133631412
9.68,2.0995201866132693
9.72,2.115781529145468
9.76,2.1302394034874323
9.8,2.142876688326587
9.84,2.1536788669394635
9.879999999999999,2.1626340013780294
9.92,2.1697327119414616
9.959999999999999,2.1749681613439042
10.0,2.1783360431220005
10.04,2.179834573945877
10.079999999999998,2.1794644896071245
10.12,2.177229044560479
10.16,2.173134014994654
10.2,2.167187705504958
10.24,2.1594009595383192
10.280000000000001,2.1497871738824537
10.319999999999999,2.1383623175778346
10.36,2.1251449557463835
10.4,2.1101562789573376
10.44,2.0934201388917524
10.48,2.074963091226217
10.52,2.0548144468376677
10.559999999999999,2.033006332639564
10.6,2.0095737636005206
10.639999999999999,1.9845547277762883
10.68,1.957990286512083
10.72,1.9299246923531443
10.76,1.9004055276470022
10.799999999999999,1.8694838673418006
10.84,1.8372144700935844
10.879999999999999,1.803656002504264
10.92,1.7688713021340225
10.96,1.7329276858789542
11.0,1.6958973113851938
11.04,1.6578576003861076
11.08,1.6188917341886024
11.12,1.5790892329650486
11.16,1.538546631961382
11.2,1.4973682690847712
11.24,1.4556671993742574
11.28,1.4135662522405796
11.319999999999999,1.3711992465450071
11.36,1.3287123757448405
11.4,1.2862657692371167
11.44,1.2440352249141207
11.48,1.202214089350255
11.52,1.1610152327262966
11.559999999999999,1.1206730215741552
11.6,1.0814451293454137
11.64,1.0436139390270158
11.68,1.007487182813874
11.72,0.9733973372390221
11.759999999999998,0.9416991666828325
11.799999999999999,0.9127647215278945
11.84,0.8869751106616781
11.879999999999999,0.8647085618144474
11.92,0.8463247337171386
11.96,0.832145976466762
11.999999999999998,0.8224371625890734
12.04,0.8173865890310162
12.08,0.81709092156209
12.12,0.821546891688387
12.16,0.8306513741203287
12.200000000000001,0.8442098429415098
12.239999999999998,0.8619515735762009
12.28,0.8835488732191351
12.32,0.9086373597296417
12.36,0.9368347815883911
12.4,0.9677567529881359
12.44,1.0010287087835132
12.479999999999999,1.0362941201560958
12.52,1.0732194643769684
12.559999999999999,1.1114966361581753
12.6,1.1508435006517566
12.64,1.1910032000616468
12.68,1.2317426988329219
12.719999999999999,1.2728509244508575
12.76,1.3141367506543047
12.799999999999999,1.355426983383675
12.84,1.396564446258761
12.88,1.437406218107832
12.92,1.4778220456384727
12.959999999999999,1.51769293571469
12.999999999999998,1.5569099206050678
13.04,1.59537298351562
13.08,1.6329901289348665
13.12,1.6696765815607209
13.16,1.7053540980172421
13.2,1.739950376659525
13.239999999999998,1.7733985521621947
13.28,1.8056367630787085
13.32,1.8366077820217128
13.36,1.8662586994809567
13.4,1.8945406535337084
13.44,1.921408598801944
13.479999999999999,1.9468211089739036
13.52,1.9707402080430827
13.559999999999999,1.9931312261383687
13.6,2.0139626764373095
13.64,2.0332061501843555
13.68,2.050836227289067
13.719999999999999,2.0668304003672135
13.76,2.0811690104200595
13.799999999999999,2.0938351926329104
13.84,2.1048148310203003
13.88,2.1140965208589675
13.919999999999998,2.1216715380360256
13.959999999999999,2.127533814603911
14.0,2.131679919979217
14.04,2.134109047353659
14.08,2.13482300500478
14.120000000000001,2.133826212304474
14.16,2.131125700327684
14.2,2.1267311170635206
14.239999999999998,2.1206547373288696
14.28,2.1129114775821467
14.32,2.103518915933884
14.36,2.092497317753352
14.399999999999999,2.0798696673775927
14.44,2.0656617065434415
14.479999999999999,2.049901980285189
14.52,2.032621891172753
14.56,2.013855762908564
14.6,1.9936409144573974
14.64,1.972017746053058
14.68,1.9490298386095743
14.719999999999999,1.924724068262557
14.76,1.899150737976856
14.799999999999999,1.8723637283771286
14.84,1.8444206701829724
14.879999999999999,1.8153831408510166
14.919999999999998,1.7853168882297075
14.959999999999999,1.754292084197617
15.0,1.722383611354125
15.04,1.6896713858194425
15.079999999999998,1.6562407190205912
15.120000000000001,1.6221827209090307
15.159999999999998,1.5875947462637858
15.199999999999998,1.5525808844328737
15.24,1.5172524908626301
15.28,1.4817287558113887
15.319999999999999,1.446137301434883
15.36,1.410614792600117
15.399999999999999,1.3753075389225546
15.439999999999998,1.34037205520943
15.48,1.3059755343757835
15.52,1.2722961708171276
15.559999999999999,1.2395232534056193
15.600000000000001,1.2078569266419832
15.639999999999999,1.1775074980204472
15.679999999999998,1.1486941527988914
15.72,1.1216429293655772
15.76,1.0965838163393464
15.799999999999999,1.0737468647251651
15.84,1.0533572727460694
15.879999999999999,1.0356295019732462
15.919999999999998,1.0207606185120295
15.96,1.008923208759737
16.0,1.0002583694337104
16.04,0.9948693799868257
16.080000000000002,0.9928166945167789
16.12,0.994114813725587
16.16,0.9987314136666473
16.200000000000003,1.006588845561173
16.24,1.017567833266119
16.279999999999998,1.031512943820026
16.319999999999997,1.0482392418357909
16.36,1.0675394835907108
16.4,1.0891912545308293
16.439999999999998,1.1129635750690128
16.48,1.1386226553962833
16.52,1.165936635387638
16.56,1.1946792764272216
16.6,1.2246326667508212
16.64,1.2555890598283603
16.68,1.287351991994839
16.72,1.3197368292880531
16.759999999999998,1.3525708825778475
16.799999999999997,1.3856932114568272
16.84,1.4189542159839927
16.88,1.4522150944134762
16.919999999999998,1.4853472262576488
16.96,1.5182315241828264
17.0,1.5507577854395618
17.04,1.5828240635580655
17.080000000000002,1.6143360735005758
17.12,1.6452066379189265
17.16,1.6753551782008789
17.2,1.7047072512380095
17.24,1.7331941310085461
17.279999999999998,1.7607524328982764
17.32,1.787323777994022
17.36,1.8128544942339744
17.4,1.8372953511813799
17.44,1.8606013252247626
17.48,1.8827313921428581
17.52,1.9036483441660883
17.56,1.9233186288910749
17.6,1.941712207641575
17.64,1.9588024311059675
17.68,1.9745659303101177
17.72,1.9889825212003944
17.759999999999998,2.002035121312385
17.799999999999997,2.013709677185296
17.84,2.0239951013502484
17.88,2.032883217873023
17.919999999999998,2.040368715569472
17.96,2.0464491081354836
18.0,2.0511247005446784
18.04,2.0543985611666233
18.080000000000002,2.056276499147556
18.12,2.056767046675347
18.159999999999997,2.0558814458212638
18.2,2.053633639714026
18.24,2.0500402678565237
18.279999999999998,2.045120665443363
18.32,2.0388968665773923
18.36,2.031393611315852
18.4,2.0226383565009693
18.44,2.012661290344928
18.48,2.001495350744195
18.52,1.989176247291175
18.560000000000002,1.9757424869306628
18.6,1.9612354031714414
18.64,1.945699188706866
18.679999999999996,1.9291809312185733
18.72,1.911730652029821
18.759999999999998,1.8934013471344213
18.799999999999997,1.874249029947566
18.84,1.854332774899183
18.88,1.8337147607113695
18.919999999999998,1.8124603118608036
18.96,1.7906379363165448
19.0,1.7683193571553506
19.04,1.7455795350838574
19.080000000000002,1.7224966782346545
19.119999999999997,1.6991522348509018
19.159999999999997,1.6756308636361823
19.2,1.6520203756357652
19.24,1.6284116405569684
19.279999999999998,1.604898449469131
19.32,1.5815773249058231
19.36,1.5585472686045367
19.4,1.53590943656774
19.44,1.5137667309473446
19.48,1.4922232985994026
19.52,1.471383927203465
19.560000000000002,1.4513533317725522
19.6,1.432235327361872
19.639999999999997,1.4141318879398979
19.68,1.3971420967577795
19.72,1.3813610000660752
19.759999999999998,1.366878383448367
19.8,1.3537774979513122
19.84,1.3421337709835823
19.88,1.3320135438625116
19.919999999999998,1.3234728830434608
19.96,1.3165565146208327
20.0,1.3112969309347318
20.04,1.3077137136361245
20.08,1.3058131093431309
20.119999999999997,1.3055878825174863
20.159999999999997,1.3070174563103254
20.2,1.3100683371249302
20.24,1.31469480395046
20.279999999999998,1.3208398305247906
20.32,1.3284361982340855
20.36,1.337407751100137
20.4,1.347670741519124
20.44,1.3591352164097603
20.48,1.3717063975417763
20.52,1.3852860162398242
20.560000000000002,1.3997735704896204
20.599999999999998,1.4150674808420425
20.639999999999997,1.4310661296778704
20.68,1.4476687758068514
20.72,1.4647763426761389
20.759999999999998,1.4822920834865052
20.8,1.5001221302429146
20.84,1.5181759362902048
20.88,1.536366623364695
20.92,1.554611244818955
20.96,1.5728309766465807
21.0,1.5909512474289556
21.04,1.6089018175053253
21.08,1.6266168166611326
21.119999999999997,1.6440347485385345
21.159999999999997,1.6610984688714463
21.2,1.6777551435873166
21.24,1.693956191831791
21.279999999999998,1.7096572180794092
21.32,1.7248179367012715
21.36,1.7394020916698076
21.4,1.753377373486805
21.44,1.7667153349162341
21.48,1.7793913066788793
21.52,1.7913843139115804
21.56,1.8026769939004106
21.599999999999998,1.813255515354989
21.639999999999997,1.8231094992922012
21.68,1.8322319414341655
21.72,1.8406191358909016
21.759999999999998,1.848270599787236
21.8,1.8551889984012204
21.84,1.8613800703038337
21.88,1.866852551924009
21.92,1.8716181009062807
21.96,1.875691217579185
22.0,1.8790891638093388
22.04,1.881831878478376
22.08,1.8839418887874098
22.119999999999997,1.8854442165666345
22.16,1.8863662787468403
22.2,1.8867377811361832
22.24,1.8865906046411303
22.28,1.885958683076956
22.32,1.88487787173304
22.36,1.8833858058938804
22.4,1.8815217485712585
22.44,1.8793264267793193
22.48,1.8768418557851316
22.519999999999996,1.8741111508961645
22.56,1.871178326504346
22.599999999999998,1.8680880822971986
22.639999999999997,1.8648855767698198
22.68,1.86161618842801
22.72,1.8583252653607953
22.759999999999998,1.8550578641769377
22.8,1.851858479640111
22.84,1.8487707666938764
22.88,1.8458372569319366
22.92,1.843099071929873
22.96,1.840595636199366
23.0,1.8383643928401643
23.04,1.8364405252340747
23.08,1.8348566883338517
23.119999999999997,1.833642753233402
23.16,1.832825568752137
23.2,1.8324287437149926
23.24,1.8324724534546029
23.28,1.832973273801334
23.32,1.8339440454628788
23.36,1.835393771236284
23.400000000000002,1.837327547954064
23.44,1.8397465344602224
23.479999999999997,1.8426479562621627
23.519999999999996,1.8460251468345157
23.56,1.849867624884833
23.599999999999998,1.8541612062537611
23.639999999999997,1.858888148535807
23.68,1.8640273259907274
23.72,1.8695544318857367
23.759999999999998,1.8754422050755573
23.8,1.8816606773969626
23.84,1.8881774383276329
23.88,1.8949579133320658
23.92,1.9019656523822583
23.96,1.909162625286994
23.999999999999996,1.916509520677609
24.04,1.9239660457657857
24.08,1.9314912242952493
24.119999999999997,1.9390436904398534
24.16,1.9465819767420633
24.2,1.954064794526182
24.24,1.9614513055498932
24.28,1.9687013839674414
24.32,1.9757758679617956
24.36,1.9826368006571495
24.400000000000002,1.989247660144133
24.439999999999998,1.995573578636815
24.479999999999997,2.001581550933098
24.52,2.007240632468444
24.56,2.0125221273391323
24.599999999999998,2.0173997667266192
24.64,2.0218498781809977
24.68,2.0258515462213826
24.72,2.0293867646855195
24.759999999999998,2.032440581212072
24.8,2.035001234168048
24.84,2.0370602822415798
24.88,2.0386127268077194
24.92,2.039657127042151
24.959999999999997,2.0401957076050263
24.999999999999996,2.0402344585444525
25.04,2.0397832268763096
25.08,2.038855799084036
25.119999999999997,2.037469973549048
25.16,2.035647621670118
25.2,2.03341473615981
25.24,2.0308014647203794
25.28,2.027842127004025
25.32,2.024575212458737
25.36,2.0210433563587316
25.4,2.01729329102771
25.439999999999998,2.0133757689971516
25.479999999999997,2.0093454546165304
25.52,2.0052607804673896
25.56,2.0011837648513686
25.599999999999998,1.9971797866490628
25.64,1.993317314009821
25.68,1.9896675836608955
25.72,1.9863042281451737
25.76,1.9833028490347226
25.8,1.980740535140094
25.84,1.9786953259516988
25.880000000000003,1.977245622004075
25.919999999999998,1.9764695455250207
25.959999999999997,1.9764442565779845
25.999999999999996,1.9772452318644382
26.04,1.9789455153391995
26.08,1.9816149517019501
26.119999999999997,1.9853194155444878
26.16,1.990120050331066
26.2,1.9960725323467738
26.24,2.003226375159721
26.28,2.0116242899268264
26.32,2.021301615987331
26.36,2.0322858346361157
26.4,2.044596176802112
26.439999999999998,2.0582433326759366
26.479999999999997,2.073229268276503
26.52,2.089547150689701
26.56,2.107181380438819
26.599999999999998,2.1261077263395896
26.64,2.1462935554178744
26.68,2.167698148158256
26.72,2.1902730875997802
26.76,2.213962709647123
26.8,2.2387046014234024
26.84,2.2644301345161306
26.88,2.291065020490528
26.919999999999998,2.3185298769725
26.959999999999997,2.346740793834115
27.0,2.3756098904425498
27.04,2.40504585646111
27.08,2.434954470231611
27.119999999999997,2.465239090250881
27.16,2.495801116627146
27.2,2.526540420628021
27.24,2.557355741490074
27.28,2.588145050542319
27.32,2.618805883405307
27.36,2.6492356415736773
27.4,2.679331865088895
27.439999999999998,2.7089924782782218
27.479999999999997,2.7381160106959994
27.52,2.766601795472864
27.56,2.7943501472763557
27.599999999999998,2.8212625220288574
27.64,2.847241660430724
27.68,2.8721917172100286
27.72,2.8960183778760284
27.76,2.9186289645996113
27.8,2.9399325326866843
27.839999999999996,2.9598399589554774
27.88,2.978264023178698
27.919999999999998,2.9951194836098556
27.959999999999997,3.0103231474807126
28.0,3.0237939372353195
28.04,3.035452953155367
28.08,3.0452235329319306
28.12,3.0530313086496306
28.16,3.058804261570544
28.2,3.0624727750359173
