Frequency (Hz),Amplitude
0.0,2.602766521682504
0.019823788546255508,2.6033906437059917
0.039647577092511016,2.6052596522118576
0.059471365638766524,2.608363508223511
0.07929515418502203,2.612685591717373
0.09911894273127755,2.618202866312122
0.11894273127753305,2.6248861045221306
0.13876651982378857,2.6327001685411027
0.15859030837004406,2.6416043404588896
0.17841409691629956,2.6515526949964374
0.1982378854625551,2.662494507292903
0.2180616740088106,2.6743746879969192
0.2378854625550661,2.687134237892329
0.25770925110132165,2.7007107145033773
0.27753303964757714,2.715038703544173
0.29735682819383263,2.7300502886614897
0.31718061674008813,2.7456755136291218
0.3370044052863437,2.7618428319405286
0.3568281938325991,2.7784795395779316
0.37665198237885467,2.7955121875707625
0.3964757709251102,2.812866971767268
0.41629955947136565,2.8304700980042474
0.4361233480176212,2.8482481215535507
0.4559471365638767,2.866128260339777
0.4757709251101322,2.8840386819530837
0.49559471365638774,2.901908764925115
0.5154185022026433,2.919669335094028
0.5352422907488987,2.93725287816419
0.5550660792951543,2.95459372977166
0.5748898678414097,2.97162824450832
0.5947136563876653,2.988294945442579
0.6145374449339208,3.004534655712233
0.6343612334801763,3.020290613764918
0.6541850220264318,3.0355085737886247
0.6740088105726874,3.0501368928195367
0.6938325991189428,3.0641266059407153
0.7136563876651982,3.0774314908989213
0.7334801762114539,3.090008123373488
0.7533039647577093,3.101815924032709
0.7731277533039648,3.1128171984143664
0.7929515418502204,3.122977170568182
0.8127753303964759,3.132264011302871
0.8325991189427313,3.140648861787904
0.8524229074889869,3.148105853173365
0.8722466960352424,3.154612122808282
0.8920704845814978,3.1601478275610315
0.9118942731277534,3.1646961546723364
0.931718061674009,3.168243330504423
0.9515418502202644,3.170778627485725
0.9713656387665199,3.1722943694912833
0.9911894273127755,3.172785935842208
1.0110132158590308,3.17225176405336
1.0308370044052866,3.1706933514063387
1.0506607929515421,3.1681152553731096
1.0704845814977975,3.164525092865066
1.090308370044053,3.1599335382305114
1.1101321585903086,3.1543543198708983
1.1299559471365639,3.147804215291835
1.1497797356828194,3.1403030443471267
1.1696035242290752,3.1318736603740196
1.1894273127753305,3.1225419388528435
1.209251101321586,3.1123367631557413
1.2290748898678416,3.101290006874619
1.248898678414097,3.0894365121399323
1.2687224669603525,3.0768140632570304
1.288546255506608,3.0634633548971757
1.3083700440528636,3.049427953985889
1.3281938325991192,3.0347542543324937
1.3480176211453747,3.0194914229431964
1.36784140969163,3.003691336857347
1.3876651982378856,2.987408509244558
1.4074889867841411,2.970700003402821
1.4273127753303965,2.9536253332076714
1.4471365638766522,2.936246348485105
1.4669603524229078,2.9186271037209255
1.4867841409691631,2.9008337084842153
1.5066079295154187,2.882934157938822
1.5264317180616742,2.864998141852791
1.5462555066079295,2.8470968306004196
1.5660792951541853,2.829302636794205
1.5859030837004409,2.811688951392542
1.6057268722466962,2.794329853414029
1.6255506607929517,2.7772997927555165
1.6453744493392073,2.760673246065852
1.6651982378854626,2.7445243461716458
1.6850220264317182,2.72892648618417
1.7048458149779737,2.713951900131613
1.7246696035242293,2.6996712227451805
1.7444933920704848,2.6861530318641016
1.7643171806167404,2.6734633777869807
1.7841409691629957,2.661665304754535
1.8039647577092512,2.65081837056404
1.8237885462555068,2.6409781710466818
1.8436123348017623,2.6321958767426343
1.863436123348018,2.6245177895392238
1.8832599118942732,2.6179849272571394
1.9030837004405288,2.612632644142484
1.9229074889867843,2.6084902949265274
1.9427312775330399,2.605580949539307
1.9625550660792954,2.6039211647129727
1.982378854625551,2.603520817606221
2.002202643171806,2.6043830052615005
2.0220264317180616,2.6065040122200274
2.041850220264317,2.6098733470328637
2.061674008810573,2.6144738467856476
2.0814977973568287,2.6202818471741747
2.1013215859030843,2.627267414197351
2.1211453744493394,2.635394632233044
2.140969162995595,2.6446219421834987
2.1607929515418505,2.6549025225533747
2.180616740088106,2.666184705776291
2.2004405286343616,2.678412421837039
2.220264317180617,2.691525661234879
2.2400881057268722,2.705460949574187
2.2599118942731278,2.720151826517012
2.2797356828193833,2.735529322448061
2.299559471365639,2.7515224269414076
2.319383259911895,2.7680585439367427
2.3392070484581504,2.785063929389536
2.3590308370044055,2.8024641080179413
2.378854625550661,2.820184266598189
2.3986784140969166,2.8381496220364153
2.418502202643172,2.8562857631489686
2.4383259911894277,2.874518965706092
2.4581497797356833,2.8927764808272527
2.4779735682819384,2.9109867972609935
2.497797356828194,2.9290798784395435
2.5176211453744495,2.946987375474416
2.537444933920705,2.964642817461153
2.5572687224669606,2.9819817805977404
2.577092511013216,2.998942037700998
2.5969162995594717,3.0154636897376625
2.6167400881057272,3.0314892809803533
2.6365638766519828,3.0469638993617036
2.6563876651982383,3.0618352635387756
2.676211453744494,3.0760537981023157
2.6960352422907494,3.089572698275183
2.715859030837005,3.102347985347372
2.73568281938326,3.114338553993977
2.7555066079295156,3.125506212520756
2.775330396475771,3.1358157169815946
2.7951541850220267,3.14523480001516
2.8149779735682823,3.1537341951542084
2.834801762114538,3.16128765727359
2.854625550660793,3.167871979759077
2.874449339207049,3.173467008901895
2.8942731277533045,3.1780556559507342
2.91409691629956,3.181623907185487
2.9339207048458156,3.1841608323131148
2.953744493392071,3.18565859142647
2.9735682819383262,3.1861124407103434
2.993392070484582,3.1855207370247083
3.0132158590308373,3.1838849414427686
3.033039647577093,3.181209621770098
3.0528634361233484,3.177502454019391
3.072687224669604,3.1727742227639157
3.092511013215859,3.1670388202388837
3.1123348017621146,3.160313244004563
3.1321585903083706,3.152617592926233
3.151982378854626,3.1439750611636614
3.1718061674008817,3.1344119297962183
3.1916299559471373,3.1239575556374275
3.2114537444933924,3.1126443567159656
3.231277533039648,3.100507793816298
3.2511013215859035,3.0875863473829206
3.270925110132159,3.0739214889966258
3.2907488986784146,3.059557646529555
3.31057268722467,3.04454216197991
3.3303964757709252,3.0289252408759735
3.350220264317181,3.012759892027236
3.3700440528634363,2.9961018562871145
3.389867841409692,2.9790095228825493
3.4096916299559474,2.961543831763313
3.4295154185022034,2.9437681603331654
3.4493392070484585,2.925748192852358
3.469162995594714,2.907551770753016
3.4889867841409696,2.8892487220936856
3.508810572687225,2.870910668405343
3.5286343612334807,2.8526108072596252
3.5484581497797363,2.834423669028288
3.5682819383259914,2.816424846514739
3.588105726872247,2.798690696430759
3.6079295154185025,2.781298012073979
3.627753303964758,2.7643236670412525
3.6475770925110136,2.7478442303915838
3.667400881057269,2.7319355543502626
3.6872246696035247,2.716672336415987
3.7070484581497802,2.7021276585835468
3.726872246696036,2.688372507304943
3.7466960352422913,2.6754752787566995
3.7665198237885464,2.663501274923327
3.7863436123348024,2.65251219690798
3.8061674008810575,2.642565642692512
3.8259911894273135,2.633714617242652
3.8458149779735686,2.6260070633399724
3.8656387665198246,2.6194854217751296
3.8854625550660797,2.614186229518514
3.905286343612335,2.6101397641684074
3.925110132158591,2.607369742350671
3.9449339207048464,2.6058930788136276
3.964757709251102,2.6057197117506146
3.9845814977973575,2.6068524984325503
4.004405286343612,2.6092871836024734
4.024229074889869,2.6130124413429567
4.044052863436123,2.618009989355877
4.06387665198238,2.6242547728711023
4.083700440528634,2.6317152138052196
4.103524229074891,2.6403535193904
4.123348017621146,2.6501260433419467
4.143171806167401,2.66098369176895
4.162995594713657,2.6728723654743134
4.182819383259912,2.6857334300405515
4.2026431718061685,2.6995042051396565
4.222466960352423,2.7141184648096823
4.242290748898679,2.7295069409679305
4.262114537444934,2.745597823133212
4.28193832599119,2.7623172481594493
4.301762114537445,2.7795897746899008
4.321585903083701,2.7973388379816915
4.3414096916299565,2.815487181683262
4.361233480176212,2.833957264041229
4.381057268722468,2.8526716368418166
4.400881057268723,2.871553296138209
4.420704845814979,2.890526004467374
4.440528634361234,2.909514584814081
4.46035242290749,2.928445187034666
4.4801762114537445,2.9472455278142147
4.500000000000001,2.965845105504082
4.5198237885462555,2.9841753913807465
4.539647577092512,3.002169998992877
4.559471365638767,3.019764833329926
4.579295154185023,3.0368982215634244
4.599118942731278,3.0535110270910337
4.618942731277533,3.069546748561102
4.63876651982379,3.084951605480521
4.658590308370044,3.0996746119175542
4.678414096916301,3.113667639708881
4.6982378854625555,3.126885472472117
4.718061674008811,3.1392858516144178
4.737885462555067,3.150829515417546
4.757709251101322,3.1614802321723814
4.777533039647578,3.17120482823232
4.797356828193833,3.179973211757
4.817180616740089,3.187758392825336
4.837004405286344,3.194536500510474
4.856828193832599,3.2002867974290936
4.876651982378855,3.2049916922026234
4.896475770925111,3.208636750198954
4.9162995594713665,3.211210702858481
4.936123348017622,3.212705455848084
4.955947136563877,3.213116096229401
4.975770925110133,3.2124408987734268
4.995594713656388,3.210681331500967
5.015418502202644,3.207842060476093
5.035242290748899,3.2039309538285536
5.055066079295155,3.1989590849282736
5.07488986784141,3.192940734580478
5.094713656387666,3.185893392053147
5.114537444933921,3.177837754687976
5.134361233480177,3.1687977257806295
5.154185022026432,3.158800410346449
5.174008810572688,3.1478761083110878
5.193832599118943,3.1360583045830275
5.213656387665199,3.123383655374735
5.2334801762114544,3.109891970041817
5.25330396475771,3.095626187604102
5.2731277533039655,3.080632346999854
5.292951541850221,3.064959550004615
5.312775330396477,3.048659915620358
5.332599118942731,3.031788524610723
5.352422907488988,3.0144033527260365
5.372246696035242,2.9965651910311863
5.392070484581499,2.978337551623954
5.4118942731277535,2.959786556916817
5.43171806167401,2.9409808105576816
5.451541850220265,2.9219912479923558
5.47136563876652,2.902890964632987
5.491189427312777,2.883755019602356
5.511013215859031,2.8646602130851235
5.530837004405288,2.845684835446501
5.550660792951542,2.826908386488239
5.570484581497798,2.8084112635140177
5.5903083700440535,2.7902744172819594
5.610132158590309,2.7725789754401595
5.6299559471365646,2.7554058336773357
5.64977973568282,2.738835215574952
5.669603524229076,2.7229462030151086
5.689427312775331,2.70781623996609
5.709251101321586,2.693520613513881
5.729074889867842,2.680131917102248
5.748898678414098,2.6677195020463027
5.768722466960353,2.656348924446097
5.788546255506609,2.646081395593164
5.808370044052864,2.6369732447735044
5.82819383259912,2.6290754039667124
5.848017621145375,2.6224329242656608
5.867841409691631,2.61708453384801
5.887665198237886,2.613062246986
5.907488986784142,2.610391032868627
5.927312775330397,2.6090885519367752
5.9471365638766525,2.609164966024732
5.966960352422908,2.610622826912253
5.986784140969164,2.613457045990156
6.00660792951542,2.6176549457156817
6.026431718061675,2.6231963914770855
6.04625550660793,2.6300540004972084
6.066079295154186,2.6381934225762906
6.085903083700441,2.6475736858852095
6.105726872246697,2.658147599734818
6.125550660792952,2.6698622053073957
6.145374449339208,2.6826592647616394
6.1651982378854635,2.696475778910111
6.185022026431718,2.711244523794791
6.204845814977975,2.7268945969128042
6.224669603524229,2.7433519645203663
6.244493392070486,2.7605400023097824
6.264317180616741,2.7783800227527777
6.284140969162996,2.796791783476096
6.303964757709252,2.8156939721284937
6.323788546255507,2.835004664268733
6.3436123348017635,2.8546417518138174
6.363436123348018,2.8745233405108155
6.3832599118942746,2.8945681157139354
6.403083700440529,2.9146956764537455
6.422907488986785,2.93482683837162
6.44273127753304,2.954883906565166
6.462555066079296,2.9747909197543243
6.482378854625551,2.994473867443329
6.502202643171807,3.0138608819325277
6.5220264317180625,3.0328824071378433
6.541850220264318,3.051471346217171
6.561674008810574,3.069563189993525
6.581497797356829,3.087096128115702
6.601321585903085,3.104011144817819
6.62114537444934,3.1202521010380218
6.640969162995596,3.135765804541368
6.6607929515418505,3.1505020695674415
6.680616740088107,3.1644137673958332
6.700440528634362,3.177456869094602
6.720264317180618,3.1895904815916456
6.740088105726873,3.200776878089086
6.759911894273129,3.2109815237266206
6.779735682819384,3.2201730972929465
6.799559471365639,3.228323509685092
6.819383259911895,3.2354079197236754
6.83920704845815,3.241404747847468
6.859030837004407,3.2462956881327987
6.8788546255506615,3.2500657190122793
6.898678414096917,3.252703113000891
6.918502202643173,3.2541994456763046
6.938325991189428,3.254549604102961
6.958149779735684,3.2537517948346455
6.977973568281939,3.2518075515776914
6.997797356828195,3.248721742544887
7.01762114537445,3.244502577478615
7.037444933920705,3.239161614268465
7.0572687224669615,3.2327137650333504
7.077092511013216,3.2251773014798553
7.096916299559473,3.2165738592854902
7.116740088105728,3.2069284411878294
7.136563876651983,3.196269418385735
7.156387665198239,3.1846285297770365
7.176211453744494,3.172040878467002
7.19603524229075,3.158544924882758
7.215859030837005,3.144182475719622
7.235682819383261,3.1289986678262487
7.255506607929516,3.113041946006094
7.275330396475772,3.0963640335731557
7.295154185022027,3.0790198943511093
7.314977973568283,3.061067684648822
7.334801762114538,3.04256869358284
7.354625550660794,3.0235872699536572
7.374449339207049,3.004190733720358
7.394273127753305,2.984449269964288
7.4140969162995605,2.964435803093577
7.433920704845816,2.9442258489258997
7.453744493392072,2.9238973422071677
7.473568281938327,2.9035304370915465
7.493392070484583,2.8832072781373665
7.513215859030838,2.8630117394793597
7.533039647577093,2.843029130036754
7.552863436123348,2.823345862925008
7.572687224669605,2.8040490876723085
7.59251101321586,2.7852262844132567
7.612334801762115,2.7669648199511157
7.6321585903083715,2.749351466450578
7.651982378854627,2.732471884541552
7.671806167400882,2.7164100737681247
7.691629955947137,2.701247794581943
7.711453744493394,2.6870639674194945
7.731277533039649,2.673934055769721
7.751101321585904,2.6619294414719246
7.7709251101321595,2.6511168017130315
7.790748898678416,2.6415574982422316
7.81057268722467,2.6333069901102695
7.830396475770926,2.626414281696338
7.850220264317182,2.6209214178439075
7.870044052863436,2.6168630375416626
7.889867841409693,2.614265996734926
7.909691629955948,2.6131490695418065
7.929515418502204,2.6135227354135084
7.9493392070484585,2.6153890576856673
7.969162995594715,2.618741656610955
7.9889867841409705,2.6235657774546524
8.008810572687224,2.629838451700965
8.02863436123348,2.6375287469842217
8.048458149779737,2.646598099145827
8.068281938325994,2.6570007179260506
8.088105726872246,2.6686840563070082
8.107929515418503,2.681589332477153
8.12775330396476,2.6956520928072467
8.147577092511014,2.7108028040996395
8.167400881057269,2.726967463661571
8.187224669603525,2.744068216400392
8.207048458149782,2.7620239690751904
8.226872246696036,2.780750992986844
8.246696035242293,2.8001635076709097
8.266519823788547,2.8201742395010276
8.286343612334802,2.8406949504517627
8.306167400881058,2.861636933555087
8.325991189427315,2.882911472774232
8.345814977973568,2.9044302660830894
8.365638766519824,2.926105811462903
8.38546255506608,2.9478517563020668
8.405286343612337,2.9695832113119294
8.42511013215859,2.9912170305578485
8.444933920704846,3.0126720595626493
8.464757709251103,3.033869353683046
8.484581497797357,3.054732369104807
8.504405286343614,3.0751871288656005
8.524229074889869,3.0951623663098053
8.544052863436125,3.1145896483242357
8.56387665198238,3.1334034806073845
8.583700440528636,3.151541397100954
8.60352422907489,3.1689440355701017
8.623348017621145,3.1855552011651342
8.643171806167402,3.2013219196393856
8.662995594713658,3.2161944817406587
8.682819383259913,3.230126480139579
8.702643171806168,3.2430748401118388
8.722466960352424,3.2549998450524824
8.74229074889868,3.2658651577716564
8.762114537444935,3.2756378384023757
8.78193832599119,3.2842883596420207
8.801762114537446,3.29179061995024
8.821585903083701,3.298121955236121
8.841409691629957,3.3032631494860243
8.861233480176212,3.3071984447099374
8.881057268722468,3.3099155505166395
8.900881057268723,3.311405653566704
8.92070484581498,3.3116634270947753
8.940528634361234,3.310687040638939
8.960352422907489,3.3084781700631463
8.980176211453745,3.3050420079078946
9.000000000000002,3.300387274053224
9.019823788546258,3.2945262266259063
9.039647577092511,3.2874746730273
9.059471365638768,3.2792519808992773
9.079295154185024,3.2698810887810423
9.099118942731279,3.2593885161388694
9.118942731277533,3.2478043723713963
9.13876651982379,3.2351623643049328
9.158590308370046,3.221499801594313
9.1784140969163,3.206857599333932
9.198237885462555,3.1912802770600326
9.218061674008812,3.174815953187416
9.237885462555067,3.1575163337721213
9.257709251101323,3.1394366943242726
9.27753303964758,3.1206358532146656
9.297356828193834,3.101176135023678
9.317180616740089,3.0811233219754506
9.337004405286345,3.0605465913861076
9.356828193832602,3.0395184368369144
9.376651982378855,3.01811457056822
9.396475770925111,2.9964138043855
9.416299559471367,2.9744979061858765
9.436123348017622,2.952451429064818
9.455947136563877,2.930361509863413
9.475770925110133,2.908317633985695
9.49559471365639,2.886411363372304
9.515418502202644,2.8647360246843157
9.5352422907489,2.8433863550517664
9.555066079295155,2.8224581031993194
9.57488986784141,2.80204758439647
9.594713656387666,2.7822511885097643
9.614537444933923,2.7631648414695658
9.634361233480178,2.744883421705404
9.654185022026432,2.7275001345405006
9.674008810572689,2.7111058491417097
9.693832599118945,2.695788404352029
9.713656387665198,2.6816318915280273
9.733480176211454,2.668715924283855
9.75330396475771,2.6571149067119886
9.773127753303967,2.646897313101869
9.792951541850222,2.6381249933003406
9.812775330396477,2.630852518544627
9.832599118942733,2.625126582757185
9.852422907488988,2.6209854738519605
9.872246696035244,2.618458628529098
9.892070484581499,2.617566282334671
9.911894273127754,2.618319224483659
9.93171806167401,2.6207186641820615
9.951541850220266,2.624756212070505
9.971365638766521,2.6304139771083856
9.991189427312776,2.637664775901991
10.011013215859032,2.646472448330831
10.030837004405289,2.656792270506991
10.050660792951543,2.6685714537501153
10.070484581497798,2.681749716472934
10.090308370044054,2.6962599147055397
10.11013215859031,2.7120287164506287
10.129955947136565,2.7289773051266857
10.14977973568282,2.747022097956467
10.169603524229077,2.766075466204104
10.189427312775331,2.7860464455513627
10.209251101321588,2.8068414265211072
10.229074889867842,2.8283648165986
10.248898678414099,2.8505196674719566
10.268722466960353,2.873208262532226
10.28854625550661,2.896332661376781
10.308370044052865,2.919795199502723
10.32819383259912,2.9434989426312432
10.348017621145376,2.967348096156443
10.367841409691632,2.991248371062778
10.387665198237887,3.015107308312893
10.407488986784141,3.0388345641880594
10.427312775330398,3.0623421593871645
10.447136563876654,3.0855446948793235
10.466960352422909,3.108359537582478
10.486784140969164,3.130706978927795
10.50660792951542,3.152510369287542
10.526431718061675,3.1736962311104264
10.546255506607931,3.1941943534383648
10.566079295154186,3.2139378702862977
10.585903083700442,3.232863325161148
10.605726872246697,3.2509107237873183
10.625550660792953,3.268023576899464
10.645374449339208,3.284148934764082
10.665198237885463,3.2992374149030117
10.685022026431719,3.313243224315527
10.704845814977975,3.326124177334403
10.724669603524232,3.3378417101029236
10.744493392070485,3.348360892527058
