Frequency (Hz),Amplitude
0.0,1.2083476886597344
0.01978021978021978,1.2140906121529884
0.03956043956043956,1.2311363865617564
0.05934065934065934,1.2589607536194243
0.07912087912087912,1.296764819235323
0.0989010989010989,1.3435647934385744
0.11868131868131868,1.3982836272690613
0.13846153846153844,1.4598286749239124
0.15824175824175823,1.5271479455073371
0.17802197802197803,1.5992647114751477
0.1978021978021978,1.6752943563117129
0.21758241758241756,1.7544486333486324
0.23736263736263735,1.8360320795104794
0.2571428571428572,1.9194342124353974
0.2769230769230769,2.004119968259075
0.2967032967032967,2.0896198837807245
0.31648351648351647,2.1755208491851574
0.3362637362637363,2.261457819033731
0.35604395604395606,2.347106606838743
0.3758241758241758,2.4321777438639764
0.3956043956043956,2.5164113115525413
0.4153846153846154,2.599572628871433
0.4351648351648351,2.681448671512789
0.45494505494505494,2.761845107547872
0.4747252747252747,2.8405838469800635
0.4945054945054945,2.9175010169374174
0.5142857142857143,2.992445288058178
0.5340659340659341,3.065276490073846
0.5538461538461538,3.13586446538176
0.5736263736263736,3.2040881185186683
0.5934065934065934,3.2698346270374805
0.6131868131868132,3.332998785544943
0.6329670329670329,3.393482459780398
0.6527472527472528,3.4511941317956585
0.6725274725274726,3.5060485206995904
0.6923076923076923,3.5579662662017637
0.7120879120879121,3.6068736644459545
0.7318681318681318,3.652702447464199
0.7516483516483516,3.6953895990859094
0.7714285714285715,3.7348772013681164
0.7912087912087912,3.7711123066250374
0.810989010989011,3.80404683097005
0.8307692307692308,3.8336374659743284
0.8505494505494506,3.859845605621713
0.8703296703296702,3.882637286221159
0.8901098901098901,3.9019831373437
0.9098901098901099,3.9178583421959092
0.9296703296703297,3.9302426061375417
0.9494505494505494,3.9391201323079947
0.9692307692307692,3.9444796035524523
0.989010989010989,3.9463141700413273
1.0087912087912088,3.9446214421619787
1.0285714285714287,3.9394034884350986
1.0483516483516484,3.9306668383744525
1.0681318681318681,3.9184224903732234
1.087912087912088,3.902685924866177
1.1076923076923075,3.8834771231908203
1.1274725274725275,3.8608205927559984
1.1472527472527472,3.83474539932943
1.1670329670329669,3.8052852074821146
1.1868131868131868,3.7724783304849394
1.2065934065934065,3.7363677912489006
1.2263736263736265,3.697001396245796
1.2461538461538462,3.654431824752737
1.2659340659340659,3.608716736245962
1.2857142857142858,3.5599188993458464
1.3054945054945055,3.5081063464070033
1.3252747252747252,3.453352558683555
1.3450549450549452,3.395736688012721
1.3648351648351649,3.3353438221933347
1.3846153846153846,3.272265302740891
1.4043956043956045,3.2065991055426704
1.4241758241758242,3.138450297194603
1.443956043956044,3.067931582574224
1.4637362637362636,2.9951639626093893
1.4835164835164834,2.9202775253833972
1.5032967032967033,2.8434123988403646
1.523076923076923,2.764719899609052
1.542857142857143,2.6843639200507163
1.5626373626373626,2.6025226047488452
1.5824175824175823,2.5193903784323486
1.6021978021978023,2.4351803997524737
1.621978021978022,2.3501275291100066
1.6417582417582417,2.26449191296764
1.6615384615384616,2.1785632998494804
1.6813186813186813,2.0926662107665757
1.7010989010989013,2.0071660822957917
1.720879120879121,1.9224764722201555
1.7406593406593405,1.8390673461597586
1.7604395604395604,1.7574743187342723
1.7802197802197801,1.6783084603257599
1.7999999999999998,1.6022658423537166
1.8197802197802198,1.5301353175051928
1.8395604395604395,1.4628020801659085
1.8593406593406594,1.4012433852480497
1.879120879120879,1.3465116938542385
1.8989010989010988,1.2997000910828238
1.9186813186813187,1.2618861101577297
1.9384615384615385,1.234054199729064
1.9582417582417584,1.2170042455587378
1.978021978021978,1.211261959178001
1.9978021978021978,1.2170122751249088
2.0175824175824175,1.234074492286235
2.0373626373626372,1.2619267424072145
2.0571428571428574,1.2997723064678257
2.076923076923077,1.3466290975773978
2.096703296703297,1.40142115892549
2.1164835164835165,1.463056312879735
2.1362637362637362,1.5304824914577067
2.1560439560439564,1.6027224682436214
2.175824175824176,1.6788908356288161
2.195604395604396,1.758198376474587
2.215384615384615,1.8399485651274659
2.2351648351648348,1.9235298261998377
2.254945054945055,2.008406012521317
2.2747252747252746,2.094106611222459
2.2945054945054943,2.1802175089625018
2.314285714285714,2.2663727078839084
2.3340659340659338,2.352247120454402
2.353846153846154,2.4375504258148974
2.3736263736263736,2.5220218983446596
2.3934065934065933,2.605426090566588
2.413186813186813,2.687549247839793
2.4329670329670328,2.768196339726414
2.452747252747253,2.8471886056310245
2.4725274725274726,2.9243615265191094
2.4923076923076923,2.9995631482818794
2.512087912087912,3.0726526947363104
2.5318681318681318,3.14349941902125
2.5516483516483515,3.211981651262866
2.5714285714285716,3.2779860079719643
2.5912087912087913,3.3414067348920375
2.610989010989011,3.4021451601425423
2.6307692307692307,3.4601092386847263
2.6505494505494505,3.515213172544966
2.6703296703296706,3.5673770940044447
2.6901098901098903,3.6165268012240657
2.70989010989011,3.6625935376162593
2.7296703296703297,3.7055138077817595
2.7494505494505495,3.7452292240634235
2.769230769230769,3.7816863787834367
2.7890109890109893,3.8148367380666532
2.808791208791209,3.8446365538458744
2.8285714285714287,3.8710467912214264
2.8483516483516484,3.894033068830361
2.8681318681318677,3.9135656102873475
2.887912087912088,3.929619205105295
2.9076923076923076,3.9421731778004383
2.9274725274725273,3.9512113641442284
2.947252747252747,3.956722093751588
2.9670329670329667,3.9586981783984236
2.986813186813187,3.957136905647608
3.0065934065934066,3.952040037536509
3.0263736263736263,3.943413814246756
3.046153846153846,3.9312689628417625
3.0659340659340657,3.91562071132483
3.085714285714286,3.896488808445476
3.1054945054945056,3.873897549868055
3.1252747252747253,3.847875811520959
3.145054945054945,3.818457091172858
3.1648351648351647,3.7856795595410455
3.184615384615385,3.7495861225353986
3.2043956043956046,3.710224496588726
3.2241758241758243,3.667647299433626
3.243956043956044,3.6219121591707926
3.2637362637362637,3.5730818450536788
3.2835164835164834,3.5212244241105384
3.3032967032967036,3.466413448565294
3.3230769230769233,3.40872818003745
3.342857142857143,3.3482538577406067
3.3626373626373627,3.2850820194110555
3.3824175824175824,3.219310885547746
3.4021978021978025,3.151045819811454
3.4219780219780223,3.0803998812131472
3.441758241758242,3.0074944871357685
3.4615384615384617,2.9324602104239936
3.481318681318681,2.85543773890656
3.501098901098901,2.776579031973409
3.520879120879121,2.696048716413281
3.5406593406593405,2.614025772812855
3.5604395604395602,2.5307055745550553
3.58021978021978,2.446302353811766
3.5999999999999996,2.36105218257959
3.61978021978022,2.27521657084394
3.6395604395604395,2.1890867964052334
3.659340659340659,2.1029890879521482
3.679120879120879,2.0172907777413487
3.6989010989010986,1.9324075109175087
3.718681318681319,1.848811525690912
3.7384615384615385,1.7670408720781807
3.758241758241758,1.687709172776836
3.7780219780219784,1.6115150905339366
3.7978021978021976,1.5392499907732053
3.8175824175824173,1.4718013420524283
3.8373626373626375,1.4101482418738247
3.8571428571428568,1.3553443666866074
3.876923076923077,1.3084832496327399
3.896703296703296,1.2706421011499751
3.916483516483517,1.2428044838504764
3.936263736263736,1.2257692667248508
3.956043956043956,1.2200615720339802
3.9758241758241755,1.2258666487216532
3.9956043956043956,1.2430051871115644
4.015384615384615,1.2709575624686045
4.035164835164835,1.3089296256575236
4.054945054945055,1.3559415841266222
4.0747252747252745,1.4109190344415121
4.094505494505494,1.4727703852233074
4.114285714285715,1.5404431872558826
4.134065934065934,1.6129590136461258
4.153846153846154,1.6894306488737036
4.173626373626373,1.7690666735151683
4.193406593406594,1.8511681460383378
4.213186813186813,1.9351209987702478
4.232967032967033,2.020386611113842
4.252747252747253,2.1064920763268877
4.2725274725274724,2.1930210014995053
4.292307692307692,2.279605240080802
4.312087912087913,2.3659176912906243
4.331868131868132,2.4516661535853332
4.351648351648352,2.5365881460675794
4.371428571428571,2.620446582089403
4.391208791208792,2.703026173861014
4.410989010989011,2.7841304537898584
4.43076923076923,2.8635793106317946
4.450549450549451,2.94120695251331
4.4703296703296695,3.016860222498384
4.49010989010989,3.090397204706322
4.50989010989011,3.1616860697068145
4.52967032967033,3.2306041170034008
4.549450549450549,3.297036979993176
4.569230769230769,3.360877965043588
4.589010989010989,3.4220275014547177
4.608791208791209,3.4803926832633003
4.628571428571428,3.535886887258709
4.648351648351649,3.5884294543619406
4.6681318681318675,3.6379454237851583
4.687912087912088,3.684365311238961
4.707692307692308,3.7276249239662542
4.7274725274725276,3.7676652066215035
4.747252747252747,3.804432113032491
4.767032967032967,3.8378764997228267
4.786813186813187,3.867954037769799
4.806593406593407,3.894625140152178
4.826373626373626,3.9178549022283087
4.846153846153847,3.937613053394179
4.8659340659340655,3.953873918319393
4.885714285714286,3.9666163864576762
4.905494505494506,3.97582388878823
4.9252747252747255,3.9814843809730216
4.945054945054945,3.9835903323203317
4.964835164835165,3.982138720132564
4.984615384615385,3.9771310291922872
5.004395604395604,3.968573256309214
5.024175824175824,3.956475920017663
5.043956043956045,3.940854075683355
5.0637362637362635,3.9217273364547807
5.083516483516483,3.899119900683281
5.103296703296703,3.8730605866426253
5.123076923076923,3.8435828756096138
5.142857142857143,3.810724964629198
5.162637362637362,3.774529830589362
5.182417582417583,3.7350453075827823
5.2021978021978015,3.692324179945916
5.221978021978022,3.646424293857068
5.241758241758242,3.5974086909610707
5.2615384615384615,3.5453457681920533
5.281318681318681,3.490309468814568
5.301098901098901,3.432379510732985
5.320879120879121,3.371641659369181
5.340659340659341,3.308188053934575
5.36043956043956,3.2421175977871166
5.380219780219781,3.1735364258476224
5.3999999999999995,3.1025584648499644
5.41978021978022,3.029306105633603
5.43956043956044,2.9539110108962263
5.4593406593406595,2.8765150869705494
5.479120879120879,2.7972716544579512
5.498901098901099,2.7163468601329335
5.518681318681319,2.63392138160487
5.538461538461538,2.5501924868994563
5.558241758241758,2.4653765233594593
5.578021978021979,2.3797119237022675
5.5978021978021975,2.2934628307449954
5.617582417582418,2.206923454172023
5.637362637362637,2.1204232788636848
5.6571428571428575,2.034333237718508
5.676923076923077,1.9490729306163852
5.696703296703297,1.8651188956738167
5.716483516483517,1.7830137890380393
5.736263736263735,1.7033760615733529
5.756043956043956,1.6269092785206039
5.775824175824176,1.5544095525780497
5.795604395604395,1.4867686217898206
5.815384615384615,1.42496896871573
5.835164835164835,1.3700663271336184
5.854945054945055,1.3231545825869941
5.874725274725275,1.2853094384426529
5.894505494505494,1.2575113251922703
5.914285714285715,1.240555057684347
5.934065934065933,1.2349618371443658
5.953846153846154,1.2409141932398182
5.973626373626374,1.258231957442013
5.993406593406593,1.286396491814918
6.013186813186813,1.3246158513002917
6.032967032967033,1.3719127467146097
6.052747252747253,1.4272147406130313
6.072527472527473,1.4894311444171169
6.092307692307692,1.5575091740267826
6.112087912087913,1.6304689216717887
6.131868131868131,1.707420780402693
6.151648351648352,1.787570305818368
6.171428571428572,1.870215153452049
6.191208791208791,1.9547376807068384
6.210989010989011,2.040595670869264
6.230769230769231,2.127312701552502
6.2505494505494505,2.2144690074242908
6.270329670329671,2.301693246961679
6.29010989010989,2.388655316408774
6.309890109890111,2.475060204940734
6.329670329670329,2.560642809890795
6.349450549450549,2.6451635997366476
6.36923076923077,2.728405005959402
6.3890109890109885,2.810168430976991
6.408791208791209,2.8902717711400534
6.428571428571428,2.968547367371131
6.4483516483516485,3.044840309390566
6.468131868131868,3.119007031644689
6.487912087912088,3.1909141496731652
6.507692307692308,3.2604374946794787
6.527472527472527,3.3274613116140634
6.547252747252747,3.391877592318424
6.567032967032967,3.453585520402222
6.5868131868131865,3.5124910087158225
6.606593406593407,3.5685063137003312
6.626373626373626,3.6215497136857153
6.6461538461538465,3.67154524048241
6.665934065934065,3.7184224554692094
6.685714285714286,3.762116262900395
6.705494505494506,3.8025667544013824
6.725274725274725,3.839719079647836
6.745054945054945,3.8735233390696955
6.764835164835165,3.9039344951234924
6.7846153846153845,3.9309122992609176
6.804395604395605,3.9544212322117023
6.824175824175824,3.9744304556118264
6.8439560439560445,3.990913773359925
6.863736263736263,4.003849601386369
6.883516483516484,4.013220944782295
6.903296703296704,4.019015381467053
6.923076923076923,4.021225051780718
6.942857142857143,4.019846653578039
6.962637362637362,4.014881442579228
6.9824175824175825,4.006335237903677
7.002197802197802,3.9942184328828283
7.021978021978022,3.9785460114198963
7.041758241758242,3.9593375703442293
7.061538461538461,3.936617348399832
7.081318681318681,3.910414262718472
7.101098901098901,3.8807619538621996
7.1208791208791204,3.8476988407876664
7.140659340659341,3.8112681873911916
7.16043956043956,3.771518182652336
7.1802197802197805,3.728502036814465
7.199999999999999,3.682278096540582
7.21978021978022,3.632909982578812
7.23956043956044,3.580466754187466
7.259340659340659,3.5250231054327803
7.279120879120879,3.466659599517015
7.298901098901099,3.405462948564312
7.318681318681318,3.3415263478385198
7.338461538461539,3.274949875256063
7.358241758241758,3.2058409693682735
7.3780219780219785,3.1343150018174537
7.397802197802197,3.0604959637371456
7.417582417582418,2.9845172898078567
7.437362637362638,2.906522848855643
7.457142857142857,2.8266681361692743
7.476923076923077,2.7451217102968473
7.496703296703297,2.6620669261250525
7.516483516483516,2.577704026635441
7.536263736263736,2.492252667791407
7.556043956043957,2.4059549641220417
7.575824175824176,2.3190791556865635
7.595604395604395,2.2319240080607936
7.615384615384615,2.14482406170844
7.635164835164835,2.0581558383570613
7.654945054945055,1.972345077569031
7.674725274725275,1.8878749968362711
7.694505494505494,1.805295412978271
7.7142857142857135,1.7252322882436086
7.734065934065935,1.6483968164437306
7.753846153846154,1.5755924872232516
7.7736263736263735,1.5077176366063023
7.793406593406592,1.44575988636961
7.813186813186814,1.3907778836948992
7.832967032967034,1.3438655018801053
7.852747252747252,1.3060951225329123
7.872527472527472,1.2784407613284958
7.892307692307693,1.26168871768665
7.912087912087912,1.2563512323076573
7.931868131868132,1.2626032735665451
7.951648351648351,1.2802598790405868
7.971428571428572,1.3088007833622057
7.991208791208791,1.3474349762264344
8.010989010989011,1.3951874567033404
8.03076923076923,1.4509881594169902
8.05054945054945,1.5137479153323175
8.07032967032967,1.5824141384738317
8.09010989010989,1.6560057301539621
8.10989010989011,1.7336306883990884
8.129670329670331,1.814491264781409
8.149450549450549,1.8978812087874286
8.169230769230769,1.983178636412442
8.189010989010988,2.0698369616600627
8.20879120879121,2.1573754136087535
8.22857142857143,2.245369997863271
8.248351648351647,2.3334453234838994
8.268131868131867,2.4212674492063817
8.287912087912087,2.5085377516958505
8.307692307692308,2.5949877413460567
8.327472527472528,2.6803747181325392
8.347252747252746,2.7644781519777952
8.367032967032966,2.847096677076406
8.386813186813187,2.9280456006237943
8.406593406593407,3.007154839434606
8.426373626373627,3.0842672109246587
8.446153846153845,3.159237016854507
8.465934065934066,3.231928868693091
8.485714285714286,3.302216712386573
8.505494505494505,3.3699830178025256
8.525274725274725,3.4351181043247028
8.545054945054945,3.497519579180646
8.564835164835165,3.5570918692692146
8.584615384615384,3.613745830675669
8.604395604395604,3.66739842285516
8.624175824175826,3.7179724367474205
8.643956043956043,3.7653962679504938
8.663736263736263,3.8096037276094896
8.683516483516483,3.8505338849307518
8.703296703296704,3.8881309362644965
8.723076923076924,3.9223440965527234
8.742857142857142,3.953127509646978
8.762637362637362,3.980440174591356
8.782417582417583,4.004245885460679
8.802197802197803,4.0245131827623
8.821978021978023,4.041215314765414
8.84175824175824,4.054330207427883
8.86153846153846,4.063840441856741
8.881318681318682,4.069733238473637
8.901098901098901,4.072000447267646
8.920879120879121,4.070638543711611
8.940659340659339,4.065648630099804
8.96043956043956,4.05703644223975
8.98021978021978,4.0448123616041585
9.0,4.028991433224903
9.01978021978022,4.0095933897948655
9.03956043956044,3.986642682640518
9.05934065934066,3.9601685204438097
9.079120879120879,3.9302049168329205
9.098901098901099,3.896790748235495
9.11868131868132,3.85996982370291
9.138461538461538,3.8197909687818665
9.158241758241758,3.776308125941427
9.178021978021977,3.7295804745756787
9.197802197802199,3.679672574213168
9.217582417582419,3.626654535297063
9.237362637362637,3.570602222782699
9.257142857142856,3.511597498867962
9.276923076923078,3.4497285124679586
9.296703296703297,3.3850900446240195
9.316483516483517,3.3177839209615634
9.336263736263735,3.247919504662995
9.356043956043957,3.175614286296093
9.375824175824176,3.1009945903521348
9.395604395604396,3.0241964226370555
9.415384615384616,2.945366487879281
9.435164835164835,2.864663413239055
9.454945054945055,2.7822592209967545
9.474725274725275,2.69834110270137
9.494505494505495,2.613113557531689
9.514285714285714,2.5268009694282725
9.534065934065934,2.439650710196036
9.553846153846154,2.3519368680850934
9.573626373626373,2.263964710987311
9.593406593406593,2.1760759960107525
9.613186813186815,2.0886552252555974
9.632967032967032,2.002136908497882
9.652747252747252,1.9170138070700649
9.672527472527472,1.8338459691149638
9.692307692307693,1.753270082003523
9.712087912087913,1.6760082103260754
9.731868131868131,1.6028743070910645
9.75164835164835,1.5347759674966026
9.771428571428572,1.4727078302293195
9.791208791208792,1.4177321257297697
9.810989010989012,1.370941752689269
9.83076923076923,1.333402869647006
9.850549450549451,1.3060781996636326
9.87032967032967,1.2897390309790757
9.89010989010989,1.2848812999194492
9.90989010989011,1.2916652454869721
9.92967032967033,1.3098951002234946
9.94945054945055,1.3390447559821967
9.96923076923077,1.378321864910644
9.989010989010989,1.4267530984005181
10.008791208791209,1.4832712781780506
10.028571428571428,1.5467898466713577
10.048351648351648,1.6162576406409042
10.068131868131868,1.6906934423178164
10.08791208791209,1.7692036328563283
10.107692307692307,1.8509876068539592
10.127472527472527,1.935335347212517
10.147252747252747,2.021620612165392
10.167032967032966,2.1092921334993058
10.186813186813188,2.1978643377307456
10.206593406593406,2.286908453189886
10.226373626373626,2.3760444343129627
10.246153846153845,2.464933868288755
10.265934065934067,2.5532738769694796
10.285714285714286,2.640791947777858
10.305494505494504,2.7272415923607833
10.325274725274724,2.8123987219849793
10.345054945054946,2.8960586323114885
10.364835164835165,2.978033500169166
10.384615384615385,3.0581503072548726
10.404395604395603,3.1362491181577425
10.424175824175824,3.2121816516704724
10.443956043956044,3.285810094568413
10.463736263736264,3.357006115803043
10.483516483516484,3.425650046437228
10.503296703296703,3.49163019678978
10.523076923076923,3.554842287324884
10.542857142857143,3.615188973985411
10.562637362637362,3.6725794520796904
10.582417582417584,3.7269291256221324
10.602197802197802,3.778159331311492
10.621978021978022,3.82619710820049
10.641758241758241,3.870975005644501
10.661538461538463,3.9124309233779138
10.681318681318682,3.9505079786064767
10.7010989010989,3.9851543958640043
