Time (s),Filtered Signal
0.0,0.020753832315805517
0.03337000366703337,-0.06578593315571649
0.06674000733406674,-0.20085281744214567
0.1001100110011001,-0.4020561148360242
0.13348001466813347,-0.6396616847190841
0.16685001833516683,-0.8421427245082568
0.2002200220022002,-0.9226888096986742
0.2335900256692336,-0.8160417031517382
0.26696002933626695,-0.5097718361739706
0.3003300330033003,-0.05576654419437909
0.33370003667033366,0.44394050903375404
0.36707004033736707,0.8714354721812122
0.4004400440044004,1.1327600678463812
0.4338100476714338,1.1868262655798056
0.4671800513384672,1.0527905883655468
0.5005500550055005,0.7955855551507073
0.5339200586725339,0.49852944645565195
0.5672900623395672,0.23568307979887107
0.6006600660066006,0.05396608254317631
0.634030069673634,-0.03150441317627713
0.6674000733406673,-0.03181650481387118
0.7007700770077008,0.02547680029008916
0.7341400806747341,0.10507040996694825
0.7675100843417675,0.16991439221087298
0.8008800880088008,0.18611348074978476
0.8342500916758342,0.1290898717467775
0.8676200953428675,-0.008767299227548552
0.9009900990099009,-0.2120576867138402
0.9343601026769344,-0.44269239983636316
0.9677301063439677,-0.649481336936917
1.001100110011001,-0.785063002044489
1.0344701136780343,-0.8233927382332175
1.0678401173450678,-0.76945897665464
1.1012101210121013,-0.6560985480764516
1.1345801246791345,-0.5291317967247688
1.167950128346168,-0.42789506727696014
1.2013201320132012,-0.37029186102972966
1.2346901356802347,-0.3487545042207358
1.268060139347268,-0.3377863518983983
1.3014301430143014,-0.3082516545450378
1.3348001466813346,-0.2410167297445258
1.368170150348368,-0.133828483208619
1.4015401540154016,0.0006414796285026111
1.4349101576824348,0.1431453850163484
1.4682801613494683,0.277433716690856
1.5016501650165015,0.39608999279345125
1.535020168683535,0.5003303053861099
1.5683901723505682,0.5949310910372791
1.6017601760176017,0.6818040112271446
1.6351301796846351,0.7559304496123042
1.6685001833516684,0.8056411144323153
1.7018701870187019,0.8167826516512855
1.735240190685735,0.7784988789601539
1.7686101943527686,0.6879253178462444
1.8019801980198018,0.5519711251615023
1.8353502016868353,0.38585906117118707
1.8687202053538687,0.20938737720302678
1.902090209020902,0.04242766758753502
1.9354602126879354,-0.09905939790724305
1.9688302163549687,-0.2058343640302135
2.002200220022002,-0.27686218296215004
2.0355702236890356,-0.3193948354935155
2.0689402273560686,-0.34735682144531105
2.102310231023102,-0.37769559768503397
2.1356802346901356,-0.4249741701404421
2.169050238357169,-0.49568949002967905
2.2024202420242025,-0.5847760261704937
2.2357902456912355,-0.6764303754712332
2.269160249358269,-0.7494469381008613
2.3025302530253025,-0.7846846246145975
2.335900256692336,-0.7708705947795198
2.369270260359369,-0.7058938350906119
2.4026402640264024,-0.5936145683936757
2.436010267693436,-0.4391137972720873
2.4693802713604693,-0.24620277026761828
2.502750275027503,-0.01923728505355851
2.536120278694536,0.23196842158216735
2.5694902823615693,0.4878448382770952
2.6028602860286028,0.7191872044630675
2.636230289695636,0.893095240766228
2.6696002933626692,0.9827697775959007
2.7029702970297027,0.9768524127163805
2.736340300696736,0.8838905162414287
2.7697103043637696,0.7295958843834177
2.803080308030803,0.5477695760496609
2.836450311697836,0.36865087229582894
2.8698203153648696,0.20977346289631005
2.903190319031903,0.0734922712353651
2.9365603226989365,-0.04767540591546321
2.96993032636597,-0.160730970830275
3.003300330033003,-0.2627558513923036
3.0366703337000365,-0.33839406481293616
3.07004033736707,-0.36697021266492447
3.1034103410341034,-0.33642720841447316
3.1367803447011364,-0.2564681646358769
3.17015034836817,-0.16225593797020124
3.2035203520352034,-0.10401714137723994
3.236890355702237,-0.12532439690156433
3.2702603593692703,-0.239825769385628
3.3036303630363033,-0.41864821169478694
3.3370003667033368,-0.5966695103363753
3.3703703703703702,-0.6968872533540407
3.4037403740374037,-0.6627216150967975
3.4371103777044367,-0.4833926678563311
3.47048038137147,-0.20031999950547125
3.5038503850385037,0.10848891060103948
3.537220388705537,0.3586525193655063
3.5705903923725706,0.4904677579147418
3.6039603960396036,0.4877900910114744
3.637330399706637,0.3785299086999384
3.6707004033736705,0.2192542161789955
3.704070407040704,0.07246431281866214
3.7374404107077375,-0.01377407064107536
3.7708104143747705,-0.017409039922666045
3.804180418041804,0.05627636618246254
3.8375504217088374,0.18109559523061067
3.870920425375871,0.3201029174990819
3.904290429042904,0.4360569193782866
3.9376604327099374,0.5003094728708076
3.971030436376971,0.4992456841870643
4.004400440044004,0.43744971077022793
4.037770443711038,0.3363996667617221
4.071140447378071,0.22776085484165665
4.104510451045105,0.1419317131864443
4.137880454712137,0.09503727190703723
4.171250458379171,0.07966517079906262
4.204620462046204,0.06462828838293994
4.237990465713238,0.006069798959924509
4.271360469380271,-0.1329218699690671
4.304730473047305,-0.36200522023719317
4.338100476714338,-0.6523583010102407
4.3714704803813715,-0.9414588677713488
4.404840484048405,-1.1537797083907706
4.438210487715438,-1.2292775891376946
4.471580491382471,-1.146811016603551
4.5049504950495045,-0.9312132974184356
4.538320498716538,-0.6404490096509973
4.571690502383571,-0.3392999155587533
4.605060506050605,-0.07289649788518521
4.638430509717638,0.14684034187506256
4.671800513384672,0.33612615760930703
4.705170517051705,0.52011382437853
4.738540520718738,0.7112701323672372
4.771910524385771,0.8972382989388221
4.805280528052805,1.0437572680438927
4.838650531719838,1.1096613945795821
4.872020535386872,1.0653747628561223
4.905390539053905,0.9061963772497366
4.938760542720939,0.655788194420017
4.972130546387972,0.36018718607563865
5.005500550055006,0.07560075688490402
5.038870553722038,-0.1461830867937329
5.072240557389072,-0.2713456180670743
5.105610561056105,-0.29326832228639804
5.138980564723139,-0.2342895973740673
5.172350568390172,-0.13819000065762885
5.2057205720572055,-0.054816421561713145
5.239090575724239,-0.022123700063450286
5.272460579391272,-0.05299250788148379
5.305830583058306,-0.13263563560846928
5.3392005867253385,-0.2276057375486065
5.372570590392372,-0.30192228633334317
5.405940594059405,-0.33271003751317035
5.439310597726439,-0.31855571593750526
5.472680601393472,-0.277756149548541
5.506050605060506,-0.23836694558563534
5.539420608727539,-0.2251233958811837
5.572790612394573,-0.24885264223201647
5.606160616061606,-0.30232236642945937
5.63953061972864,-0.36365673621202327
5.672900623395672,-0.40550916636726414
5.706270627062706,-0.4059220238546144
5.739640630729739,-0.3560422693206845
5.773010634396773,-0.2612599724781437
5.806380638063806,-0.13568355508984445
5.83975064173084,0.00639930974085625
5.873120645397873,0.1565793265582037
5.9064906490649065,0.3118889382485124
5.93986065273194,0.4680719165531458
5.9732306563989725,0.6112538021621953
6.006600660066006,0.7146397114557075
6.0399706637330395,0.744711008572684
6.073340667400073,0.6759460999729455
6.106710671067106,0.5072671265162262
6.14008067473414,0.27079749979762774
6.173450678401173,0.02621603781236974
6.206820682068207,-0.15894295453791377
6.24019068573524,-0.23505560158657837
6.273560689402273,-0.1904623880995167
6.306930693069306,-0.056386028070230874
6.34030069673634,0.10547484254791238
6.373670700403373,0.22673238036141038
6.407040704070407,0.25677739573440417
6.44041070773744,0.17797888171041845
6.473780711404474,0.006931376119531253
6.507150715071507,-0.21634725409317188
6.540520718738541,-0.4448027659341982
6.573890722405573,-0.6389922175126416
6.607260726072607,-0.7750296025636383
6.64063072973964,-0.8446567752094852
6.6740007334066735,-0.8496513365355676
6.707370737073707,-0.7946160253945166
6.7407407407407405,-0.6820906033376392
6.774110744407774,-0.512151942143628
6.807480748074807,-0.28608986821973453
6.840850751741841,-0.011619633361224463
6.8742207554088735,0.2935273486337173
6.907590759075907,0.601694926080159
6.94096076274294,0.8791216833241887
6.974330766409974,1.0918796020908947
7.007700770077007,1.2119059383986401
7.041070773744041,1.2218307431881466
7.074440777411074,1.118279769602697
7.107810781078108,0.9136512502629937
7.141180784745141,0.6359005367665957
7.174550788412174,0.3253748457575255
7.207920792079207,0.028127473950312648
7.241290795746241,-0.2134491274193282
7.274660799413274,-0.3702418250727416
7.308030803080308,-0.4332220351465345
7.341400806747341,-0.41516959458347935
7.3747708104143745,-0.34677506499401556
7.408140814081408,-0.2682914407311297
7.4415108177484415,-0.21897178942066772
7.474880821415475,-0.2269077987660297
7.5082508250825075,-0.301785334571959
7.541620828749541,-0.43253464500381433
7.5749908324165744,-0.5907290040410139
7.608360836083608,-0.738912955857375
7.641730839750641,-0.8413203272494649
7.675100843417675,-0.8734729066696806
7.708470847084708,-0.8275268908333254
7.741840850751742,-0.7119186351992052
7.775210854418775,-0.546151660939101
7.808580858085808,-0.35342643486496056
7.841950861752841,-0.15435410547930234
7.875320865419875,0.036079212386016225
7.908690869086908,0.20826607517485254
7.942060872753942,0.35635317733055777
7.975430876420975,0.47757177519399613
8.008800880088009,0.5733621750624246
8.042170883755041,0.6507321015005638
8.075540887422076,0.7209530247562511
8.108910891089108,0.7939133154158118
8.142280894756142,0.869843151982143
8.175650898423175,0.9333849740922494
8.20902090209021,0.9553517063556636
8.242390905757242,0.9039209527355418
8.275760909424275,0.7611774886139648
8.309130913091309,0.536505045622011
8.342500916758341,0.2685859210911521
8.375870920425376,0.013191187128467688
8.409240924092408,-0.17834111095662414
8.442610927759443,-0.2796339313618782
8.475980931426475,-0.298769745296108
8.50935093509351,-0.27256812360420973
8.542720938760542,-0.24932302515635665
8.576090942427575,-0.2689383268444969
8.60946094609461,-0.34932842443691825
8.642830949761642,-0.4833414078133287
8.676200953428676,-0.6447224057945371
8.709570957095709,-0.7982318939002838
8.742940960762743,-0.9092436964981382
8.776310964429776,-0.9506529984938248
8.80968096809681,-0.9072802879519132
8.843050971763843,-0.7785669816041421
8.876420975430875,-0.5794443439603459
8.90979097909791,-0.33828626312828075
8.943160982764942,-0.09113461078385515
8.976530986431976,0.1269937905769589
9.009900990099009,0.29105997855771604
9.043270993766043,0.39188422878867735
9.076640997433076,0.4367501244638665
9.11001100110011,0.44482349206710786
9.143381004767143,0.4395607847810747
9.176751008434175,0.44103398197251353
9.21012101210121,0.46042946963741455
9.243491015768242,0.4976903904462236
9.276861019435277,0.542265152843931
9.31023102310231,0.5764868744863605
9.343601026769344,0.5808907382472911
9.376971030436376,0.5403585640792558
9.41034103410341,0.44941727578687135
9.443711037770443,0.31484205322259834
9.477081041437476,0.15440614131445715
9.51045104510451,-0.007941720811956496
9.543821048771543,-0.14875260876761387
9.577191052438577,-0.25126798020574137
9.61056105610561,-0.3092404182812643
9.643931059772644,-0.3275694785787523
9.677301063439677,-0.3199448086587544
9.710671067106711,-0.30429697635049924
9.744041070773743,-0.2971885664548291
9.777411074440776,-0.3085483401024618
9.81078107810781,-0.33828928658053337
9.844151081774843,-0.37604311637842236
9.877521085441877,-0.40432288013901135
9.91089108910891,-0.4041721736824157
9.944261092775944,-0.3613838189865446
9.977631096442977,-0.27119362494139143
10.011001100110011,-0.1400537440266747
10.044371103777044,0.015736903553973284
10.077741107444076,0.17373697531600865
10.11111111111111,0.3101518434731669
10.144481114778143,0.4046198575947648
10.177851118445178,0.4442988611715766
10.21122112211221,0.42673781435146707
10.244591125779245,0.36087307752853354
10.277961129446277,0.26535133070157574
10.311331133113312,0.1637840870462731
10.344701136780344,0.07771758858395902
10.378071140447377,0.019623233061165413
10.411441144114411,-0.010928623738614227
10.444811147781444,-0.02552124370173065
10.478181151448478,-0.03971235170012685
10.51155115511551,-0.06372645143304004
10.544921158782545,-0.09614424441253165
10.578291162449577,-0.12463024566190864
10.611661166116612,-0.13388250426854525
10.645031169783644,-0.1164784609376109
10.678401173450677,-0.08002412423635154
10.711771177117711,-0.04569512843923163
10.745141180784744,-0.03812323840786757
10.778511184451778,-0.07177377905711221
10.81188118811881,-0.14132312954257248
10.845251191785845,-0.22162519605033987
10.878621195452878,-0.27778397030674956
10.911991199119912,-0.28057162303373717
10.945361202786945,-0.2198343461935182
10.978731206453979,-0.10975192440214432
11.012101210121012,0.0161716687341379
11.045471213788044,0.11799049956307715
11.078841217455079,0.16472222931876376
11.112211221122111,0.14643172080343386
11.145581224789145,0.0787670786774222
11.178951228456178,-0.0015256450025870525
11.212321232123212,-0.04867916499299681
11.245691235790245,-0.023784013082927442
11.27906123945728,0.09064626501785898
11.312431243124312,0.2824317280657253
11.345801246791344,0.5110550099202065
11.379171250458379,0.7186914430168498
11.412541254125411,0.8475544279849715
11.445911257792446,0.8576684968601365
11.479281261459478,0.7388718938753052
11.512651265126513,0.5130032989838684
11.546021268793545,0.22597252927723682
11.57939127246058,-0.06687574006057738
11.612761276127612,-0.31659669665614387
11.646131279794645,-0.4924236047608273
11.67950128346168,-0.5864554627268116
11.712871287128712,-0.611195606769971
11.746241290795746,-0.5922410533143126
11.779611294462779,-0.5592950561407437
11.812981298129813,-0.5380650303318124
11.846351301796846,-0.5443010242636579
11.87972130546388,-0.5802600620035931
11.913091309130913,-0.633803404562443
11.946461312797945,-0.6807886403567479
11.97983131646498,-0.6914034537347343
12.013201320132012,-0.6398469489687683
12.046571323799046,-0.5146306057219995
12.079941327466079,-0.3251718162946595
12.113311331133113,-0.100825383137075
12.146681334800146,0.11856398978110651
12.18005133846718,0.29736759435100973
12.213421342134213,0.4178486765493702
12.246791345801245,0.4864145793193437
12.28016134946828,0.5292343617892429
12.313531353135312,0.5789891687590594
12.346901356802347,0.6587802805660781
12.38027136046938,0.7705804883937795
12.413641364136414,0.8933986187996212
12.447011367803446,0.9916914531592588
12.48038137147048,1.0298434180824498
12.513751375137513,0.9860089961564452
12.547121378804546,0.859334787597641
12.58049138247158,0.667994924545528
12.613861386138613,0.4398384818293731
12.647231389805647,0.20070582800333575
12.68060139347268,-0.03383192365772185
12.713971397139714,-0.25965978840120024
12.747341400806746,-0.4783964980538235
12.78071140447378,-0.6885219836237196
12.814081408140813,-0.8786633820221803
12.847451411807846,-1.0270890319270016
12.88082141547488,-1.1081028989828916
12.914191419141913,-1.1023695593298648
12.947561422808947,-1.0061314315333385
12.98093142647598,-0.8348065426382797
13.014301430143014,-0.6191977738980378
13.047671433810047,-0.3960248992641927
13.081041437477081,-0.19696766797156007
13.114411441144114,-0.04076343810183252
13.147781444811146,0.06887930510152714
13.18115144847818,0.13970484060587218
13.214521452145213,0.1843767969296807
13.247891455812248,0.21463311137988145
13.28126145947928,0.23872591695232595
13.314631463146315,0.2623925041201892
13.348001466813347,0.2913373332438915
13.381371470480381,0.3323505734804566
13.414741474147414,0.3912703370465983
13.448111477814447,0.4683984970854077
13.481481481481481,0.5542298601540607
13.514851485148514,0.6289319762056015
13.548221488815548,0.6673070666023108
13.58159149248258,0.6478019394985609
13.614961496149615,0.5614120347972061
13.648331499816647,0.41587289003497496
13.681701503483682,0.2328247710327326
13.715071507150714,0.039398396232965524
13.748441510817747,-0.14133574264911528
13.781811514484781,-0.29615993529109075
13.815181518151814,-0.42119592757464913
13.848551521818848,-0.516340509258607
13.88192152548588,-0.5790010085847267
13.915291529152915,-0.6020145898623165
13.948661532819948,-0.578043279958832
13.982031536486982,-0.5082468666908645
14.015401540154015,-0.4092946293302002
14.048771543821047,-0.3124624828742047
14.082141547488082,-0.25254459586282185
14.115511551155114,-0.25065121342772145
14.148881554822148,-0.29980867002215117
14.182251558489181,-0.36227101316895016
14.215621562156215,-0.3820545653005992
14.248991565823248,-0.3082121716651567
14.282361569490282,-0.1182827057532278
14.315731573157315,0.16928684529784696
14.349101576824348,0.4996966809460283
14.382471580491382,0.8010263647717961
14.415841584158414,1.0090999824840967
14.449211587825449,1.087158136165964
14.482581591492481,1.0331595721531819
14.515951595159516,0.8740837718147634
14.549321598826548,0.6522993517533211
14.582691602493583,0.41120414548398865
14.616061606160615,0.18560544063603385
14.649431609827648,-0.0015386433631513954
14.682801613494682,-0.13788762253330303
14.716171617161715,-0.21931100337440765
14.749541620828749,-0.2487864412126096
14.782911624495782,-0.23697003847363665
14.816281628162816,-0.20284671034746166
14.849651631829849,-0.17220172630957242
14.883021635496883,-0.17263254487910834
14.916391639163916,-0.2258761643942305
14.94976164283095,-0.3401392609090861
14.983131646497982,-0.5056833402974887
15.016501650165015,-0.6957234759224533
15.04987165383205,-0.8724397715260127
15.083241657499082,-0.9959131333039618
15.116611661166116,-1.0331290467328686
15.149981664833149,-0.9649027973629631
15.183351668500183,-0.7898133967368203
15.216721672167216,-0.525010926612848
15.25009167583425,-0.20380982661919725
15.283461679501283,0.13010866404529345
15.316831683168315,0.43149619412361284
15.35020168683535,0.6636148682678624
15.383571690502382,0.8065771240778273
15.416941694169417,0.8608106876925387
15.45031169783645,0.8440650884638353
15.483681701503484,0.7830309415998273
15.517051705170516,0.7030605875968637
15.55042170883755,0.6203483182504929
15.583791712504583,0.5397096301476964
15.617161716171616,0.4583282864636253
15.65053171983865,0.37287963409571157
15.683901723505683,0.28579517182371994
15.717271727172717,0.20698384211932766
15.75064173083975,0.14984294446139973
15.784011734506784,0.12361146832621879
15.817381738173816,0.12633455910053437
15.85075174184085,0.14264659196236606
15.884121745507883,0.14814167649045118
15.917491749174916,0.11853083666910233
15.95086175284195,0.03908807769801173
15.984231756508983,-0.090300952330038
16.017601760176017,-0.25662979984441053
16.05097176384305,-0.4401311134724627
16.084341767510082,-0.6211136699685562
16.117711771177117,-0.7830402364051636
16.15108177484415,-0.9106447817047664
16.184451778511182,-0.9858957621080976
16.217821782178216,-0.9868781564375698
16.25119178584525,-0.8933588559966006
16.284561789512285,-0.6982790679000905
16.317931793179316,-0.41931680608973404
16.35130179684635,-0.10247498440527832
16.384671800513384,0.18752442885872947
16.41804180418042,0.3883896352182229
16.45141180784745,0.464200043454223
16.484781811514484,0.4204825055306653
16.51815181518152,0.3022335649938039
16.55152181884855,0.17494087002071904
16.584891822515583,0.09718905590733765
16.618261826182618,0.09757453392929276
16.651631829849652,0.1662488964409958
16.685001833516683,0.26396153437388487
16.718371837183717,0.3430920417360625
16.75174184085075,0.37013947267427877
16.785111844517782,0.33959393612261407
16.818481848184817,0.27413669089783854
16.85185185185185,0.21266487439822837
16.885221855518886,0.19250605413361974
16.918591859185916,0.23360853640861862
16.95196186285295,0.330600928582481
16.985331866519985,0.45484315542397386
17.01870187018702,0.564699716823631
17.05207187385405,0.6196066758638372
17.085441877521085,0.5927235756681511
17.11881188118812,0.478015396910428
17.15218188485515,0.2899299659894636
17.185551888522184,0.056570610766556076
17.21892189218922,-0.19047515731655143
17.252291895856253,-0.4254235018378314
17.285661899523284,-0.6330074757326587
17.319031903190318,-0.8070177081312107
