Time (s),Filtered Signal
0.0,-0.04788042319470994
0.03337004405286344,-0.5549333492199983
0.06674008810572687,-1.0062261659467049
0.10011013215859031,-1.3706422622352137
0.13348017621145375,-1.6502257118803711
0.16685022026431717,-1.871712962385081
0.20022026431718062,-2.0641330192248177
0.23359030837004408,-2.234731193726804
0.2669603524229075,-2.3565077235549876
0.3003303964757709,-2.3747546991239474
0.33370044052863435,-2.2305226473015765
0.3670704845814978,-1.8907622373704085
0.40044052863436125,-1.3715438739427788
0.43381057268722467,-0.743301883199941
0.46718061674008815,-0.11423822951740398
0.5005506607929515,0.4028693254838287
0.533920704845815,0.7277098191077637
0.5672907488986785,0.8381478502255846
0.6006607929515418,0.7738190224525461
0.6340308370044053,0.6166342980026046
0.6674008810572687,0.4577600172364297
0.7007709251101322,0.36636705858031504
0.7341409691629956,0.3731960753334737
0.767511013215859,0.47309590692099096
0.8008810572687225,0.6403567618379539
0.834251101321586,0.8449100507898644
0.8676211453744493,1.0595089305532428
0.9009911894273128,1.2561766190700887
0.9343612334801763,1.3989359235070804
0.9677312775330397,1.4431497377837454
1.001101321585903,1.3473188108907672
1.0344713656387665,1.0937971424393809
1.06784140969163,0.7069118897509827
1.1012114537444935,0.2559000813169235
1.134581497797357,-0.1630514253007206
1.1679515418502202,-0.4604270806329247
1.2013215859030837,-0.5885315285262845
1.2346916299559472,-0.5619060200259696
1.2680616740088106,-0.45244554728707836
1.3014317180616741,-0.3595391248170586
1.3348017621145374,-0.3668607225626841
1.3681718061674009,-0.5041753477521372
1.4015418502202643,-0.7313921136307401
1.4349118942731278,-0.953035140445365
1.4682819383259913,-1.0579886079802214
1.5016519823788548,-0.9678376065713283
1.535022026431718,-0.6728724158362457
1.5683920704845815,-0.24002225403901262
1.601762114537445,0.21065042995220054
1.6351321585903085,0.5504624609555423
1.668502202643172,0.6884750159734783
1.7018722466960352,0.6009708575730244
1.7352422907488987,0.33418447227726267
1.7686123348017622,-0.01729888926955074
1.8019823788546256,-0.3447830038347108
1.8353524229074891,-0.5582399002653728
1.8687224669603526,-0.6075130662954136
1.9020925110132159,-0.48860964028078524
1.9354625550660793,-0.23744299445152503
1.9688325991189428,0.08400360270480596
2.002202643171806,0.40432020075006864
2.0355726872246698,0.65874918525267
2.068942731277533,0.8023702420942362
2.1023127753303967,0.8182455964065144
2.13568281938326,0.7184566750575964
2.1690528634361232,0.5371253100059289
2.202422907488987,0.3171217238692518
2.23579295154185,0.09509427716540012
2.269162995594714,-0.10920753879630171
2.302533039647577,-0.2948080675556074
2.3359030837004404,-0.47185010367956526
2.369273127753304,-0.6479885063379374
2.4026431718061674,-0.815317214807378
2.436013215859031,-0.9446179004003986
2.4693832599118943,-0.9911428438025913
2.5027533039647576,-0.9113079739641634
2.5361233480176213,-0.6842076242599354
2.5694933920704845,-0.3282722773557324
2.6028634361233483,0.09597387758179
2.6362334801762115,0.5006674727414946
2.6696035242290748,0.7984348506442321
2.7029735682819385,0.9322729550605166
2.7363436123348017,0.8949490635712148
2.7697136563876654,0.7298164338138708
2.8030837004405287,0.512964273725047
2.8364537444933924,0.3242536422068667
2.8698237885462556,0.21876334858436802
2.903193832599119,0.20933964942886485
2.9365638766519826,0.26621293396962686
2.969933920704846,0.33302133386892574
3.0033039647577096,0.3523406683569157
3.036674008810573,0.290095476711619
3.070044052863436,0.14864021056793983
3.1034140969162998,-0.03678150240027676
3.136784140969163,-0.2157779405644729
3.1701541850220267,-0.3454743183724594
3.20352422907489,-0.4066894701790663
3.2368942731277532,-0.4063108187501628
3.270264317180617,-0.36665211734268516
3.30363436123348,-0.30983729112430536
3.337004405286344,-0.2473331715535109
3.370374449339207,-0.18059741468605658
3.4037444933920704,-0.11115052511635357
3.437114537444934,-0.051890927479278426
3.4704845814977974,-0.030027090378703637
3.503854625550661,-0.07668238210590368
3.5372246696035243,-0.20675002409772383
3.5705947136563876,-0.40020941420774997
3.6039647577092513,-0.5979354702999725
3.6373348017621145,-0.7188046986844693
3.6707048458149782,-0.693107398761852
3.7040748898678415,-0.49651706959674413
3.737444933920705,-0.16620466147414195
3.7708149779735685,0.21113650873533743
3.8041850220264317,0.5346034978942319
3.8375550660792954,0.7299777283877046
3.8709251101321587,0.775455706047497
3.9042951541850224,0.700461774815995
3.9376651982378856,0.5612215496291569
3.971035242290749,0.4091820705671256
4.004405286343612,0.27048640092265974
4.037775330396476,0.14599680219279423
4.0711453744493395,0.02787797174659528
4.104515418502203,-0.08106711417902109
4.137885462555066,-0.159704163828944
4.171255506607929,-0.178512579722245
4.2046255506607935,-0.12120064055552313
4.237995594713657,-0.003744012517255982
4.27136563876652,0.12304301945907613
4.304735682819383,0.1923710823344194
4.3381057268722465,0.1542225816922816
4.371475770925111,0.005346476848691414
4.404845814977974,-0.20055836823722933
4.438215859030837,-0.37061896817955836
4.4715859030837,-0.41265666691382885
4.504955947136564,-0.2792689678378684
4.538325991189428,0.005306962700072374
4.571696035242291,0.34969435793163567
4.605066079295154,0.630518165921061
4.638436123348018,0.7424866887826104
4.671806167400881,0.6404184568213435
4.705176211453745,0.3544473262005966
4.738546255506608,-0.026926433141789025
4.7719162995594715,-0.39581664326833566
4.805286343612335,-0.6663666836122892
4.838656387665198,-0.7999418122526096
4.872026431718062,-0.8055144257850634
4.905396475770925,-0.7199794309913646
4.938766519823789,-0.5825764351859581
4.972136563876652,-0.4184660782107873
5.005506607929515,-0.23884428730698082
5.038876651982379,-0.0535133250529502
5.072246696035243,0.11644715135562164
5.105616740088106,0.23808072497030894
5.138986784140969,0.28143949289019743
5.172356828193832,0.24156469966003255
5.2057268722466965,0.15219627535287786
5.23909691629956,0.07875918515338777
5.272466960352423,0.0898232584084362
5.305837004405286,0.21986760507414058
5.3392070484581495,0.443535538671625
5.372577092511014,0.6776955108328473
5.405947136563877,0.8138347427793649
5.43931718061674,0.7667779446394655
5.4726872246696034,0.5158182193795902
5.506057268722468,0.11728581588620847
5.539427312775331,-0.31770145674606254
5.572797356828194,-0.6683622805312038
5.606167400881057,-0.8493010176229483
5.639537444933921,-0.8349375388039835
5.672907488986785,-0.6562397122259994
5.706277533039648,-0.3780197482765936
5.739647577092511,-0.07267663906857093
5.7730176211453745,0.19730655178039438
5.806387665198238,0.38603068294242193
5.839757709251102,0.466201198659863
5.873127753303965,0.432972585839686
5.9064977973568284,0.3093413368181322
5.939867841409692,0.14585629817045245
5.973237885462555,0.007291746066453809
6.006607929515419,-0.05293090650376561
6.039977973568282,-0.01905164817971456
6.073348017621146,0.07617123136465284
6.106718061674009,0.16581791836895077
6.140088105726872,0.18351674937946638
6.173458149779736,0.1001411965662011
6.2068281938325995,-0.058771144884253564
6.240198237885463,-0.2256081057004258
6.273568281938326,-0.32631253441032576
6.306938325991189,-0.3185758518999376
6.3403083700440535,-0.21142141492636718
6.373678414096917,-0.057070795899737826
6.40704845814978,0.07754519296414317
6.440418502202643,0.14193678782394503
6.4737885462555065,0.11952042417877444
6.507158590308371,0.02558034509320794
6.540528634361234,-0.10820537669279451
6.573898678414097,-0.25066888644926144
6.60726872246696,-0.3797857329872125
6.640638766519824,-0.48078551814754406
6.674008810572688,-0.538692571363085
6.707378854625551,-0.5331937639344737
6.740748898678414,-0.44156120125513415
6.774118942731278,-0.24993326815227596
6.807488986784141,0.03236667913704321
6.840859030837005,0.36381636719992533
6.874229074889868,0.6741874310009883
6.9075991189427315,0.8826777277489315
6.940969162995595,0.9258543817787108
6.974339207048458,0.7848338985195533
7.007709251101322,0.49944420078769625
7.041079295154185,0.16078996848669302
7.074449339207049,-0.11820111164359988
7.107819383259912,-0.24493523863666922
7.141189427312775,-0.18550369378882445
7.174559471365639,0.018047354736911065
7.207929515418503,0.2615229242922349
7.241299559471366,0.42031254000525226
7.274669603524229,0.40259926448986005
7.308039647577092,0.19079982047159358
7.3414096916299565,-0.14822532963795426
7.37477973568282,-0.4902899623330748
7.408149779735683,-0.7073552573097969
7.441519823788546,-0.7236077563641335
7.47488986784141,-0.5482595711356719
7.508259911894274,-0.26937730756557726
7.541629955947137,-0.011422618982660776
7.575,0.12288981866939058
7.608370044052863,0.09771854461660896
7.641740088105728,-0.04573178853925505
7.675110132158591,-0.2172907111624656
7.708480176211454,-0.32713232611077037
7.741850220264317,-0.3289605370540163
7.775220264317181,-0.2351749843285257
7.808590308370045,-0.09949575952564522
7.841960352422908,0.019112127624763362
7.875330396475771,0.08876473241760119
7.9087004405286345,0.11588702964582244
7.942070484581498,0.13228017634776582
7.975440528634362,0.16913795995157405
8.008810572687224,0.23514913581818922
8.042180616740088,0.31134622104946263
8.075550660792953,0.3642042893460322
8.108920704845815,0.36765801292896255
8.142290748898679,0.3201381038609355
8.175660792951541,0.24633314601901107
8.209030837004406,0.18257790364265963
8.24240088105727,0.1543051296326585
8.275770925110132,0.1587744734095373
8.309140969162996,0.16379961426173914
8.342511013215859,0.12463263759315643
8.375881057268723,0.010887853524942266
8.409251101321587,-0.171101457880711
8.44262114537445,-0.3738875744065072
8.475991189427313,-0.526922803974468
8.509361233480176,-0.5691243611555602
8.54273127753304,-0.47927653036809126
8.576101321585904,-0.2876508622493141
8.609471365638766,-0.061895668974115164
8.64284140969163,0.12564829529579596
8.676211453744493,0.23164228480925642
8.709581497797357,0.2583385218697608
8.742951541850221,0.24459184661773678
8.776321585903084,0.23709573869132453
8.809691629955948,0.2585530633063534
8.84306167400881,0.291148165785555
8.876431718061674,0.2852749735025321
8.909801762114538,0.18947752477950247
8.9431718061674,-0.014539180991477054
8.976541850220265,-0.29150248595371847
9.009911894273127,-0.5592598073309877
9.043281938325991,-0.7209620723077373
9.076651982378856,-0.7078356890089299
9.110022026431718,-0.5121279229700039
9.143392070484582,-0.1945222114800811
9.176762114537445,0.13773487255058034
9.210132158590309,0.37265845673936615
9.243502202643173,0.43754239045062304
9.276872246696035,0.32683674449358235
9.3102422907489,0.10264170946865343
9.343612334801762,-0.13176146767787114
9.376982378854626,-0.27354248425714356
9.41035242290749,-0.2592284731206862
9.443722466960352,-0.08517499516548992
9.477092511013216,0.19666075894002882
9.510462555066079,0.5022520483576924
9.543832599118943,0.7454920908471753
9.577202643171807,0.8621382569604322
9.61057268722467,0.8217388653359106
9.643942731277534,0.6289304808617328
9.677312775330396,0.31882695103744163
9.71068281938326,-0.05034535460798198
9.744052863436124,-0.40757511701023963
9.777422907488987,-0.6837344713237353
9.81079295154185,-0.8294066059160969
9.844162995594713,-0.8303662573088643
9.877533039647577,-0.7129216418514293
9.910903083700441,-0.5338738072158719
9.944273127753304,-0.35689161748699977
9.977643171806168,-0.22501031800741284
10.01101321585903,-0.1427795520714722
10.044383259911895,-0.07812268865181642
10.077753303964759,0.01580483013462222
10.111123348017621,0.1694910801601323
10.144493392070485,0.3733303439032419
10.177863436123348,0.574969461689106
10.211233480176212,0.7007752610088466
10.244603524229076,0.6916387072751817
10.277973568281938,0.5351845005641129
10.311343612334802,0.2774341865847113
10.344713656387665,0.0067991262097224885
10.378083700440529,-0.18294359092086598
10.411453744493393,-0.23335950357011187
10.444823788546255,-0.1463795693177545
10.47819383259912,0.018038790409091666
10.511563876651982,0.16989190954248984
10.544933920704846,0.22893524513837007
10.57830396475771,0.15779734480146285
10.611674008810573,-0.02559495353474858
10.645044052863437,-0.25967849677452104
10.678414096916299,-0.46753129109968916
10.711784140969163,-0.5881513080535569
10.745154185022027,-0.5975881315064581
10.77852422907489,-0.512525419227259
10.811894273127754,-0.3768623038812452
10.845264317180618,-0.23878064050105
10.87863436123348,-0.1292780132651699
10.912004405286345,-0.05194622106428069
10.945374449339207,0.011772563213123968
10.978744493392071,0.08530876240636373
11.012114537444935,0.17743781525823976
11.045484581497798,0.2719117990165588
11.078854625550662,0.3333003426622832
11.112224669603524,0.3273670221309721
11.145594713656388,0.2454426294661631
11.178964757709252,0.11825087224859247
11.212334801762115,0.008582562181052694
11.245704845814979,-0.016928369504194855
11.279074889867841,0.075785719921432
11.312444933920705,0.26323810778371864
11.34581497797357,0.4667640168854229
11.379185022026432,0.5846429526329059
11.412555066079296,0.5397937506189561
11.445925110132158,0.31901952116177895
11.479295154185023,-0.016891345144393475
11.512665198237887,-0.3577732503346757
11.546035242290749,-0.5908138495657936
11.579405286343613,-0.6462069977508001
11.612775330396476,-0.5209783100901754
11.64614537444934,-0.27307398939769223
11.679515418502204,0.007347604556287112
11.712885462555066,0.23380043968694014
11.74625550660793,0.35144719501176297
11.779625550660793,0.3490250894742431
11.812995594713657,0.2544753067999356
11.846365638766521,0.11901396325797357
11.879735682819383,-0.0038986005411248193
11.913105726872248,-0.07802806637432312
11.94647577092511,-0.09591982714262655
11.979845814977974,-0.07794592523422485
12.013215859030838,-0.05871696726687719
12.0465859030837,-0.0668850235468286
12.079955947136565,-0.10864966982169467
12.113325991189427,-0.16420267473706887
12.146696035242291,-0.1996138359973649
12.180066079295155,-0.1878795014748527
12.213436123348018,-0.12723383070058805
12.246806167400882,-0.0458040328344489
12.280176211453744,0.011088188351307317
12.313546255506608,0.005056550185434687
12.346916299559473,-0.07256726089974098
12.380286343612335,-0.19232384599395064
12.413656387665199,-0.2986505418411442
12.447026431718061,-0.33740832231439105
12.480396475770926,-0.28473330230457444
12.51376651982379,-0.16107355389386147
12.547136563876652,-0.021523164113513113
12.580506607929516,0.07342947735128956
12.613876651982379,0.0911839742967793
12.647246696035243,0.045779639649978617
12.680616740088107,-0.008930873952337829
12.71398678414097,-0.008763609002948463
12.747356828193833,0.08420374527082797
12.780726872246696,0.2577304884200703
12.81409691629956,0.4515681368573485
12.847466960352424,0.5854069163740427
12.880837004405286,0.598783917775138
12.91420704845815,0.48266491585602994
12.947577092511013,0.28628057575305904
12.980947136563877,0.09498717810590912
13.014317180616741,-0.010605850647901012
13.047687224669604,0.0056430703308900515
13.081057268722468,0.1166903179383953
13.11442731277533,0.24451354757219373
13.147797356828194,0.29800531739424146
13.181167400881058,0.2183729646055682
13.21453744493392,0.009674529553166288
13.247907488986785,-0.26098287921348995
13.281277533039647,-0.49420934859578636
13.314647577092511,-0.6051158770600907
13.348017621145376,-0.5627911998874765
13.381387665198238,-0.4026212409588667
13.414757709251102,-0.20558042166591645
13.448127753303964,-0.05595820696140185
13.481497797356829,-0.0002557827693093626
13.514867841409693,-0.0287870495850997
13.548237885462555,-0.08839756040988621
13.58160792951542,-0.11720140365864139
13.614977973568282,-0.08053361199246356
13.648348017621146,0.011877000585640462
13.68171806167401,0.11517072849047214
13.715088105726872,0.17684770488558435
13.748458149779736,0.16476047563341886
13.781828193832599,0.08007802550013236
13.815198237885463,-0.04889899720963399
13.848568281938327,-0.18395012359611448
13.88193832599119,-0.29221328446072636
13.915308370044054,-0.3514550111471106
13.948678414096916,-0.3470128291828692
13.98204845814978,-0.26873638024627333
14.015418502202644,-0.11484021003431141
14.048788546255507,0.0982905266448598
14.08215859030837,0.3290419421036836
14.115528634361233,0.5161392051920302
14.148898678414097,0.5997337687676606
14.182268722466961,0.5500080671861134
14.215638766519824,0.38770503480253354
14.249008810572688,0.18229677912800143
14.28237885462555,0.02415325828158925
14.315748898678414,-0.01825220920705247
14.349118942731279,0.06524945548024977
14.382488986784141,0.21700912151607724
14.415859030837005,0.33655905196769076
14.449229074889868,0.32919438829255765
14.482599118942732,0.15357637139333663
14.515969162995596,-0.15645654789501554
14.549339207048458,-0.5069316589033493
14.582709251101322,-0.7868863147360361
14.616079295154185,-0.9164777121340681
14.649449339207049,-0.8758256428789732
14.682819383259913,-0.7023676649622649
14.716189427312775,-0.4621900416062368
14.74955947136564,-0.21413661271277828
14.782929515418502,0.012597675226067879
14.816299559471366,0.21675419444373345
14.84966960352423,0.4043548546597783
14.883039647577093,0.5661693793302269
14.916409691629957,0.6708971420767261
14.94977973568282,0.6804196422696221
14.983149779735683,0.5777565695929603
15.016519823788547,0.38852342136971885
15.04988986784141,0.17938757677593775
15.083259911894274,0.03079294685973744
15.116629955947138,-0.0025306637056773445
15.15,0.0787309970399076
15.183370044052865,0.21591629096314316
15.216740088105727,0.3193399352095547
15.250110132158591,0.3109175306684711
15.283480176211455,0.1606782565144317
15.316850220264318,-0.10027471095012752
15.350220264317182,-0.39465819621840853
15.383590308370044,-0.6322719105016767
15.416960352422908,-0.7450643484948638
15.450330396475772,-0.7094445638821041
15.483700440528635,-0.5494042228502837
15.517070484581499,-0.3228717675717202
15.550440528634361,-0.09914527789521223
15.583810572687225,0.06388398531306023
15.61718061674009,0.13623485496930152
15.650550660792952,0.12259726289173228
15.683920704845816,0.05825277935138555
15.717290748898678,-0.005062487515697393
15.750660792951543,-0.02018226780418333
15.784030837004407,0.03393639663340971
15.817400881057269,0.13905196989213023
15.850770925110133,0.2411150446855769
15.884140969162996,0.2728837869369193
15.91751101321586,0.18851917728640397
15.950881057268724,-0.005820349461119135
15.984251101321586,-0.24318779203105148
16.01762114537445,-0.41815741821945773
16.050991189427315,-0.4335475570538831
16.084361233480177,-0.24990236786860145
16.11773127753304,0.08846927950860979
16.151101321585905,0.46704760314158644
16.184471365638768,0.7501469015447156
16.21784140969163,0.8419376039727035
16.251211453744492,0.7286183116084943
16.284581497797358,0.4802781096388805
16.31795154185022,0.2120549535866422
16.351321585903083,0.02536255798655114
16.38469162995595,-0.040251857819314035
16.41806167400881,-0.02062630002388597
16.451431718061674,-0.0007900734000628294
16.48480176211454,-0.06466819375766258
16.518171806167402,-0.24773300791168515
16.551541850220264,-0.5163421432944261
16.584911894273127,-0.7822677299869043
16.618281938325993,-0.9427847924978888
16.651651982378855,-0.9253567385474191
16.685022026431717,-0.7163872912733101
16.718392070484583,-0.36376114792938463
16.751762114537446,0.04379563261953265
16.785132158590308,0.4082779276535424
16.818502202643174,0.6511008222370763
16.851872246696036,0.7301396761067764
16.8852422907489,0.6434746977225604
16.91861233480176,0.4232507157754548
16.951982378854627,0.12439709556653843
16.98535242290749,-0.1881279974676961
17.01872246696035,-0.4512519614381474
17.052092511013218,-0.6133139619011844
17.08546255506608,-0.6404827343889186
17.118832599118942,-0.5206937705058302
17.152202643171808,-0.2666461720744407
17.18557268722467,0.08166021384574458
17.218942731277533,0.457374170684856
17.2523127753304,0.7751727258368948
17.28568281938326,0.9509985938989456
