Time (s),Filtered Signal
0.0,-0.11156806743134132
0.033370165745856356,-0.3502712068280719
0.06674033149171271,-0.5306290738184338
0.10011049723756907,-0.6138541004285506
0.13348066298342542,-0.5897190027369581
0.16685082872928178,-0.476714932014556
0.20022099447513814,-0.3126346220383772
0.2335911602209945,-0.14037727652282958
0.26696132596685085,0.005105714028141176
0.30033149171270723,0.10443619081460655
0.33370165745856356,0.15478651781057723
0.3670718232044199,0.16573841194299052
0.4004419889502763,0.15285606973729152
0.43381215469613266,0.1316137514859711
0.467182320441989,0.11331265977770019
0.5005524861878453,0.10353442637499441
0.5339226519337017,0.10285511598239445
0.5672928176795581,0.10899445978799609
0.6006629834254145,0.1192634277397272
0.6340331491712707,0.13218250792018948
0.6674033149171271,0.1475833644798906
0.7007734806629835,0.1653062934590002
0.7341436464088398,0.18342357128144385
0.7675138121546962,0.19729347316636756
0.8008839779005525,0.20039888433200168
0.8342541436464089,0.1869642858339516
0.8676243093922653,0.15526354727528863
0.9009944751381216,0.10992919165117204
0.934364640883978,0.06183249237758684
0.9677348066298344,0.02515341308222032
1.0011049723756906,0.01257767813230098
1.0344751381215471,0.03044200852658614
1.0678453038674034,0.07564763497643981
1.1012154696132597,0.13537954655045967
1.1345856353591162,0.18965553323909753
1.1679558011049724,0.21602821237976164
1.201325966850829,0.1954975927060226
1.2346961325966852,0.11856449694309928
1.2680662983425415,-0.009947669142034321
1.301436464088398,-0.16906320986135498
1.3348066298342542,-0.3245159006800488
1.3681767955801105,-0.43693624252868796
1.401546961325967,-0.4739220410172173
1.4349171270718233,-0.42226083846636064
1.4682872928176796,-0.29535418939457847
1.501657458563536,-0.13178093900961707
1.5350276243093923,0.01598136034344854
1.5683977900552488,0.0994686958473593
1.601767955801105,0.09215055415551968
1.6351381215469614,-9.95249537894267e-05
1.6685082872928179,-0.1408929043014762
1.7018784530386741,-0.2773817544334691
1.7352486187845306,-0.3608758213894034
1.768618784530387,-0.3653288092209597
1.8019889502762432,-0.29589047982016303
1.8353591160220997,-0.18426669544542343
1.868729281767956,-0.07363455773488878
1.9020994475138122,-0.0003657957019805728
1.9354696132596687,0.019320140376445194
1.968839779005525,-0.007378666365830587
2.0022099447513813,-0.05675492286166499
2.0355801104972375,-0.10124255116863445
2.0689502762430942,-0.1214530788229709
2.1023204419889505,-0.11244980267760983
2.135690607734807,-0.0824278859989096
2.169060773480663,-0.045569300379496254
2.2024309392265193,-0.013114444109231436
2.235801104972376,0.013068374769134201
2.2691712707182323,0.04164544973930004
2.3025414364640886,0.0873398470812283
2.335911602209945,0.16278598992998333
2.369281767955801,0.2702478211911895
2.402651933701658,0.39702262667857413
2.436022099447514,0.5171704810428335
2.4693922651933704,0.5997634498396123
2.5027624309392267,0.6209164711814265
2.536132596685083,0.5746915491720047
2.5695027624309392,0.4777772757302494
2.602872928176796,0.3650976534877694
2.636243093922652,0.277416001555445
2.6696132596685085,0.2457574818595812
2.7029834254143648,0.2791623473043828
2.736353591160221,0.36099239840471065
2.7697237569060777,0.45536898695883055
2.803093922651934,0.5210739512635186
2.8364640883977903,0.5272805490959573
2.8698342541436466,0.4649199273725397
2.903204419889503,0.34933752404255125
2.936574585635359,0.21325993957924083
2.969944751381216,0.09269046093920437
3.003314917127072,0.011005940184280931
3.0366850828729284,-0.032532206415537834
3.0700552486187846,-0.06473188259033064
3.103425414364641,-0.12879408060173012
3.1367955801104976,-0.2653036998785883
3.170165745856354,-0.49074620222335047
3.20353591160221,-0.7833027074266221
3.2369060773480665,-1.0849049892704203
3.2702762430939227,-1.3230021730245725
3.3036464088397794,-1.446219878466742
3.3370165745856357,-1.458700295425752
3.370386740331492,-1.4336287262228458
3.4037569060773483,-1.4915831355192113
3.4371270718232045,-1.7442159858186257
3.4704972375690613,-2.223042881177846
3.5038674033149175,-2.8270827107219296
3.537237569060774,-3.3223140528730393
3.57060773480663,-3.406992224778414
3.6039779005524863,-2.826136567155189
3.6373480662983426,-1.4904879316070923
3.6707182320441993,0.4542854847813284
3.7040883977900556,2.645601303935249
3.737458563535912,4.609626190058197
3.770828729281768,5.915431737160246
3.8041988950276244,6.316227313334597
3.837569060773481,5.822087445709612
3.8709392265193374,4.678619625057221
3.9043093922651937,3.2650440510595575
3.93767955801105,1.9556340875555136
3.9710497237569062,0.9988331692182109
4.0044198895027625,0.45673760877666286
4.037790055248619,0.2207780372840563
4.071160220994475,0.08897733961256
4.104530386740332,-0.1320213118966
4.1379005524861885,-0.5429901928316045
4.171270718232044,-1.1177235952434241
4.204640883977901,-1.7267501467625106
4.238011049723757,-2.2031592060639316
4.271381215469614,-2.418629372840985
4.30475138121547,-2.336431810358299
4.338121546961326,-2.0209901603464715
4.371491712707183,-1.604062932151688
4.404861878453039,-1.2263745052932902
4.438232044198895,-0.9824194211383316
4.471602209944752,-0.8919185685104154
4.504972375690608,-0.9069400183896377
4.538342541436465,-0.9465467454631118
4.5717127071823205,-0.939300672928369
4.605082872928177,-0.8529748922940162
4.638453038674034,-0.6997602754082893
4.67182320441989,-0.5186828342738928
4.7051933701657465,-0.3478459111777868
4.738563535911602,-0.20245373198850594
4.771933701657459,-0.06955847633438039
4.805303867403316,0.07952968597386555
4.8386740331491715,0.26770854071694816
4.872044198895028,0.49415081563282365
4.905414364640884,0.7298889656405874
4.938784530386741,0.929026167236409
4.972154696132597,1.0492809017513656
5.005524861878453,1.0709847687556504
5.03889502762431,1.005023230179427
5.072265193370166,0.8864287656415794
5.105635359116023,0.757799838072007
5.1390055248618784,0.6514122705239165
5.172375690607735,0.5786056519273594
5.205745856353592,0.5304126555658689
5.239116022099448,0.48731745736296705
5.272486187845304,0.4318009870494246
5.30585635359116,0.35693530076295543
5.339226519337017,0.2674631710061822
5.372596685082874,0.174399330941888
5.4059668508287295,0.08753915924644018
5.439337016574586,0.010670901443840659
5.472707182320442,-0.05810682159675637
5.506077348066299,-0.12207211860889908
5.5394475138121555,-0.18116285561230647
5.572817679558011,-0.23050206008312593
5.606187845303868,-0.2634966517349839
5.639558011049724,-0.27758615414795085
5.672928176795581,-0.27855828943089855
5.706298342541437,-0.27977047277065975
5.739668508287293,-0.29559883730839137
5.77303867403315,-0.33229311308778703
5.806408839779006,-0.38170276203837994
5.839779005524862,-0.42238263179387914
5.873149171270718,-0.4286524677603777
5.906519337016575,-0.38346592672022234
5.939889502762432,-0.28828765668999695
5.9732596685082875,-0.16434315546688652
6.006629834254144,-0.04413778679089303
6.04,0.0424817696546703
6.073370165745857,0.0803975209363068
6.1067403314917135,0.07326176788273737
6.140110497237569,0.038090647331488973
6.173480662983426,-0.005575499003559715
6.206850828729282,-0.045121831556400906
6.240220994475139,-0.07755907960028485
6.273591160220995,-0.10479878398313369
6.306961325966851,-0.12570998787218762
6.340331491712708,-0.1311817730548261
6.373701657458564,-0.10636359294116958
6.40707182320442,-0.039464668285056126
6.440441988950277,0.06803576568299248
6.473812154696133,0.19636485005632587
6.50718232044199,0.3116478403439424
6.5405524861878455,0.37824768894289695
6.573922651933702,0.37354972388711244
6.607292817679559,0.2979694904586069
6.640662983425415,0.1753179023015601
6.674033149171271,0.04343988974862522
6.707403314917127,-0.06038341008433056
6.740773480662984,-0.1126738263468677
6.774143646408841,-0.1101855680679075
6.8075138121546965,-0.0675992732230573
6.840883977900553,-0.00858743582959483
6.874254143646409,0.044997632203382744
6.907624309392266,0.0808666135818361
6.9409944751381225,0.09810562081173717
6.974364640883978,0.10334446539547575
7.007734806629835,0.10415991820591078
7.041104972375691,0.10345313609289179
7.074475138121548,0.09750137688118397
7.107845303867403,0.07825621470897882
7.14121546961326,0.03842757749145707
7.174585635359117,-0.02319323781283078
7.207955801104973,-0.0986519064190961
7.241325966850829,-0.17152146705675023
7.274696132596685,-0.22147724707980823
7.308066298342542,-0.23138401333380793
7.341436464088399,-0.19438709276561136
7.3748066298342545,-0.1181379473274781
7.408176795580111,-0.023987682562043762
7.441546961325967,0.05929715282274439
7.474917127071824,0.10549820873621836
7.5082872928176805,0.1009090674557305
7.541657458563536,0.05008590367507837
7.575027624309393,-0.025451885329273633
7.608397790055249,-0.09547670072295363
7.641767955801106,-0.13299156226050365
7.675138121546962,-0.12478981908154266
7.708508287292818,-0.076159934273812
7.741878453038675,-0.007943708828536997
7.775248618784531,0.0524592117904998
7.808618784530387,0.08213657650687783
7.841988950276244,0.07131618638905847
7.8753591160221,0.026595557517480953
7.908729281767957,-0.031972997900745946
7.9420994475138125,-0.07851717802803364
7.975469613259669,-0.0908973454037019
8.008839779005525,-0.058900898126509754
8.042209944751383,0.011775901766472422
8.075580110497238,0.10128151789402506
8.108950276243094,0.18257580989821
8.14232044198895,0.2310089856026757
8.175690607734808,0.23279520940876083
8.209060773480664,0.1891825219414155
8.24243093922652,0.1150632781940885
8.275801104972377,0.033089364071245034
8.309171270718233,-0.034127909829244414
8.342541436464089,-0.07097706561863942
8.375911602209946,-0.07303292430105976
8.409281767955802,-0.04762433699513272
8.442651933701658,-0.010829318908290104
8.476022099447514,0.01829450628777829
8.509392265193371,0.024602171985138876
8.542762430939227,0.002508367227906593
8.576132596685083,-0.04198339427729788
8.60950276243094,-0.09402504527148565
8.642872928176796,-0.13642396084927955
8.676243093922652,-0.15688110063592253
8.709613259668508,-0.15243578779761258
8.742983425414366,-0.1290568143769239
8.776353591160222,-0.09698288600879905
8.809723756906077,-0.06467876577900689
8.843093922651935,-0.03482964363593127
8.87646408839779,-0.004434409049991141
8.909834254143647,0.031332607096996916
8.943204419889504,0.0738935566911968
8.97657458563536,0.11777652997253449
9.009944751381216,0.15102189416376122
9.043314917127072,0.15960592178500146
9.07668508287293,0.13391753170415435
9.110055248618785,0.07420112611733495
9.143425414364641,-0.007782324679136958
9.176795580110499,-0.09199645728700315
9.210165745856354,-0.1571846259031583
9.24353591160221,-0.18880966009054848
9.276906077348068,-0.18434060709388222
9.310276243093924,-0.1533897237556228
9.34364640883978,-0.11254989918732282
9.377016574585635,-0.0773429612761826
9.410386740331493,-0.05513355253891746
9.443756906077349,-0.04239825433965394
9.477127071823205,-0.027594088331321213
9.510497237569062,0.0018597668432762911
9.543867403314918,0.051959594266419516
9.577237569060774,0.11765905160250248
9.610607734806631,0.18391560662237097
9.643977900552487,0.23196026750210721
9.677348066298343,0.24791360958830944
9.710718232044199,0.2295630268388183
9.744088397790057,0.18784690507689036
9.777458563535912,0.1421334032934073
9.810828729281768,0.11150277595503603
9.844198895027626,0.10627737714338996
9.877569060773482,0.12384052766599443
9.910939226519337,0.15045232136259595
9.944309392265193,0.16766323795500165
9.97767955801105,0.15981871727517888
10.011049723756907,0.11913420941433533
10.044419889502763,0.04669052255821262
10.07779005524862,-0.04984369714409024
10.111160220994476,-0.1594300300909175
10.144530386740332,-0.26969176304748865
10.17790055248619,-0.36721761014618454
10.211270718232045,-0.43737316634309137
10.244640883977901,-0.46558015912878364
10.278011049723757,-0.4411496971389271
10.311381215469615,-0.362746728609039
10.34475138121547,-0.2426524726179391
10.378121546961326,-0.10651121603210416
10.411491712707184,0.01316511912186504
10.44486187845304,0.08834251768634716
10.478232044198895,0.10717175054583263
10.511602209944753,0.08030474233506749
10.544972375690609,0.03771671773256687
10.578342541436465,0.0161177820281416
10.61171270718232,0.04190737971624641
10.645082872928178,0.1176127346968722
10.678453038674034,0.2189197058575925
10.71182320441989,0.3046808109651826
10.745193370165747,0.3358143741293514
10.778563535911603,0.2941774106818015
10.811933701657459,0.192056160455544
10.845303867403315,0.06733604429533258
10.878674033149172,-0.033506091861790724
10.912044198895028,-0.07638215322253131
10.945414364640884,-0.05445574683593055
10.978784530386742,0.009982084632863498
11.012154696132598,0.07695499674457897
11.045524861878453,0.10751184132080736
11.078895027624311,0.0806667436615077
11.112265193370167,0.0011708438743267202
11.145635359116023,-0.10429318075094132
11.179005524861878,-0.19943268637530226
11.212375690607736,-0.25289563900608186
11.245745856353592,-0.24893830122338295
11.279116022099448,-0.19091529782152003
11.312486187845305,-0.0978438887477922
11.345856353591161,0.0032390308521310063
11.379226519337017,0.08579222351868786
11.412596685082875,0.13066289772302847
11.44596685082873,0.13017799454668666
11.479337016574586,0.08922479900007393
11.512707182320442,0.023499714733599433
11.5460773480663,-0.044781401395171866
11.579447513812156,-0.09309945797313325
11.612817679558011,-0.10545480082946258
11.646187845303869,-0.07772894627864718
11.679558011049725,-0.01941657584613725
11.71292817679558,0.04943494805298372
11.746298342541436,0.10535890663521548
11.779668508287294,0.13008618710202619
11.81303867403315,0.11721548575508359
11.846408839779006,0.07420569154549927
11.879779005524863,0.018907485817539114
11.91314917127072,-0.027863166941315153
11.946519337016575,-0.05060865098422491
11.979889502762433,-0.04492050429117887
12.013259668508288,-0.018463358686611704
12.046629834254144,0.013127063523931835
12.08,0.03364084389222253
12.113370165745858,0.03378081384901571
12.146740331491714,0.015390729491839084
12.18011049723757,-0.009626374648246335
12.213480662983427,-0.02542311513128538
12.246850828729283,-0.020670170326621898
12.280220994475139,0.004674478320106531
12.313591160220996,0.03784906457487815
12.346961325966852,0.058300158084630016
12.380331491712708,0.04735815081254141
12.413701657458564,-0.0018025954355511853
12.447071823204421,-0.07885800101374826
12.480441988950277,-0.1587573922467312
12.513812154696133,-0.21137697633599625
12.54718232044199,-0.2142920770855943
12.580552486187846,-0.1627543660059255
12.613922651933702,-0.07202971851402852
12.64729281767956,0.0291883825342184
12.680662983425416,0.11124896626043469
12.714033149171271,0.15596093266936228
12.747403314917127,0.16306139103966028
12.780773480662985,0.14781843397125566
12.81414364640884,0.131268706853694
12.847513812154697,0.12821600333377084
12.880883977900554,0.13913904329044877
12.91425414364641,0.15008927151644103
12.947624309392266,0.14057449073273967
12.980994475138122,0.09538356208327232
13.01436464088398,0.014301704311446232
13.047734806629835,-0.08536642086230667
13.081104972375691,-0.17510958776989488
13.114475138121549,-0.22771394879286172
13.147845303867404,-0.23015447095162112
13.18121546961326,-0.19054328460868816
13.214585635359118,-0.13529096707642874
13.247955801104974,-0.0971504213813169
13.28132596685083,-0.09931533361508582
13.314696132596685,-0.14303038998896916
13.348066298342543,-0.20497004704035462
13.381436464088399,-0.24634802794346874
13.414806629834255,-0.23025956824809818
13.448176795580112,-0.1396718831057359
13.481546961325968,0.012293388916601426
13.514917127071824,0.1851221508563692
13.548287292817681,0.32641464527657993
13.581657458563537,0.3939495521141869
13.615027624309393,0.37462365773960743
13.648397790055249,0.2913088917534074
13.681767955801106,0.19366312717939693
13.715138121546962,0.13618622649480405
13.748508287292818,0.15299233616982652
13.781878453038676,0.24079705434783522
13.815248618784532,0.35829409936349554
13.848618784530387,0.4428053194833941
13.881988950276245,0.43717861539130676
13.9153591160221,0.31508343734244243
13.948729281767957,0.09340828719870814
13.982099447513813,-0.17378771923415057
14.01546961325967,-0.416975932262918
14.048839779005526,-0.578640277292935
14.082209944751382,-0.6342072662594149
14.11558011049724,-0.5974643403307525
14.148950276243095,-0.5090813897041895
14.182320441988951,-0.41484654136091675
14.215690607734807,-0.3446495236964427
14.249060773480664,-0.3020166238036511
14.28243093922652,-0.26804144848211064
14.315801104972376,-0.21617013841488797
14.349171270718234,-0.1292917635816346
14.38254143646409,-0.01024829691996838
14.415911602209945,0.11903694376733148
14.449281767955803,0.2285278910309061
14.482651933701659,0.2949294370621172
14.516022099447515,0.3127240112707395
14.54939226519337,0.29605667479327546
14.582762430939228,0.27093691244320806
14.616132596685084,0.26201011070196406
14.64950276243094,0.28061225492922254
14.682872928176797,0.3198589745869898
14.716243093922653,0.3587562346455522
14.749613259668509,0.3727724471495865
14.782983425414367,0.345328423710486
14.816353591160222,0.27466383852205456
14.849723756906078,0.1733003520612656
14.883093922651934,0.06119905741927641
14.916464088397792,-0.04335875994763753
14.949834254143648,-0.13051325158039478
14.983204419889503,-0.20026833437821118
15.016574585635361,-0.2586945785733075
15.049944751381217,-0.311595229656486
15.083314917127073,-0.3593701134939328
15.116685082872928,-0.3958359757589907
15.150055248618786,-0.4113940107785241
15.183425414364642,-0.3984903882329638
15.216795580110498,-0.3561327196300039
15.250165745856355,-0.2909293055563126
15.283535911602211,-0.21423110222285452
15.316906077348067,-0.13716854900831307
15.350276243093925,-0.06637572961557793
15.38364640883978,-0.002516753121329878
15.417016574585636,0.05801522814003682
15.450386740331492,0.11951555491363314
15.48375690607735,0.18349762279859005
15.517127071823205,0.24695236907765003
15.550497237569061,0.3029516201107277
15.583867403314919,0.34316568567533784
15.617237569060775,0.36116241706442875
15.65060773480663,0.3551190563407227
15.683977900552488,0.3287977740819249
15.717348066298344,0.29024419646771443
15.7507182320442,0.24853310596442946
15.784088397790056,0.2097617613706024
15.817458563535913,0.1740273995767665
15.85082872928177,0.13498006790700995
15.884198895027625,0.08259397784514502
15.917569060773483,0.008332347468669421
15.950939226519338,-0.08944231727951155
15.984309392265194,-0.2023929081133624
16.01767955801105,-0.3132155256085035
16.051049723756908,-0.40068197661328037
16.084419889502765,-0.44678486189086936
16.11779005524862,-0.4430490762064228
16.151160220994477,-0.3934372373885748
16.18453038674033,-0.3127631124563473
16.21790055248619,-0.22136822401658138
16.251270718232046,-0.13819322990872554
16.2846408839779,-0.07481043997970281
16.318011049723758,-0.032460332797971045
16.351381215469615,-0.002973152670832412
16.38475138121547,0.026896357774588254
16.418121546961327,0.06932310912570343
16.451491712707185,0.12965598760244298
16.48486187845304,0.20315392407204733
16.518232044198896,0.27552542893112686
16.551602209944754,0.32731379583497033
16.584972375690608,0.3407998368221003
16.618342541436466,0.3070697844483613
16.651712707182323,0.2306019040920481
16.685082872928177,0.1293586308917873
16.718453038674035,0.029842978866768056
16.751823204419892,-0.04153322208020721
16.785193370165747,-0.06780521586309891
16.818563535911604,-0.0479561589995362
16.851933701657458,0.002203979116903935
16.885303867403316,0.05547530920578548
16.918674033149173,0.08317299817651763
16.952044198895027,0.06574975501551754
16.985414364640885,1.6969918145122356e-05
17.018784530386743,-0.09976776999599575
17.052154696132597,-0.20714139764115444
17.085524861878454,-0.2926753507481961
17.118895027624312,-0.33352671876691126
17.152265193370166,-0.31994190817080326
17.185635359116024,-0.25699590393688887
17.21900552486188,-0.16181270135550327
