Time (s),Filtered Signal
0.0,-0.10010756705782244
0.03337004405286344,-0.13774270572561348
0.06674008810572687,-0.16512549731150566
0.10011013215859031,-0.17431562906774986
0.13348017621145375,-0.15945895441045638
0.16685022026431717,-0.11955185486475708
0.20022026431718062,-0.060950756096290075
0.23359030837004408,0.0024567997845870264
0.2669603524229075,0.05276488393356169
0.3003303964757709,0.07466329230551598
0.33370044052863435,0.06248579497246403
0.3670704845814978,0.024071974090300197
0.40044052863436125,-0.021209403587595422
0.43381057268722467,-0.050279324347920665
0.46718061674008815,-0.046941367944982305
0.5005506607929515,-0.010336065596268238
0.533920704845815,0.04312808899822403
0.5672907488986785,0.0859057914124648
0.6006607929515418,0.09119198822955127
0.6340308370044053,0.04529528396571227
0.6674008810572687,-0.04521075206559725
0.7007709251101322,-0.15495852155315779
0.7341409691629956,-0.24926036048566322
0.767511013215859,-0.29719834194591466
0.8008810572687225,-0.28228610805981313
0.834251101321586,-0.20598026293172791
0.8676211453744493,-0.0830318323354357
0.9009911894273128,0.06807325630591063
0.9343612334801763,0.2337920792686038
0.9677312775330397,0.4081881969303419
1.001101321585903,0.5881110801533926
1.0344713656387665,0.7641493475217601
1.06784140969163,0.9136990319285188
1.1012114537444935,1.0019625458369423
1.134581497797357,0.9925397345098278
1.1679515418502202,0.8635842279102298
1.2013215859030837,0.621456111773707
1.2346916299559472,0.3039280720342131
1.2680616740088106,-0.03036284896481121
1.3014317180616741,-0.3226081680443824
1.3348017621145374,-0.5355435001082702
1.3681718061674009,-0.6660553501526673
1.4015418502202643,-0.7427447919592047
1.4349118942731278,-0.8097671881080131
1.4682819383259913,-0.9047486462505154
1.5016519823788548,-1.0409153408095755
1.535022026431718,-1.2007339792496219
1.5683920704845815,-1.342238797062193
1.601762114537445,-1.413456783822294
1.6351321585903085,-1.3680639861374557
1.668502202643172,-1.1772562600588228
1.7018722466960352,-0.8366728816995065
1.7352422907488987,-0.36983262252745136
1.7686123348017622,0.1709559505849991
1.8019823788546256,0.7079232520977438
1.8353524229074891,1.1489003578755648
1.8687224669603526,1.4077668338841698
1.9020925110132159,1.4305277965973895
1.9354625550660793,1.2175463391609143
1.9688325991189428,0.8308108538573425
2.002202643171806,0.3798381175843076
2.0355726872246698,-0.010824140271279353
2.068942731277533,-0.24049792812814774
2.1023127753303967,-0.2621547754321851
2.13568281938326,-0.09165837933055253
2.1690528634361232,0.2054274827332287
2.202422907488987,0.5415805456880761
2.23579295154185,0.8366562964054324
2.269162995594714,1.037554885494214
2.302533039647577,1.1236268027286347
2.3359030837004404,1.1005977164851484
2.369273127753304,0.9898001634324053
2.4026431718061674,0.8187406135082084
2.436013215859031,0.6153166677872395
2.4693832599118943,0.40463419586635246
2.5027533039647576,0.20654030265479675
2.5361233480176213,0.03333458556607588
2.5694933920704845,-0.11142472953687818
2.6028634361233483,-0.23220660396205253
2.6362334801762115,-0.33949742202122973
2.6696035242290748,-0.44812381205178664
2.7029735682819385,-0.5767195882836805
2.7363436123348017,-0.7468906249551593
2.7697136563876654,-0.9789832627183593
2.8030837004405287,-1.2823554191695379
2.8364537444933924,-1.64189588190189
2.8698237885462556,-2.0071334676198136
2.903193832599119,-2.29240488464935
2.9365638766519826,-2.393925840527985
2.969933920704846,-2.2224691988236334
3.0033039647577096,-1.7416488282643858
3.036674008810573,-0.9959426934212825
3.070044052863436,-0.11328849067600985
3.1034140969162998,0.7246325040385683
3.136784140969163,1.3380466550644141
3.1701541850220267,1.6115330540969026
3.20352422907489,1.538015130064043
3.2368942731277532,1.2236496765399947
3.270264317180617,0.8478380388346654
3.30363436123348,0.5921104869125663
3.337004405286344,0.5668705273999489
3.370374449339207,0.7678834670422144
3.4037444933920704,1.082343426290696
3.437114537444934,1.3422523063820513
3.4704845814977974,1.4010843476539048
3.503854625550661,1.1989611755115566
3.5372246696035243,0.7872207777810568
3.5705947136563876,0.30260893675146566
3.6039647577092513,-0.09512671992797225
3.6373348017621145,-0.292132975112565
3.6707048458149782,-0.2642674621212683
3.7040748898678415,-0.0778102056888965
3.737444933920705,0.14957342855238326
3.7708149779735685,0.305749017946638
3.8041850220264317,0.3303008036944179
3.8375550660792954,0.22922267805812085
3.8709251101321587,0.05514316859357366
3.9042951541850224,-0.13179688121771208
3.9376651982378856,-0.2985265746634888
3.971035242290749,-0.45002846327098417
4.004405286343612,-0.6127126019675482
4.037775330396476,-0.8025480544918585
4.0711453744493395,-0.9988693609904274
4.104515418502203,-1.1411230311677794
4.137885462555066,-1.1524220960206926
4.171255506607929,-0.9782715121760736
4.2046255506607935,-0.6198140856515721
4.237995594713657,-0.14334857901143222
4.27136563876652,0.33977191694207187
4.304735682819383,0.7134430485230187
4.3381057268722465,0.898091218722639
4.371475770925111,0.8744280117880663
4.404845814977974,0.6812582194223005
4.438215859030837,0.39211713499563744
4.4715859030837,0.08443275604359159
4.504955947136564,-0.1845474232376436
4.538325991189428,-0.3874116451423427
4.571696035242291,-0.5227603957403567
4.605066079295154,-0.6042657049427512
4.638436123348018,-0.6493277217171923
4.671806167400881,-0.6711507982626282
4.705176211453745,-0.6750853764206081
4.738546255506608,-0.6587152773109696
4.7719162995594715,-0.6148742766550016
4.805286343612335,-0.536287334774091
4.838656387665198,-0.41967668276562864
4.872026431718062,-0.26705437682724187
4.905396475770925,-0.08348542208787553
4.938766519823789,0.12673597010148838
4.972136563876652,0.3617509365940059
5.005506607929515,0.6187158100292212
5.038876651982379,0.8858567852732272
5.072246696035243,1.1347082234970551
5.105616740088106,1.3191588179641702
5.138986784140969,1.3856998490862813
5.172356828193832,1.2934308937187764
5.2057268722466965,1.0359387585078772
5.23909691629956,0.6539985984765957
5.272466960352423,0.2305619865249848
5.305837004405286,-0.13295800418503265
5.3392070484581495,-0.35108519289443313
5.372577092511014,-0.38548168815633427
5.405947136563877,-0.2594992346153895
5.43931718061674,-0.04931782968569881
5.4726872246696034,0.14522669860610876
5.506057268722468,0.2384577717321677
5.539427312775331,0.1900929026156901
5.572797356828194,0.017563268957309124
5.606167400881057,-0.21490808217053173
5.639537444933921,-0.4251398679353313
5.672907488986785,-0.5472524728375455
5.706277533039648,-0.557179690093838
5.739647577092511,-0.47949222365467703
5.7730176211453745,-0.3736292450763083
5.806387665198238,-0.30596243578479476
5.839757709251102,-0.31949633419948714
5.873127753303965,-0.41367508424493205
5.9064977973568284,-0.5427577857057917
5.939867841409692,-0.634038521972115
5.973237885462555,-0.6192318832218223
6.006607929515419,-0.46643366255804986
6.039977973568282,-0.19875033710013046
6.073348017621146,0.10977659570165622
6.106718061674009,0.3610471178061797
6.140088105726872,0.47231045083922535
6.173458149779736,0.41127775766203784
6.2068281938325995,0.21101254040158354
6.240198237885463,-0.042821298063794935
6.273568281938326,-0.24744212633516316
6.306938325991189,-0.325948383663433
6.3403083700440535,-0.25917441556720133
6.373678414096917,-0.092595449013218
6.40704845814978,0.08477590333433994
6.440418502202643,0.18065127182883603
6.4737885462555065,0.14187274787107554
6.507158590308371,-0.019259062906462544
6.540528634361234,-0.22667492819598994
6.573898678414097,-0.3706609727312958
6.60726872246696,-0.3544846650710136
6.640638766519824,-0.1376284352982872
6.674008810572688,0.24385240707851563
6.707378854625551,0.6898541474131525
6.740748898678414,1.0767132798924448
6.774118942731278,1.3072460240768968
6.807488986784141,1.3468640474818838
6.840859030837005,1.2289383867376045
6.874229074889868,1.0281400860224856
6.9075991189427315,0.8169961214925747
6.940969162995595,0.6293610062792971
6.974339207048458,0.450030988772275
7.007709251101322,0.2346638608706506
7.041079295154185,-0.05296344600399234
7.074449339207049,-0.4087251303341469
7.107819383259912,-0.7797772185690661
7.141189427312775,-1.0849039626291241
7.174559471365639,-1.252413076229396
7.207929515418503,-1.25531103325694
7.241299559471366,-1.1256131196739967
7.274669603524229,-0.9408184140148015
7.308039647577092,-0.7893157732657491
7.3414096916299565,-0.7310295740460774
7.37477973568282,-0.7711646627307136
7.408149779735683,-0.858601504242261
7.441519823788546,-0.9095028702267428
7.47488986784141,-0.8456448523629897
7.508259911894274,-0.6303668161634217
7.541629955947137,-0.28574937435834685
7.575,0.11723388965066579
7.608370044052863,0.49144452183280785
7.641740088105728,0.7738216815525587
7.675110132158591,0.9532038357536464
7.708480176211454,1.0707280887259958
7.741850220264317,1.1907555116532793
7.775220264317181,1.3555821432539035
7.808590308370045,1.5473387059963704
7.841960352422908,1.6796272752508192
7.875330396475771,1.6286357596750396
7.9087004405286345,1.2937494743361992
7.942070484581498,0.6603609762529034
7.975440528634362,-0.16784879002149516
8.008810572687224,-0.9887491995047021
8.042180616740088,-1.5712223992289076
8.075550660792953,-1.746113680170891
8.108920704845815,-1.4771872085888835
8.142290748898679,-0.8779502542382921
8.175660792951541,-0.165573211665085
8.209030837004406,0.4264881859905719
8.24240088105727,0.7363196410318715
8.275770925110132,0.7228769759659508
8.309140969162996,0.4591353903829075
8.342511013215859,0.07980389935943868
8.375881057268723,-0.28537948932529134
8.409251101321587,-0.5593991856470514
8.44262114537445,-0.7282345791284882
8.475991189427313,-0.8173531332397431
8.509361233480176,-0.8550503023953799
8.54273127753304,-0.846553285418583
8.576101321585904,-0.7724903913168738
8.609471365638766,-0.6088249984478508
8.64284140969163,-0.3525979092549825
8.676211453744493,-0.03559773344492487
8.709581497797357,0.28334520292375415
8.742951541850221,0.5431778895121979
8.776321585903084,0.7079612020860115
8.809691629955948,0.7809208684806322
8.84306167400881,0.7976060043421737
8.876431718061674,0.8028666461314068
8.909801762114538,0.8252963009172631
8.9431718061674,0.8632300284744284
8.976541850220265,0.8886700424798737
9.009911894273127,0.8649043248523957
9.043281938325991,0.7666600130973046
9.076651982378856,0.5919747249713073
9.110022026431718,0.36123158018714846
9.143392070484582,0.10629407696654347
9.176762114537445,-0.14306632867379396
9.210132158590309,-0.36870824269552344
9.243502202643173,-0.566394318486701
9.276872246696035,-0.7413783065250027
9.3102422907489,-0.900233973338399
9.343612334801762,-1.0426355597852963
9.376982378854626,-1.1566077356015385
9.41035242290749,-1.2197910286359512
9.443722466960352,-1.2072234426382351
9.477092511013216,-1.103137340467459
9.510462555066079,-0.9115356917893541
9.543832599118943,-0.6597053163878134
9.577202643171807,-0.3914517152409059
9.61057268722467,-0.15188777379438667
9.643942731277534,0.029546734795142224
9.677312775330396,0.14948674063868156
9.71068281938326,0.22901288088783445
9.744052863436124,0.30072748992498066
9.777422907488987,0.3913488328437053
9.81079295154185,0.5090336141823818
9.844162995594713,0.6418063133963463
9.877533039647577,0.766962254338832
9.910903083700441,0.8649671744779122
9.944273127753304,0.929049995772155
9.977643171806168,0.9648077596233683
10.01101321585903,0.9807606534437355
10.044383259911895,0.9767672875670159
10.077753303964759,0.9387846021103885
10.111123348017621,0.8445974509523689
10.144493392070485,0.6781792506044922
10.177863436123348,0.4445685145471539
10.211233480176212,0.17615626127062048
10.244603524229076,-0.0743075871155324
10.277973568281938,-0.2516004648306317
10.311343612334802,-0.3188634654709039
10.344713656387665,-0.2722902887511696
10.378083700440529,-0.14379783314891553
10.411453744493393,0.008887215689325583
10.444823788546255,0.12059511331236632
10.47819383259912,0.1388889486091949
10.511563876651982,0.03931871258055779
10.544933920704846,-0.1690739851477334
10.57830396475771,-0.4494936825717698
10.611674008810573,-0.75182846227521
10.645044052863437,-1.0297551597505408
10.678414096916299,-1.253220284705748
10.711784140969163,-1.411171256793002
10.745154185022027,-1.5044993495296293
10.77852422907489,-1.5346080372990807
10.811894273127754,-1.495511381796561
10.845264317180618,-1.3750383566549726
10.87863436123348,-1.1646959844966
10.912004405286345,-0.8716599592274903
10.945374449339207,-0.5241412270547977
10.978744493392071,-0.16475292379080392
11.012114537444935,0.16620161016879628
11.045484581497798,0.4486818809657812
11.078854625550662,0.6912014640925647
11.112224669603524,0.92315340814675
11.145594713656388,1.1738308509930266
11.178964757709252,1.4488762932076653
11.212334801762115,1.7171219416183983
11.245704845814979,1.915748706412976
11.279074889867841,1.9723764796382954
11.312444933920705,1.8344268386367306
11.34581497797357,1.493109367758524
11.379185022026432,0.9924711974853337
11.412555066079296,0.4206140422901272
11.445925110132158,-0.11322566442426853
11.479295154185023,-0.5079917008763225
11.512665198237887,-0.6977352048581145
11.546035242290749,-0.6686234203563072
11.579405286343613,-0.46137480716778395
11.612775330396476,-0.15858328295416094
11.64614537444934,0.13901915601194353
11.679515418502204,0.3398319520715007
11.712885462555066,0.3839432912379897
11.74625550660793,0.25520759614708766
11.779625550660793,-0.018659176516045626
11.812995594713657,-0.3757804125292826
11.846365638766521,-0.7359206950766926
11.879735682819383,-1.0190799525819971
11.913105726872248,-1.1641845742929888
11.94647577092511,-1.144697544798875
11.979845814977974,-0.9768156119109337
12.013215859030838,-0.7159952699741637
12.0465859030837,-0.44043879260657576
12.079955947136565,-0.22541973534459087
12.113325991189427,-0.11729962699954795
12.146696035242291,-0.11762497055929715
12.180066079295155,-0.18430189364965616
12.213436123348018,-0.24981796128234554
12.246806167400882,-0.24920443218667582
12.280176211453744,-0.1464161335232152
12.313546255506608,0.051243553563839674
12.346916299559473,0.2958977175622424
12.380286343612335,0.5175154505303602
12.413656387665199,0.650684355473557
12.447026431718061,0.65962537219904
12.480396475770926,0.5520843980824744
12.51376651982379,0.3766483063788466
12.547136563876652,0.2038955284159739
12.580506607929516,0.09780516144626665
12.613876651982379,0.08803757548661577
12.647246696035243,0.15443845040764093
12.680616740088107,0.23164364552443817
12.71398678414097,0.2345019034125763
12.747356828193833,0.09626093196851665
12.780726872246696,-0.1955321033959921
12.81409691629956,-0.5820591350216117
12.847466960352424,-0.9459686299070047
12.880837004405286,-1.1524634254331831
12.91420704845815,-1.1037566305590385
12.947577092511013,-0.7835022487415041
12.980947136563877,-0.2698521001605571
13.014317180616741,0.29127099142441887
13.047687224669604,0.7427579802468117
13.081057268722468,0.9781946747649344
13.11442731277533,0.9813725472974064
13.147797356828194,0.8261750286246764
13.181167400881058,0.6382968375614864
13.21453744493392,0.537683732255888
13.247907488986785,0.5881121511738739
13.281277533039647,0.774905583017839
13.314647577092511,1.0171657163429002
13.348017621145376,1.2051107568155424
13.381387665198238,1.2438278732722752
13.414757709251102,1.085299047539096
13.448127753303964,0.7388509486636538
13.481497797356829,0.26076028038213556
13.514867841409693,-0.2686166649621877
13.548237885462555,-0.7695382726583944
13.58160792951542,-1.1810867492215276
13.614977973568282,-1.4691333879967434
13.648348017621146,-1.6246789544949032
13.68171806167401,-1.656019203200925
13.715088105726872,-1.5791778495853779
13.748458149779736,-1.4105683682936077
13.781828193832599,-1.1644083624259614
13.815198237885463,-0.8553988229494038
13.848568281938327,-0.5049071806694072
13.88193832599119,-0.14687825005417146
13.915308370044054,0.17117174986629455
13.948678414096916,0.39548155630844045
13.98204845814978,0.48146329875369526
14.015418502202644,0.4121304924170361
14.048788546255507,0.21095627648074936
14.08215859030837,-0.05887154130871096
14.115528634361233,-0.31144466961895345
14.148898678414097,-0.46603976322217255
14.182268722466961,-0.4743932392529899
14.215638766519824,-0.33522680574862374
14.249008810572688,-0.08969354424595981
14.28237885462555,0.1994088375438139
14.315748898678414,0.4741663808107417
14.349118942731279,0.70121537256246
14.382488986784141,0.876292713827006
14.415859030837005,1.0137101721976551
14.449229074889868,1.1284912529707498
14.482599118942732,1.2219352521027878
14.515969162995596,1.2783808429446077
14.549339207048458,1.2739951931516882
14.582709251101322,1.1916064702059723
14.616079295154185,1.0325863545557978
14.649449339207049,0.8188784291125609
14.682819383259913,0.5840021257080371
14.716189427312775,0.3580232529790517
14.74955947136564,0.1547799509129601
14.782929515418502,-0.03165470009803823
14.816299559471366,-0.21947828402010872
14.84966960352423,-0.42499540493891874
14.883039647577093,-0.6497591612442638
14.916409691629957,-0.8760277443877083
14.94977973568282,-1.0727284940479516
14.983149779735683,-1.2084119897279462
15.016519823788547,-1.2643349450468
15.04988986784141,-1.241418564848301
15.083259911894274,-1.1585789303473475
15.116629955947138,-1.0443957378362063
15.15,-0.9268249173449747
15.183370044052865,-0.8255381854355943
15.216740088105727,-0.7490724450109293
15.250110132158591,-0.6959952582013661
15.283480176211455,-0.6574813644259654
15.316850220264318,-0.6189176779186475
15.350220264317182,-0.5600567031409798
15.383590308370044,-0.4555216598949519
15.416960352422908,-0.27856809968219903
15.450330396475772,-0.009882579593995513
15.483700440528635,0.3500320134253851
15.517070484581499,0.770140728244905
15.550440528634361,1.1870148389673842
15.583810572687225,1.5170191493699074
15.61718061674009,1.681755986320604
15.650550660792952,1.63848600674497
15.683920704845816,1.402316856864014
15.717290748898678,1.047986793773131
15.750660792951543,0.6867070868097244
15.784030837004407,0.4248554835781441
15.817400881057269,0.3209869378555326
15.850770925110133,0.3604378423584371
15.884140969162996,0.4604893638268134
15.91751101321586,0.5058600358320764
15.950881057268724,0.40021364401616505
15.984251101321586,0.11130817849599944
16.01762114537445,-0.31038448085490683
16.050991189427315,-0.7481079919952855
16.084361233480177,-1.0633137564777875
16.11773127753304,-1.149289958569741
16.151101321585905,-0.9719687340817924
16.184471365638768,-0.5825220318294436
16.21784140969163,-0.09871259783209192
16.251211453744492,0.3358128111545801
16.284581497797358,0.5979946105310745
16.31795154185022,0.6212928930583609
16.351321585903083,0.4106023050049302
16.38469162995595,0.03411674787235794
16.41806167400881,-0.40218764330774176
16.451431718061674,-0.7871408528145959
16.48480176211454,-1.0331143758127037
16.518171806167402,-1.0931626951687061
16.551541850220264,-0.9644151002432696
16.584911894273127,-0.6810801648785231
16.618281938325993,-0.3031515784924642
16.651651982378855,0.09450536364303716
16.685022026431717,0.4321992137756974
16.718392070484583,0.637518931757577
16.751762114537446,0.6617831861502349
16.785132158590308,0.4981303464595289
16.818502202643174,0.19272923515756446
16.851872246696036,-0.16092159018248545
16.8852422907489,-0.4488408041168204
16.91861233480176,-0.5776035663787724
16.951982378854627,-0.5124410064150985
16.98535242290749,-0.29315858691766383
17.01872246696035,-0.017457670179356104
17.052092511013218,0.2027823629073532
17.08546255506608,0.2921881027107879
17.118832599118942,0.24476571854355414
17.152202643171808,0.1223811310261487
17.18557268722467,0.019340885018503142
17.218942731277533,0.010754777927884412
17.2523127753304,0.11092821579871455
17.28568281938326,0.2636487909212775
17.319052863436124,0.3707957996959802
17.352422907488986,0.34633338341886805
17.385792951541852,0.16873907194174803
17.419162995594714,-0.09632535102216357
