Frequency (Hz),Amplitude
0.0,1.4553451713852366
0.01978021978021978,1.4555882986727415
0.03956043956043956,1.4563164686719203
0.05934065934065934,1.457526055701487
0.07912087912087912,1.4592110498107038
0.0989010989010989,1.4613631054419642
0.11868131868131868,1.4639716083506011
0.13846153846153844,1.467023759623767
0.15824175824175823,1.4705046753762074
0.17802197802197803,1.4743975004831424
0.1978021978021978,1.4786835345428238
0.21758241758241756,1.4833423681474358
0.23736263736263735,1.4883520274801734
0.2571428571428572,1.493689125247398
0.2769230769230769,1.4993290159931632
0.2967032967032967,1.5052459539241247
0.31648351648351647,1.511413251488812
0.3362637362637363,1.517803437100216
0.35604395604395606,1.5243884105557732
0.3758241758241758,1.5311395948879467
0.3956043956043956,1.5380280835646951
0.4153846153846154,1.5450247821451755
0.4351648351648351,1.5521005436780853
0.45494505494505494,1.5592262973026445
0.4747252747252747,1.5663731696728276
0.4945054945054945,1.5735125989711038
0.5142857142857143,1.5806164414075021
0.5340659340659341,1.5876570702124173
0.5538461538461538,1.5946074672272272
0.5736263736263736,1.6014413072755835
0.5934065934065934,1.6081330355618528
0.6131868131868132,1.6146579383918265
0.6329670329670329,1.6209922075465262
0.6527472527472528,1.627112998664029
0.6725274725274726,1.6329984839979887
0.6923076923076923,1.638627899926755
0.7120879120879121,1.6439815895847114
0.7318681318681318,1.649041040979487
0.7516483516483516,1.6537889209456111
0.7714285714285715,1.6582091052683985
0.7912087912087912,1.6622867052924561
0.810989010989011,1.6660080913072493
0.8307692307692308,1.6693609129792868
0.8505494505494506,1.6723341170761141
0.8703296703296702,1.6749179627030804
0.8901098901098901,1.6771040342486536
0.9098901098901099,1.678885252209737
0.9296703296703297,1.6802558820434097
0.9494505494505494,1.681211541167586
0.9692307692307692,1.6817492042089293
0.989010989010989,1.6818672065725258
1.0087912087912088,1.6815652463847115
1.0285714285714287,1.680844384836855
1.0483516483516484,1.6797070449350036
1.0681318681318681,1.6781570086371085
1.087912087912088,1.6761994123363482
1.1076923076923075,1.6738407406258222
1.1274725274725275,1.6710888182562254
1.1472527472527472,1.6679528001743815
1.1670329670329669,1.6644431595063012
1.1868131868131868,1.6605716733240536
1.2065934065934065,1.656351406011079
1.2263736263736265,1.651796690015925
1.2461538461538462,1.6469231037596088
1.2659340659340659,1.6417474464377688
1.2857142857142858,1.636287709435087
1.3054945054945055,1.6305630440474141
1.3252747252747252,1.6245937251862563
1.3450549450549452,1.6184011107228276
1.3648351648351649,1.6120075961136975
1.3846153846153846,1.6054365639406354
1.4043956043956045,1.5987123279916728
1.4241758241758242,1.59186007151326
1.443956043956044,1.5849057792727719
1.4637362637362636,1.5778761630907034
1.4835164835164834,1.5707985805321645
1.5032967032967033,1.563700946490617
1.523076923076923,1.5566116374535386
1.542857142857143,1.5495593883121235
1.5626373626373626,1.5425731816649697
1.5824175824175823,1.5356821296713155
1.6021978021978023,1.5289153486309097
1.621978021978022,1.5223018266064983
1.6417582417582417,1.5158702845585998
1.6615384615384616,1.5096490316296356
1.6813186813186813,1.503665815392032
1.7010989010989013,1.497947668059162
1.720879120879121,1.4925207498440656
1.7406593406593405,1.4874101908324573
1.7604395604395604,1.4826399329080182
1.7802197802197801,1.4782325734215034
1.7999999999999998,1.474209212423485
1.8197802197802198,1.4705893053768582
1.8395604395604395,1.4673905233218005
1.8593406593406594,1.4646286224776974
1.879120879120879,1.462317325228212
1.8989010989010988,1.4604682143449574
1.9186813186813187,1.4590906421611651
1.9384615384615385,1.4581916562108648
1.9582417582417584,1.4577759426053705
1.978021978021978,1.4578457881341402
1.9978021978021978,1.4584010617589578
2.0175824175824175,1.4594392158299128
2.0373626373626372,1.4609553069999628
2.0571428571428574,1.4629420364636567
2.076923076923077,1.4653898088077595
2.096703296703297,1.468286808447308
2.1164835164835165,1.4716190923409667
2.1362637362637362,1.4753706974420393
2.1560439560439564,1.4795237611525227
2.175824175824176,1.4840586529105857
2.195604395604396,1.4889541149583223
2.215384615384615,1.4941874103052835
2.2351648351648348,1.4997344759213402
2.254945054945055,1.5055700792546292
2.2747252747252746,1.51166797627129
2.2945054945054943,1.5180010693455568
2.314285714285714,1.5245415634852866
2.3340659340659338,1.53126111955056
2.353846153846154,1.5381310033059574
2.3736263736263736,1.5451222293325155
2.3934065934065933,1.5522056990091266
2.413186813186813,1.5593523319492162
2.4329670329670328,1.566533190444071
2.452747252747253,1.573719596615859
2.4725274725274726,1.5808832421198133
2.4923076923076923,1.5879962903543283
2.512087912087912,1.5950314712409586
2.5318681318681318,1.6019621687217096
2.5516483516483515,1.608762501191378
2.5714285714285716,1.6154073951375985
2.5912087912087913,1.6218726523024403
2.610989010989011,1.6281350107085768
2.6307692307692307,1.6341721999112053
2.6505494505494505,1.6399629908458768
2.6703296703296706,1.6454872406433871
2.6901098901098903,1.65072593277735
2.70989010989011,1.6556612128995236
2.7296703296703297,1.6602764207025669
2.7494505494505495,1.6645561181318485
2.769230769230769,1.6684861142472966
2.7890109890109893,1.6720534870136086
2.808791208791209,1.675246602273836
2.8285714285714287,1.6780551301368434
2.8483516483516484,1.6804700589845971
2.8681318681318677,1.6824837072808791
2.887912087912088,1.6840897333376237
2.9076923076923076,1.6852831431717497
2.9274725274725273,1.6860602965605065
2.947252747252747,1.686418911380016
2.9670329670329667,1.6863580662879534
2.986813186813187,1.6858782017883518
3.0065934065934066,1.6849811196931157
3.0263736263736263,1.6836699809720415
3.046153846153846,1.6819493019599434
3.0659340659340657,1.6798249488663284
3.085714285714286,1.677304130509931
3.1054945054945056,1.6743953891764747
3.1252747252747253,1.6711085894745146
3.145054945054945,1.6674549050399925
3.1648351648351647,1.6634468029155454
3.184615384615385,1.6590980254065482
3.2043956043956046,1.6544235691909743
3.2241758241758243,1.6494396614365843
3.243956043956044,1.6441637326546361
3.2637362637362637,1.6386143859976305
3.2835164835164834,1.6328113626869423
3.3032967032967036,1.6267755032379598
3.3230769230769233,1.6205287041344927
3.342857142857143,1.614093869592215
3.3626373626373627,1.6074948580444794
3.3824175824175824,1.6007564229828566
3.4021978021978025,1.5939041477916036
3.4219780219780223,1.5869643742308621
3.441758241758242,1.5799641242493394
3.4615384615384617,1.5729310148444273
3.481318681318681,1.5658931657389532
3.501098901098901,1.5588790997084903
3.520879120879121,1.5519176354739712
3.5406593406593405,1.5450377731714806
3.5604395604395602,1.5382685725246368
3.58021978021978,1.531639023975155
3.5999999999999996,1.525177913173079
3.61978021978022,1.5189136793879638
3.6395604395604395,1.5128742685736858
3.659340659340659,1.5070869819989696
3.679120879120879,1.5015783215390535
3.6989010989010986,1.4963738329054896
3.718681318681319,1.4914979482651332
3.7384615384615385,1.4869738298589013
3.758241758241758,1.4828232163689097
3.7780219780219784,1.4790662738915583
3.7978021978021976,1.4757214534478245
3.8175824175824173,1.4728053569927593
3.8373626373626375,1.4703326138708044
3.8571428571428568,1.4683157695963662
3.876923076923077,1.4667651887205961
3.896703296703296,1.465688973373736
3.916483516483517,1.4650928988533907
3.936263736263736,1.4649803673647512
3.956043956043956,1.4653523807193134
3.9758241758241755,1.4662075324718231
3.9956043956043956,1.4675420196317919
4.015384615384615,1.4693496737385463
4.035164835164835,1.4716220107480265
4.054945054945055,1.4743482988580394
4.0747252747252745,1.477515643106179
4.094505494505494,1.4811090853200855
4.114285714285715,1.4851117177906734
4.134065934065934,1.4895048088792513
4.153846153846154,1.4942679386621494
4.173626373626373,1.4993791426611713
4.193406593406594,1.504815061703102
4.213186813186813,1.510551095992295
4.232967032967033,1.5165615615618964
4.252747252747253,1.5228198473854873
4.2725274725274724,1.5292985715735123
4.292307692307692,1.5359697352421589
4.312087912087913,1.5428048728182424
4.331868131868132,1.5497751977256375
4.351648351648352,1.5568517425812713
4.371428571428571,1.5640054932063077
4.391208791208792,1.571207515927113
4.410989010989011,1.5784290777965764
4.43076923076923,1.5856417595094707
4.450549450549451,1.5928175609107744
4.4703296703296695,1.5999289991066703
4.49010989010989,1.6069491992803349
4.50989010989011,1.613851978392162
4.52967032967033,1.6206119220056525
4.549450549450549,1.6272044545278896
4.569230769230769,1.633605903188274
4.589010989010989,1.6397935561028814
4.608791208791209,1.6457457147849315
4.628571428571428,1.6514417414675073
4.648351648351649,1.6568621016018634
4.6681318681318675,1.6619884018874285
4.687912087912088,1.6668034241763665
4.707692307692308,1.6712911555796521
4.7274725274725276,1.6754368150819217
4.747252747252747,1.6792268769517988
4.767032967032967,1.6826490912108085
4.786813186813187,1.6856925014012412
4.806593406593407,1.6883474598684098
4.826373626373626,1.6906056407489747
4.846153846153847,1.6924600508319567
4.8659340659340655,1.6939050384355614
4.885714285714286,1.6949363004182332
4.905494505494506,1.695550887419241
4.9252747252747255,1.6957472074001017
4.945054945054945,1.69552502753545
4.964835164835165,1.6948854744786517
4.984615384615385,1.6938310330046067
5.004395604395604,1.6923655430094535
5.024175824175824,1.690494194823706
5.043956043956045,1.6882235227725753
5.0637362637362635,1.6855613968937688
5.083516483516483,1.6825170126996203
5.103296703296703,1.6791008788467041
5.123076923076923,1.675324802552123
5.142857142857143,1.6712018725713942
5.162637362637362,1.6667464395291771
5.182417582417583,1.6619740933695901
5.2021978021978015,1.656901637670066
5.221978021978022,1.6515470605397298
5.241758241758242,1.6459295018022748
5.2615384615384615,1.6400692161440462
5.281318681318681,1.6339875318914177
5.301098901098901,1.6277068050684174
5.320879120879121,1.6212503683769381
5.340659340659341,1.6146424747386878
5.36043956043956,1.6079082350418579
5.380219780219781,1.6010735497469268
5.3999999999999995,1.5941650340274534
5.41978021978022,1.5872099361536538
5.43956043956044,1.580236048870835
5.4593406593406595,1.5732716135826752
5.479120879120879,1.5663452172220096
5.498901098901099,1.559485681779982
5.518681318681319,1.552721946568816
5.538461538461538,1.5460829434140897
5.558241758241758,1.5395974651086983
5.578021978021979,1.5332940276113098
5.5978021978021975,1.527200726635203
5.617582417582418,1.521345089446081
5.637362637362637,1.5157539228652157
5.6571428571428575,1.510453158653634
5.676923076923077,1.5054676976270578
5.696703296703297,1.5008212540146701
5.716483516483517,1.4965362017201553
5.736263736263735,1.4926334242637158
5.756043956043956,1.4891321702729254
5.775824175824176,1.4860499164402894
5.795604395604395,1.483402239872319
5.815384615384615,1.4812027017136624
5.835164835164835,1.4794627438378751
5.854945054945055,1.4781916002540283
5.874725274725275,1.4773962246857566
5.894505494505494,1.4770812355424685
5.914285714285715,1.477248879225544
5.934065934065933,1.4778990124048945
5.953846153846154,1.4790291035724878
5.973626373626374,1.4806342538405213
5.993406593406593,1.4827072366137937
6.013186813186813,1.4852385554408911
6.032967032967033,1.4882165190465726
6.052747252747253,1.4916273322786904
6.072527472527473,1.495455201474314
6.092307692307692,1.499682452567453
6.112087912087913,1.5042896601280598
6.131868131868131,1.5092557854407715
6.151648351648352,1.514558321699855
6.171428571428572,1.5201734444130917
6.191208791208791,1.526076165165037
6.210989010989011,1.5322404869858428
6.230769230769231,1.5386395596970694
6.2505494505494505,1.5452458337550696
6.270329670329671,1.5520312112778554
6.29010989010989,1.5589671931164624
6.309890109890111,1.5660250210104432
6.329670329670329,1.573175814043836
6.349450549450549,1.5803906987883696
6.36923076923077,1.5876409326808152
6.3890109890109885,1.5948980203288807
6.408791208791209,1.6021338225730426
6.428571428571428,1.6093206582482749
6.4483516483516485,1.616431398691056
6.468131868131868,1.6234395551214216
6.487912087912088,1.6303193590995
6.507692307692308,1.6370458363109683
6.527472527472527,1.6435948739773896
6.547252747252747,1.649943282217301
6.567032967032967,1.656068849703176
6.5868131868131865,1.661950393969181
6.606593406593407,1.6675678067273498
6.626373626373626,1.672902094545182
6.6461538461538465,1.6779354152286061
6.665934065934065,1.68265111023984
6.685714285714286,1.687033733463572
6.705494505494506,1.6910690766142953
6.725274725274725,1.6947441915571233
6.745054945054945,1.6980474097911047
6.764835164835165,1.700968359321248
6.7846153846153845,1.7034979791212026
6.804395604395605,1.7056285313647075
6.824175824175824,1.7073536115799748
6.8439560439560445,1.7086681568573248
6.863736263736263,1.709568452216934
6.883516483516484,1.7100521352199156
6.903296703296704,1.7101181988834304
6.923076923076923,1.7097669929370076
6.942857142857143,1.7090002234350887
6.962637362637362,1.7078209507178794
6.9824175824175825,1.7062335856898199
7.002197802197802,1.7042438843625525
7.021978021978022,1.7018589405862043
7.041758241758242,1.6990871768696045
7.061538461538461,1.695938333166989
7.081318681318681,1.6924234534851554
7.101098901098901,1.6885548701413495
7.1208791208791204,1.684346185478481
7.140659340659341,1.6798122508208535
7.16043956043956,1.6749691424303117
7.1802197802197805,1.669834134200208
7.199999999999999,1.6644256668033743
7.21978021978022,1.6587633129904564
7.23956043956044,1.6528677387176314
7.259340659340659,1.6467606597682833
7.279120879120879,1.6404647935226855
7.298901098901099,1.634003805524279
7.318681318681318,1.6274022504915635
7.338461538461539,1.6206855074321296
7.358241758241758,1.6138797085319405
7.3780219780219785,1.6070116615187877
7.397802197802197,1.6001087652365407
7.417582417582418,1.5931989182166786
7.437362637362638,1.5863104200973202
7.457142857142857,1.5794718658185094
7.476923076923077,1.5727120326166582
7.496703296703297,1.566059759950321
7.516483516483516,1.559543822615148
7.536263736263736,1.5531927974452189
7.556043956043957,1.5470349241512982
7.575824175824176,1.5410979610097928
7.595604395604395,1.5354090362873662
7.615384615384615,1.5299944964604462
7.635164835164835,1.5248797524616111
7.654945054945055,1.5200891253498512
7.674725274725275,1.5156456929536206
7.694505494505494,1.511571139166147
7.7142857142857135,1.507885607677075
7.734065934065935,1.5046075619940973
7.753846153846154,1.5017536536395504
7.7736263736263735,1.4993386003926836
7.793406593406592,1.4973750763877574
7.813186813186814,1.4958736157667423
7.832967032967034,1.4948425314263663
7.852747252747252,1.4942878501930779
7.872527472527472,1.494213265512161
7.892307692307693,1.4946201084546884
7.912087912087912,1.4955073375374965
7.931868131868132,1.49687154752634
7.951648351648351,1.4987069970615825
7.971428571428572,1.5010056546209911
7.991208791208791,1.503757262025146
8.010989010989011,1.5069494144082998
8.03076923076923,1.5105676553299687
8.05054945054945,1.5145955854956532
8.07032967032967,1.5190149833955258
8.09010989010989,1.5238059360581835
8.10989010989011,1.5289469780546685
8.129670329670331,1.5344152368735786
8.149450549450549,1.5401865828176577
8.169230769230769,1.5462357816416663
8.189010989010988,1.5525366482544438
8.20879120879121,1.5590621999375847
8.22857142857143,1.5657848076845244
8.248351648351647,1.572676344427192
8.268131868131867,1.5797083290898821
8.287912087912087,1.586852065583012
8.307692307692308,1.59407877601985
8.327472527472528,1.6013597276022313
8.347252747252746,1.6086663527736007
8.367032967032966,1.6159703623770236
8.386813186813187,1.6232438516808159
8.406593406593407,1.6304593992437515
8.426373626373627,1.6375901586856096
8.446153846153845,1.6446099435074217
8.465934065934066,1.65149330516945
8.485714285714286,1.6582156046850012
8.505494505494505,1.664753078025832
8.525274725274725,1.671082895661172
8.545054945054945,1.6771832165688643
8.564835164835165,1.6830332370651484
8.584615384615384,1.6886132348001053
8.604395604395604,1.6939046082608327
8.624175824175826,1.698889912113765
8.643956043956043,1.7035528887037739
8.663736263736263,1.707878496010285
8.683516483516483,1.7118529323413334
8.703296703296704,1.7154636580252047
8.723076923076924,1.718699414337185
8.742857142857142,1.7215502398759295
8.762637362637362,1.7240074845805744
8.782417582417583,1.7260638215562614
8.802197802197803,1.7277132568523177
8.821978021978023,1.728951137313878
8.84175824175824,1.7297741566047646
8.86153846153846,1.7301803594765715
8.881318681318682,1.7301691443359275
8.901098901098901,1.7297412641397594
8.920879120879121,1.7288988256257172
8.940659340659339,1.7276452868625733
8.96043956043956,1.7259854530831575
8.98021978021978,1.723925470739543
9.0,1.721472819697947
9.01978021978022,1.7186363034677057
9.03956043956044,1.7154260373357144
9.05934065934066,1.711853434254587
9.079120879120879,1.707931188309569
9.098901098901099,1.703673255565867
9.11868131868132,1.6990948320753247
9.138461538461538,1.6942123287987234
9.158241758241758,1.689043343178555
9.178021978021977,1.6836066270766838
9.197802197802199,1.6779220507731296
9.217582417582419,1.6720105627059454
9.237362637362637,1.6658941446200437
9.257142857142856,1.6595957617838442
9.276923076923078,1.6531393079299557
9.296703296703297,1.646549544578836
9.316483516483517,1.6398520344149778
9.336263736263735,1.6330730684050299
9.356043956043957,1.6262395863762322
9.375824175824176,1.6193790908148795
9.395604395604396,1.6125195536980783
9.415384615384616,1.6056893162392363
9.435164835164835,1.598916981509798
9.454945054945055,1.5922312999965254
9.474725274725275,1.5856610482660964
9.494505494505495,1.5792349010354947
9.514285714285714,1.5729812970876467
9.534065934065934,1.5669282996243499
9.553846153846154,1.5611034518105327
9.573626373626373,1.5555336284319168
9.593406593406593,1.5502448847580992
9.613186813186815,1.5452623038691649
9.632967032967032,1.540609843861407
9.652747252747252,1.5363101864900999
9.672527472527472,1.5323845889269954
9.692307692307693,1.528852740402978
9.712087912087913,1.525732625563516
9.731868131868131,1.523040396382815
9.75164835164835,1.5207902544566645
9.771428571428572,1.518994345420955
9.791208791208792,1.5176626671226037
9.810989010989012,1.516802993001872
9.83076923076923,1.5164208119340958
9.850549450549451,1.5165192855284413
9.87032967032967,1.5170992235997833
9.89010989010989,1.5181590782243561
9.90989010989011,1.5196949564719147
9.92967032967033,1.5217006515852227
9.94945054945055,1.524167692064564
9.96923076923077,1.5270854078190113
9.989010989010989,1.5304410122779568
10.008791208791209,1.5342196991231611
10.028571428571428,1.5384047521096047
10.048351648351648,1.5429776662967196
10.068131868131868,1.5479182789126509
10.08791208791209,1.5532049080222785
10.107692307692307,1.558814497163678
10.127472527472527,1.5647227641536938
10.147252747252747,1.5709043523363135
10.167032967032966,1.5773329826523417
10.186813186813188,1.5839816050388145
10.206593406593406,1.5908225478151248
10.226373626373626,1.5978276638740443
10.246153846153845,1.604968472663051
10.265934065934067,1.6122162971098755
10.285714285714286,1.6195423948108367
10.305494505494504,1.6269180829577097
10.325274725274724,1.6343148566255206
10.345054945054946,1.6417045001776078
10.364835164835165,1.6490591916638928
10.384615384615385,1.6563516001933467
10.404395604395603,1.6635549763511062
10.424175824175824,1.6706432358058643
10.443956043956044,1.6775910363138937
10.463736263736264,1.68437384837367
10.483516483516484,1.6909680198209416
10.503296703296703,1.6973508346788908
10.523076923076923,1.703500566593476
10.542857142857143,1.7093965271914662
10.562637362637362,1.7150191096990246
10.582417582417584,1.720349828153177
10.602197802197802,1.7253713525286236
10.621978021978022,1.730067540088255
