Time (s),Filtered Signal
0.0,0.05397919634777232
0.033370535714285714,0.04521133303997119
0.06674107142857143,0.0074379467800456825
0.10011160714285713,-0.0713300541558198
0.13348214285714285,-0.17954053072844758
0.16685267857142858,-0.2859948191320598
0.20022321428571427,-0.35356789814556466
0.23359375,-0.3558847766008785
0.2669642857142857,-0.2887308190169253
0.30033482142857143,-0.17091700898540307
0.33370535714285715,-0.034947769818031625
0.36707589285714287,0.08697613364341215
0.40044642857142854,0.17421924976735245
0.43381696428571426,0.22120127378678717
0.4671875,0.23303407419274455
0.5005580357142857,0.21761024482103936
0.5339285714285714,0.17966682266177264
0.5672991071428571,0.12004713404737122
0.6006696428571429,0.03948778050117191
0.6340401785714286,-0.056564913147354984
0.6674107142857143,-0.1557849763391493
0.70078125,-0.24101366655898893
0.7341517857142857,-0.295408422187119
0.7675223214285715,-0.30803143080511314
0.8008928571428571,-0.2774386057584557
0.8342633928571428,-0.21220508460715887
0.8676339285714285,-0.12869428289414436
0.9010044642857142,-0.047001543748475184
0.934375,0.014017849695186832
0.9677455357142857,0.04180707555234068
1.0011160714285714,0.034205288314162176
1.0344866071428571,0.0012436795441272297
1.0678571428571428,-0.036545837416830484
1.1012276785714286,-0.05360802748536726
1.1345982142857143,-0.027526599499161294
1.16796875,0.052556927865588215
1.2013392857142857,0.1803119541767083
1.2347098214285714,0.3319009305581028
1.2680803571428572,0.47182027289526157
1.3014508928571429,0.5633787467278921
1.3348214285714286,0.5801819107971502
1.3681919642857143,0.5142306494857687
1.4015625,0.3774771426007589
1.4349330357142858,0.1965529289597189
1.4683035714285715,0.003496353809324167
1.5016741071428572,-0.17305825889137813
1.535044642857143,-0.3125894350876589
1.5684151785714286,-0.40248701819885785
1.6017857142857141,-0.4352790601238997
1.6351562499999999,-0.40710372574560777
1.6685267857142856,-0.3199693833824292
1.7018973214285713,-0.18691837138815903
1.735267857142857,-0.03577901913691261
1.7686383928571427,0.09367580662225783
1.8020089285714285,0.1613482708026517
1.8353794642857142,0.1437274335687507
1.86875,0.0476749485250115
1.9021205357142856,-0.08784980370279408
1.9354910714285714,-0.20580693554322244
1.968861607142857,-0.2558980046422916
2.002232142857143,-0.21835320759848875
2.0356026785714287,-0.11422523745179702
2.0689732142857142,0.00375146883584518
2.10234375,0.07565090603132454
2.1357142857142857,0.06234536661442657
2.169084821428571,-0.03617538544473971
2.202455357142857,-0.18003532105543085
2.2358258928571426,-0.3056767015090495
2.2691964285714286,-0.35134596644469507
2.302566964285714,-0.28131277918483427
2.3359375,-0.09993146821286754
2.3693080357142855,0.14886831838938042
2.4026785714285714,0.3959388198552717
2.436049107142857,0.5701448885013253
2.469419642857143,0.622848450192224
2.5027901785714284,0.5453159398376629
2.5361607142857143,0.37230632884890885
2.56953125,0.16925977595446495
2.6029017857142858,0.00669619277543236
2.6362723214285713,-0.06841654736367735
2.669642857142857,-0.05171476642415938
2.7030133928571427,0.01858608220701464
2.7363839285714286,0.08151839606959302
2.769754464285714,0.08346618458478057
2.803125,0.003343974636779679
2.8364955357142856,-0.13960915704631008
2.8698660714285715,-0.29812655310573705
2.903236607142857,-0.4212099885396839
2.936607142857143,-0.4769242189409128
2.9699776785714285,-0.46276643330388556
3.0033482142857144,-0.4007131480555374
3.03671875,-0.3221646354044638
3.070089285714286,-0.25181699811667574
3.1034598214285714,-0.19798218307758614
3.1368303571428573,-0.15217657471939325
3.170200892857143,-0.09610075331526043
3.2035714285714283,-0.01162678702854221
3.2369419642857142,0.11051517101522661
3.2703124999999997,0.26595776577584146
3.3036830357142857,0.4364418952867536
3.337053571428571,0.5933730840045035
3.370424107142857,0.704050423521105
3.4037946428571426,0.7395351378925742
3.4371651785714286,0.6830850652839083
3.470535714285714,0.53742440773367
3.50390625,0.32810571662875193
3.5372767857142855,0.0999515390509259
3.5706473214285714,-0.09472472782143612
3.604017857142857,-0.21359186334328867
3.637388392857143,-0.2407570140669312
3.6707589285714284,-0.19392505682725245
3.7041294642857143,-0.11713111093755481
3.7375,-0.06100541837861609
3.7708705357142858,-0.059738386645910635
3.8042410714285713,-0.11660804087300587
3.837611607142857,-0.20584788169104237
3.8709821428571427,-0.2896827729294321
3.9043526785714286,-0.34068419720701454
3.937723214285714,-0.35644941782207945
3.97109375,-0.35810049190243265
4.004464285714286,-0.37377678235081185
4.0378348214285715,-0.4174441911833233
4.0712053571428575,-0.4763531138974344
4.1045758928571425,-0.5153484023623323
4.1379464285714285,-0.4960026488464806
4.171316964285714,-0.39948116418972784
4.2046875,-0.23968758557324749
4.238058035714285,-0.0588611922822561
4.271428571428571,0.09223036588416617
4.304799107142857,0.17900267434802156
4.338169642857142,0.19990386301508786
4.371540178571428,0.18705636839894124
4.404910714285714,0.19052118162998005
4.43828125,0.25369488020267994
4.471651785714285,0.39121892883711623
4.505022321428571,0.5795571930539598
4.538392857142857,0.7648297606110621
4.571763392857143,0.884852168780293
4.605133928571428,0.8957397067474457
4.638504464285714,0.7909004952571788
4.671875,0.6033374256326882
4.705245535714286,0.3899275036068816
4.738616071428571,0.20517941167613624
4.771986607142857,0.07731315366954804
4.805357142857143,-0.0016613921553775637
4.838727678571429,-0.06739666996216526
4.872098214285714,-0.16111172570074575
4.90546875,-0.3054402683251998
4.938839285714286,-0.49019855529612527
4.972209821428572,-0.6746045559728427
5.005580357142857,-0.8042739992221799
5.038950892857143,-0.8345697373943449
5.072321428571429,-0.7496295887151516
5.105691964285715,-0.5691676348370536
5.1390625,-0.3410345730083364
5.172433035714286,-0.1235212218638742
5.2058035714285715,0.034995023367499274
5.2391741071428575,0.11122917997074207
5.2725446428571425,0.11185527921241116
5.3059151785714285,0.06720104465840875
5.339285714285714,0.017117963134120104
5.3726562499999995,-0.005010674913803038
5.406026785714285,0.015950221189198564
5.439397321428571,0.07311996972082016
5.472767857142857,0.1421834351740872
5.506138392857142,0.19169161351815525
5.539508928571428,0.19516330127351836
5.572879464285714,0.1414068428360756
5.60625,0.040422976115379344
5.639620535714285,-0.07703393545904998
5.672991071428571,-0.1673577654788626
5.706361607142857,-0.18864382504496824
5.739732142857143,-0.11779806763902659
5.773102678571428,0.036844168740503544
5.806473214285714,0.23436307460542294
5.83984375,0.4141316440799125
5.873214285714286,0.5183264663890903
5.906584821428571,0.5141894371757038
5.939955357142857,0.40570195500746636
5.973325892857143,0.22944788103387345
6.006696428571429,0.03731038354478461
6.040066964285714,-0.12508051651927496
6.0734375,-0.23382736324174055
6.106808035714286,-0.2897250488797404
6.140178571428572,-0.309000088175411
6.173549107142857,-0.30812514624523113
6.206919642857143,-0.2914426775809494
6.240290178571429,-0.2483911927095668
6.273660714285715,-0.16196216464811694
6.30703125,-0.024015624220942507
6.340401785714286,0.15103392523888853
6.3737723214285715,0.3227725150007034
6.407142857142857,0.4357695176725102
6.4405133928571425,0.4418370309429388
6.4738839285714285,0.32368061093885814
6.507254464285714,0.10778319991964998
6.5406249999999995,-0.1414825303834188
6.573995535714285,-0.3454579347374724
6.607366071428571,-0.44216638449602896
6.640736607142857,-0.41008898116307846
6.674107142857142,-0.273736910402938
6.707477678571428,-0.0893998247479617
6.740848214285714,0.0807063548872337
6.77421875,0.1928166657445837
6.807589285714285,0.23374824993958065
6.840959821428571,0.2174193504785937
6.874330357142857,0.17038965532288516
6.907700892857143,0.11555464587691185
6.941071428571428,0.0624541864443944
6.974441964285714,0.007900812411802887
7.0078125,-0.055340337067029684
7.041183035714286,-0.12818597413153296
7.074553571428571,-0.1998791982266117
7.107924107142857,-0.25100693260094753
7.141294642857143,-0.26320929275584865
7.174665178571429,-0.22990954853997173
7.208035714285714,-0.16161085646665774
7.24140625,-0.08217432115094138
7.274776785714286,-0.017522756771343025
7.308147321428572,0.017274071796384922
7.341517857142857,0.025139541830589297
7.374888392857143,0.023713288799461888
7.408258928571429,0.03285241607362365
7.441629464285715,0.059953800019488385
7.475,0.09239800145394934
7.508370535714286,0.10311210492459284
7.5417410714285715,0.06765083603717521
7.575111607142857,-0.016447684166849556
7.6084821428571425,-0.120093744805774
7.6418526785714285,-0.19058621239717927
7.675223214285714,-0.1752651989347973
7.7085937499999995,-0.049725863839323155
7.741964285714285,0.16425503010377257
7.775334821428571,0.40162366852005676
7.808705357142857,0.5781736719763051
7.842075892857142,0.6256000424205163
7.875446428571428,0.5214852213693613
7.908816964285714,0.30026873775650953
7.9421875,0.039891682493451035
7.975558035714285,-0.170198452144484
8.008928571428571,-0.2657066433754562
8.042299107142856,-0.23283876236017215
8.075669642857143,-0.11143806066012955
8.109040178571428,0.025047789209166175
8.142410714285715,0.10328139198180385
8.17578125,0.08186394309891978
8.209151785714285,-0.032931477924075615
8.242522321428572,-0.19353531030608845
8.275892857142857,-0.3348534576872723
8.309263392857142,-0.4031184896101541
8.342633928571429,-0.3766645100814806
8.376004464285714,-0.27100828778219255
8.409375,-0.1287432613758109
8.442745535714286,-0.0009415607701251619
8.47611607142857,0.07150339875608043
8.509486607142858,0.07036095421791504
8.542857142857143,0.0038361781006182832
8.576227678571428,-0.09794918274319406
8.609598214285715,-0.19372024076215755
8.64296875,-0.24496168903856852
8.676339285714285,-0.22883072164700988
8.709709821428572,-0.14545915654246008
8.743080357142857,-0.016397839668179922
8.776450892857143,0.12550336930618608
8.809821428571428,0.2502068760511127
8.843191964285714,0.34156011295965677
8.8765625,0.3996059515618565
8.909933035714285,0.43325733633731245
8.94330357142857,0.4482698151929078
8.976674107142857,0.43862147589142525
9.010044642857142,0.38761148713939003
9.04341517857143,0.27888159673028773
9.076785714285714,0.11080581658809416
9.11015625,-0.09520702837879805
9.143526785714286,-0.2987226944598297
9.176897321428571,-0.4553001028541018
9.210267857142856,-0.5343304163461381
9.243638392857143,-0.5298841802733827
9.277008928571428,-0.459357665161536
9.310379464285715,-0.3521992421202704
9.34375,-0.23626158104333658
9.377120535714285,-0.1292057985540843
9.410491071428572,-0.03773789913212001
9.443861607142857,0.03786498946184207
9.477232142857142,0.09877580210917136
9.510602678571429,0.1454167668157116
9.543973214285714,0.17792096802165475
9.57734375,0.19707229525078604
9.610714285714286,0.2040908998748633
9.64408482142857,0.1996714705746868
9.677455357142858,0.1839583520366196
9.710825892857143,0.15837453506263618
9.744196428571428,0.12813730386795624
9.777566964285715,0.10288243698150948
9.8109375,0.09358327231468092
9.844308035714285,0.10660552607329402
9.877678571428572,0.13836209679360603
9.911049107142857,0.1745125816978726
9.944419642857143,0.19531712595574
9.977790178571428,0.1849558432916868
10.011160714285714,0.139845087920796
10.04453125,0.0711218445142045
10.077901785714285,-0.00043105796077885913
10.11127232142857,-0.05450224559863464
10.144642857142857,-0.08101739959544994
10.178013392857142,-0.08433064953433783
10.21138392857143,-0.07973801353167377
10.244754464285714,-0.08448334128365928
10.278125,-0.10842792436775772
10.311495535714286,-0.14959959850970425
10.344866071428571,-0.19691355954151182
10.378236607142856,-0.238113368760758
10.411607142857143,-0.26784247990936094
10.444977678571428,-0.29061700409201985
10.478348214285715,-0.3165640818135709
10.51171875,-0.352390897899886
10.545089285714285,-0.39334877740046753
10.578459821428572,-0.4217753674398032
10.611830357142857,-0.4140579871065526
10.645200892857142,-0.35274836245625957
10.678571428571429,-0.23718006888229295
10.711941964285714,-0.08637266603934558
10.745312499999999,0.06796039395692409
10.778683035714286,0.19514821998413528
10.81205357142857,0.2792080640079567
10.845424107142858,0.3254548264041719
10.878794642857143,0.35655664032632406
10.912165178571428,0.39969818082627473
10.945535714285715,0.4709121666776728
10.97890625,0.5641678037609758
11.012276785714285,0.6507340169542379
11.045647321428572,0.6896369114690949
11.079017857142857,0.6449413368059019
11.112388392857143,0.5025022312917623
11.145758928571428,0.2790840105874439
11.179129464285714,0.019985407947231432
11.2125,-0.21413336523600257
11.245870535714285,-0.3665947447075725
11.27924107142857,-0.40358529224882733
11.312611607142857,-0.3261837099298612
11.345982142857142,-0.17127805585920347
11.37935267857143,-0.0004935210996917969
11.412723214285714,0.11989057500789534
11.44609375,0.1416993891842564
11.479464285714286,0.0523219700634563
11.512834821428571,-0.11997296652232024
11.546205357142856,-0.31567399996664064
11.579575892857143,-0.46575987024849097
11.612946428571428,-0.5176850534659263
11.646316964285715,-0.4556893448416659
11.6796875,-0.3073364365804605
11.713058035714285,-0.133303615033745
11.746428571428572,-0.0038630033723158117
11.779799107142857,0.029282747208615074
11.813169642857142,-0.04489713772607605
11.846540178571429,-0.18958907833832522
11.879910714285714,-0.331693690473205
11.913281249999999,-0.38917990404623404
11.946651785714286,-0.3049123655572702
11.98002232142857,-0.07387297593714166
12.013392857142858,0.24834837352887487
12.046763392857143,0.5615177572435172
12.080133928571428,0.7568687667512798
12.113504464285715,0.7596671112040062
12.146875,0.5605374184412363
12.180245535714285,0.22173081579384207
12.213616071428572,-0.14513594338480543
12.246986607142857,-0.42112761460184595
12.280357142857143,-0.5245627900546949
12.313727678571428,-0.43985724575857776
12.347098214285714,-0.2193079495749712
12.38046875,0.04184017808748498
12.413839285714285,0.24552077241639855
12.44720982142857,0.32883881375828883
12.480580357142857,0.2844949271680321
12.513950892857142,0.15659125370024615
12.54732142857143,0.015661959031035875
12.580691964285714,-0.07465342687068947
12.6140625,-0.08416218583560567
12.647433035714286,-0.024789988474752406
12.680803571428571,0.060984279046699494
12.714174107142856,0.12483491612356347
12.747544642857143,0.13753233264005368
12.780915178571428,0.10176731009754637
12.814285714285713,0.04711339630720877
12.84765625,0.010742596015275616
12.881026785714285,0.014840543696534257
12.914397321428572,0.053163820026996975
12.947767857142857,0.09403921494594075
12.981138392857142,0.0980533961894256
13.014508928571429,0.0406266095070405
13.047879464285714,-0.07295890755273568
13.081249999999999,-0.20824236956635767
13.114620535714286,-0.31742805984078554
13.14799107142857,-0.3616380620493804
13.181361607142858,-0.32776555484974845
13.214732142857143,-0.23172704869302527
13.248102678571428,-0.10774722252905203
13.281473214285715,0.009375610421154909
13.31484375,0.09929209892493214
13.348214285714285,0.16135721445083048
13.381584821428572,0.2089299145916479
13.414955357142857,0.2570119537381482
13.448325892857143,0.3100398758857152
13.481696428571428,0.35575028011398657
13.515066964285714,0.36795507168157765
13.5484375,0.3174057443741015
13.581808035714285,0.1867835866604294
13.61517857142857,-0.016181897806067224
13.648549107142857,-0.25378568028805576
13.681919642857142,-0.4658392917402845
13.71529017857143,-0.5891942413834844
13.748660714285714,-0.5830601032038722
13.78203125,-0.4494980268930763
13.815401785714286,-0.23844322530439085
13.848772321428571,-0.032143796616821096
13.882142857142856,0.08678970536284304
13.915513392857143,0.07084359977851647
13.948883928571428,-0.06958263684384901
13.982254464285713,-0.26762776075979905
14.015625,-0.42662075222277124
14.048995535714285,-0.46102333701839676
14.082366071428572,-0.3336216315940206
14.115736607142857,-0.0721929998484641
14.149107142857142,0.24189720574267454
14.182477678571429,0.5079337393258095
14.215848214285714,0.6475022158348641
14.249218749999999,0.6352786585107416
14.282589285714286,0.5061908529803781
14.31595982142857,0.33707921709342265
14.349330357142858,0.21202788379566795
14.382700892857143,0.18685210237416086
14.416071428571428,0.26747185662460893
14.449441964285715,0.41002977616097314
14.4828125,0.5410912575267964
14.516183035714285,0.5883022059571859
14.549553571428572,0.5085785867380234
14.582924107142857,0.3031241489395604
14.616294642857143,0.014844314782851507
14.649665178571428,-0.28892521369525287
14.683035714285714,-0.5401566437017251
14.71640625,-0.6908592451981056
14.749776785714285,-0.7241577248975586
14.78314732142857,-0.6541218983942197
14.816517857142857,-0.5171830093059763
14.849888392857142,-0.35970746127036773
14.88325892857143,-0.22533228918623927
14.916629464285714,-0.14392301689263537
14.95,-0.12353652848752368
14.983370535714286,-0.1477251456894173
15.016741071428571,-0.18095518543883737
15.050111607142856,-0.18272203766627612
15.083482142857143,-0.12625936655267075
15.116852678571428,-0.013480706715909077
15.150223214285713,0.12239919520802336
15.18359375,0.22989841866733846
15.216964285714285,0.26308209650337266
15.250334821428572,0.20487475167302943
15.283705357142857,0.07799577011026208
15.317075892857142,-0.06253264816236566
15.350446428571429,-0.1522503863600897
15.383816964285714,-0.1449524550045155
15.417187499999999,-0.032583373627498025
15.450558035714286,0.15125950862550314
15.48392857142857,0.3450873170904092
15.517299107142858,0.4839362336347152
15.550669642857143,0.5238498502120132
15.584040178571428,0.45662480006169004
15.617410714285715,0.30972082729469574
15.65078125,0.13260430569100484
15.684151785714285,-0.02385127185119377
15.717522321428572,-0.12606362883828148
15.750892857142857,-0.167334444835873
15.784263392857143,-0.1656154482513352
15.817633928571428,-0.1517920150467181
15.851004464285714,-0.15419905302048004
15.884375,-0.1856766980350846
15.917745535714285,-0.237732485728924
15.95111607142857,-0.2835688949099766
15.984486607142857,-0.2889178990258669
16.017857142857142,-0.2272131134907071
16.05122767857143,-0.09381118703872779
16.084598214285712,0.0866809155438014
16.11796875,0.26447301847850274
16.151339285714286,0.3805682438929535
16.18470982142857,0.38966745162557626
16.218080357142856,0.28060919441168586
16.251450892857143,0.08451589348444805
16.28482142857143,-0.13447231814470076
16.318191964285713,-0.30296375243785034
16.3515625,-0.366494091863701
16.384933035714287,-0.3097734310317935
16.41830357142857,-0.16061625628279336
16.451674107142857,0.022989500506363083
16.485044642857144,0.1758789032430806
16.518415178571427,0.2487347190132416
16.551785714285714,0.22277906375106857
16.58515625,0.11251958854337
16.618526785714284,-0.042063290698857836
16.65189732142857,-0.18934470470612375
16.685267857142858,-0.2807248961464262
16.71863839285714,-0.28236091384018336
16.752008928571428,-0.18240380611735937
16.785379464285715,0.006141421973670502
16.81875,0.24655287208460475
16.852120535714285,0.48399125122692604
16.88549107142857,0.6565516451782821
16.91886160714286,0.7114521113241189
16.95223214285714,0.6227736463223096
16.98560267857143,0.40382590521143663
17.018973214285715,0.10677064540587342
17.05234375,-0.19357166318267105
17.085714285714285,-0.4270027581013134
17.119084821428572,-0.5545439866595854
17.152455357142856,-0.5811724136554413
17.185825892857142,-0.5477433552242206
17.21919642857143,-0.506149481025561
17.252566964285712,-0.491143529752897
17.2859375,-0.5040903539542289
17.319308035714286,-0.5168292275684448
17.35267857142857,-0.4920668675567151
17.386049107142856,-0.4074583629955232
17.419419642857143,-0.26921444631404606
17.45279017857143,-0.10804947681793882
17.486160714285713,0.039085081773830396
17.51953125,0.1501436042614749
17.552901785714287,0.2297113629992976
17.58627232142857,0.3049008191208879
