Frequency (Hz),Amplitude
0.0,5.338689088168215
0.01978021978021978,5.336088854955784
0.03956043956043956,5.328290806960776
0.05934065934065934,5.3153028974756635
0.07912087912087912,5.297138376562285
0.0989010989010989,5.273815782992345
0.11868131868131868,5.245358933124549
0.13846153846153844,5.211796906884873
0.15824175824175823,5.173164031073201
0.17802197802197803,5.129499860283627
0.1978021978021978,5.080849155799781
0.21758241758241756,5.02726186291372
0.23736263736263735,4.968793087220305
0.2571428571428572,4.905503070564654
0.2769230769230769,4.83745716747275
0.2967032967032967,4.764725823084408
0.31648351648351647,4.6873845538419925
0.3362637362637363,4.605513932483534
0.35604395604395606,4.519199579261602
0.3758241758241758,4.428532161785537
0.3956043956043956,4.33360740649705
0.4153846153846154,4.234526125583602
0.4351648351648351,4.131394264172786
0.45494505494505494,4.024322974021694
0.4747252747252747,3.9134287217396118
0.4945054945054945,3.798833442034308
0.5142857142857143,3.680664749799794
0.5340659340659341,3.5590562294276196
0.5538461538461538,3.4341478260540943
0.5736263736263736,3.30608637234047
0.5934065934065934,3.1750262970120113
0.6131868131868132,3.041130579576439
0.6329670329670329,2.904572042239402
0.6527472527472528,2.7655351095205125
0.6725274725274726,2.6242182256811883
0.6923076923076923,2.480837211676737
0.7120879120879121,2.335629986832272
0.7318681318681318,2.18886330983915
0.7516483516483516,2.040842568442582
0.7714285714285715,1.891926273528056
0.7912087912087912,1.7425479847109735
0.810989010989011,1.593250269508816
0.8307692307692308,1.4447386464049117
0.8505494505494506,1.2979695197905605
0.8703296703296702,1.1542970259696355
0.8901098901098901,1.0157224242674037
0.9098901098901099,0.8853162508260102
0.9296703296703297,0.7678937575363586
0.9494505494505494,0.6708865677151181
0.9692307692307692,0.6046674413443934
0.989010989010989,0.5801719274144006
1.0087912087912088,0.6026088784489415
1.0285714285714287,0.6671852866715816
1.0483516483516484,0.763070561866996
1.0681318681318681,0.8797855318829384
1.087912087912088,1.0097635463300076
1.1076923076923075,1.1480907962423288
1.1274725274725275,1.2916348511204057
1.1472527472527472,1.4383569628558974
1.1670329670329669,1.5868801263500392
1.1868131868131868,1.7362336439960033
1.2065934065934065,1.8857027833661868
1.2263736263736265,2.034738835752076
1.2461538461538462,2.182904005476249
1.2659340659340659,2.329836755996999
1.2857142857142858,2.4752294605640075
1.3054945054945055,2.6188136431352906
1.3252747252747252,2.760350018979622
1.3450549450549452,2.8996216425563817
1.3648351648351649,3.03642911158339
1.3846153846153846,3.1705871595431576
1.4043956043956045,3.3019222032847213
1.4241758241758242,3.4302705588593096
1.443956043956044,3.555477132158235
1.4637362637362636,3.677394451667761
1.4835164835164834,3.795881950865722
1.5032967032967033,3.9108054348489265
1.523076923076923,4.022036684282864
1.542857142857143,4.129453162599144
1.5626373626373626,4.232937801390028
1.5824175824175823,4.3323788453752305
1.6021978021978023,4.427669742946897
1.621978021978022,4.518709071673072
1.6417582417582417,4.605400490625341
1.6615384615384616,4.687652713244588
1.6813186813186813,4.76537949584718
1.7010989010989013,4.838499637925334
1.720879120879121,4.906936991199525
1.7406593406593405,4.9706204750001035
1.7604395604395604,5.029484096036917
1.7802197802197801,5.083466970992618
1.7999999999999998,5.132513350673368
1.8197802197802198,5.176572644687507
1.8395604395604395,5.215599445813545
1.8593406593406594,5.2495535533727224
1.879120879120879,5.278399995048149
1.8989010989010988,5.302109046696854
1.9186813186813187,5.320656249788763
1.9384615384615385,5.334022426181288
1.9582417582417584,5.34219369000258
1.978021978021978,5.345161456473603
1.9978021978021978,5.342922447550405
2.0175824175824175,5.335478694315798
2.0373626373626372,5.32283753609496
2.0571428571428574,5.305011616314293
2.076923076923077,5.2820188751679735
2.096703296703297,5.253882539204204
2.1164835164835165,5.220631107994061
2.1362637362637362,5.182298338102089
2.1560439560439564,5.138923224641606
2.175824175824176,5.09054998077102
2.195604395604396,5.037228015573698
2.215384615384615,4.9790119108668165
2.2351648351648348,4.915961397608285
2.254945054945055,4.848141332722529
2.2747252747252746,4.7756216773520475
2.2945054945054943,4.698477477774002
2.314285714285714,4.616788850512185
2.3340659340659338,4.53064097354315
2.353846153846154,4.440124085965485
2.3736263736263736,4.3453334991056245
2.3934065934065933,4.24636962281731
2.413186813186813,4.143338011756563
2.4329670329670328,4.036349437765343
2.452747252747253,3.925519996295162
2.4725274725274726,3.8109712572174104
2.4923076923076923,3.6928304736439084
2.512087912087912,3.5712308668738735
2.5318681318681318,3.446312011811549
2.5516483516483515,3.3182203559355434
2.5714285714285716,3.187109917313497
2.5912087912087913,3.053143225028599
2.610989010989011,2.9164925914962567
2.6307692307692307,2.77734184489147
2.6505494505494505,2.6358887083538556
2.6703296703296706,2.492348102394395
2.6901098901098903,2.346956787427151
2.70989010989011,2.1999799878078385
2.7296703296703297,2.051721005202682
2.7494505494505495,1.9025354410978512
2.769230769230769,1.7528526944753575
2.7890109890109893,1.6032092308202357
2.808791208791209,1.4543013866828327
2.8285714285714287,1.3070713911353473
2.8483516483516484,1.1628509698199132
2.8681318681318677,1.0236053464851524
2.887912087912088,0.8923472309141732
2.9076923076923076,0.7738037502544474
2.9274725274725273,0.6752956530737125
2.947252747252747,0.6071360381876887
2.9670329670329667,0.5804298413438462
2.986813186813187,0.6008455956571945
3.0065934065934066,0.6639890107064912
3.0263736263736263,0.7590747057541773
3.046153846153846,0.8754619371371697
3.0659340659340657,1.005416163721512
3.085714285714286,1.1439089288124364
3.1054945054945056,1.2877385892379818
3.1252747252747253,1.4348256177291163
3.145054945054945,1.583768619998617
3.1648351648351647,1.7335818505711498
3.184615384615385,1.8835409339333566
3.2043956043956046,2.033090723298948
3.2241758241758243,2.181788937587993
3.243956043956044,2.329270776404427
3.2637362637362637,2.4752261322501066
3.2835164835164834,2.619384561525248
3.3032967032967036,2.7615051548107274
3.3230769230769233,2.90136957480909
3.342857142857143,3.0387771879792327
3.3626373626373627,3.1735416084423114
3.3824175824175824,3.3054882124518405
3.4021978021978025,3.4344523313365385
3.4219780219780223,3.560277926147541
3.441758241758242,3.6828166091545005
3.4615384615384617,3.8019269182786974
3.481318681318681,3.91747377808551
3.501098901098901,4.029328099767141
3.520879120879121,4.137366485582801
3.5406593406593405,4.241471012383933
3.5604395604395602,4.341529075370414
3.58021978021978,4.437433277918512
3.5999999999999996,4.529081356740771
3.61978021978022,4.616376134154518
3.6395604395604395,4.699225491107117
3.659340659340659,4.777542356010439
3.679120879120879,4.851244705500381
3.6989010989010986,4.920255574050268
3.718681318681319,4.9845030699926935
3.7384615384615385,5.043920395990711
3.758241758241758,5.098445872379947
3.7780219780219784,5.148022962104062
3.7978021978021976,5.192600296204702
3.8175824175824173,5.23213169901956
3.8373626373626375,5.266576212397597
3.8571428571428568,5.295898118367614
3.876923076923077,5.320066959801848
3.896703296703296,5.339057558704345
3.916483516483517,5.3528500318289085
3.936263736263736,5.361429803396187
3.956043956043956,5.364787614736523
3.9758241758241755,5.362919530736921
3.9956043956043956,5.355826943017947
4.015384615384615,5.343516569811952
4.035164835164835,5.3260004525585405
4.054945054945055,5.303295949278189
4.0747252747252745,5.275425724832331
4.094505494505494,5.242417738228551
4.114285714285715,5.204305227185411
4.134065934065934,5.161126690234787
4.153846153846154,5.112925866711768
4.173626373626373,5.059751715067976
4.193406593406594,5.001658390045077
4.213186813186813,4.938705219368159
4.232967032967033,4.87095668076749
4.252747252747253,4.798482380321411
4.2725274725274724,4.721357033341576
4.292307692307692,4.639660449308971
4.312087912087913,4.553477522731612
4.331868131868132,4.462898232258188
4.351648351648352,4.368017650976348
4.371428571428571,4.268935971595444
4.391208791208792,4.165758551221654
4.410989010989011,4.0585959817614645
4.43076923076923,3.9475641937567123
4.450549450549451,3.8327846038274758
4.4703296703296695,3.7143843191165735
4.49010989010989,3.5924964165394995
4.50989010989011,3.467260320754409
4.52967032967033,3.3388223133355157
4.549450549450549,3.2073362178005858
4.569230769230769,3.072964322656432
4.589010989010989,2.935878630197597
4.608791208791209,2.796262556716407
4.628571428571428,2.6543132669614913
4.648351648351649,2.5102449134470746
4.6681318681318675,2.3642931885235
4.687912087912088,2.216721816371137
4.707692307692308,2.067831969860162
4.7274725274725276,1.9179761945371245
4.747252747252747,1.767579442979655
4.767032967032967,1.6171716090827952
4.786813186813187,1.4674391441623742
4.806593406593407,1.3193091278502582
4.826373626373626,1.1740896676815364
4.846153846153847,1.0337088084447823
4.8659340659340655,0.9011214306081903
4.885714285714286,0.7809708466369555
4.905494505494506,0.6804834453331026
4.9252747252747255,0.609955789580386
4.945054945054945,0.5807409819479129
4.964835164835165,0.5990475347989115
4.984615384615385,0.660890085413051
5.004395604395604,0.7554650930871768
5.024175824175824,0.871898313802371
5.043956043956045,1.0022412951501802
5.0637362637362635,1.141327590434848
5.083516483516483,1.2858754715954135
5.103296703296703,1.4337596535287298
5.123076923076923,1.5835520316074512
5.142857142857143,1.734250676864655
5.162637362637362,1.8851209611036783
5.182417582417583,2.0356009187231745
5.2021978021978015,2.1852434964311356
5.221978021978022,2.3336803759437306
5.241758241758242,2.48059872071017
5.2615384615384615,2.625725865881367
5.281318681318681,2.7688190145958025
5.301098901098901,2.9096581657101206
5.320879120879121,3.0480411742007907
5.340659340659341,3.1837802482169315
5.36043956043956,3.3166994322789702
5.380219780219781,3.44663277910904
5.3999999999999995,3.573423009911574
5.41978021978022,3.6969205260583755
5.43956043956044,3.8169826768357225
5.4593406593406595,3.9334732159250154
5.479120879120879,4.046261898406486
5.498901098901099,4.155224183314154
5.518681318681319,4.260241016064472
5.538461538461538,4.361198671690506
5.558241758241758,4.457988644569736
5.578021978021979,4.550507573795659
5.5978021978021975,4.638657195889968
5.617582417582418,4.722344318444308
5.637362637362637,4.801480809700028
5.6571428571428575,4.875983600148874
5.676923076923077,4.945774693057937
5.696703296703297,5.01078118145403
5.716483516483517,5.070935269593064
5.736263736263735,5.126174297324143
5.756043956043956,5.176440766060618
5.775824175824176,5.221682365311796
5.795604395604395,5.261851998921899
5.815384615384615,5.29690781031988
5.835164835164835,5.326813206211308
5.854945054945055,5.351536878249757
5.874725274725275,5.371052822313384
5.894505494505494,5.385340355087938
5.914285714285715,5.3943841277222315
5.934065934065933,5.398174136379285
5.953846153846154,5.396705729558198
5.973626373626374,5.389979612108967
5.993406593406593,5.378001845908154
6.013186813186813,5.360783847207375
6.032967032967033,5.338342380711546
6.052747252747253,5.3106995504904235
6.072527472527473,5.277882787877134
6.092307692307692,5.239924836562432
6.112087912087913,5.196863735155769
6.131868131868131,5.148742797555729
6.151648351648352,5.0956105915564125
6.171428571428572,5.037520916215842
6.191208791208791,4.974532778633155
6.210989010989011,4.906710370927376
6.230769230769231,4.83412304839143
6.2505494505494505,4.756845310019175
6.270329670329671,4.674956782884506
6.29010989010989,4.588542212207255
6.309890109890111,4.497691459393843
6.329670329670329,4.402499510922996
6.349450549450549,4.303066501701829
6.36923076923077,4.19949775750317
6.3890109890109885,4.091903862394526
6.408791208791209,3.98040075879665
6.428571428571428,3.8651098901287964
6.4483516483516485,3.7461583991411675
6.468131868131868,3.6236793993419263
6.487912087912088,3.4978123428910917
6.507692307692308,3.368703516695309
6.527472527472527,3.236506710305488
6.547252747252747,3.1013841162942017
6.567032967032967,2.9635075487115845
6.5868131868131865,2.823060102161887
6.606593406593407,2.680238429723116
6.626373626373626,2.5352559033638347
6.6461538461538465,2.3883470541244596
6.665934065934065,2.239773902626249
6.685714285714286,2.089835138484624
6.705494505494506,1.938879688251334
6.725274725274725,1.7873272050545896
6.745054945054945,1.6356997529922757
6.764835164835165,1.4846720742178208
6.7846153846153845,1.3351534962578535
6.804395604395605,1.1884248836611186
6.824175824175824,1.0463723157853506
6.8439560439560445,0.9118873697948359
6.863736263736263,0.7895260902358341
6.883516483516484,0.6864282755591669
6.903296703296704,0.6129154358589499
6.923076923076923,0.5806917806103622
6.942857142857143,0.5966396222332039
6.962637362637362,0.6572289034159582
6.9824175824175825,0.7515633175778164
7.002197802197802,0.8684346629804648
7.021978021978022,0.9996141967198937
7.041758241758242,1.139763877091287
7.061538461538461,1.2855065256781983
7.081318681318681,1.4346643032535908
7.101098901098901,1.5857794105394047
7.1208791208791204,1.7378324173135373
7.140659340659341,1.8900778421700122
7.16043956043956,2.0419465964909866
7.1802197802197805,2.1929866598352152
7.199999999999999,2.3428260281771593
7.21978021978022,2.491148960600533
7.23956043956044,2.63768037543542
7.259340659340659,2.782175369562599
7.279120879120879,2.9244120372023246
7.298901098901099,3.0641864620053005
7.318681318681318,3.2013091706291776
7.338461538461539,3.3356025879657563
7.358241758241758,3.4668991908695896
7.3780219780219785,3.5950401567304646
7.397802197802197,3.719874367659176
7.417582417582418,3.841257673545291
7.437362637362638,3.9590523457492375
7.457142857142857,4.073126672617159
7.476923076923077,4.183354661444581
7.496703296703297,4.289615820938401
7.516483516483516,4.391795004921447
7.536263736263736,4.4897823028372335
7.556043956043957,4.583472966113683
7.575824175824176,4.672767362017209
7.595604395604395,4.757570948539396
7.615384615384615,4.837794265290646
7.635164835164835,4.913352936458604
7.654945054945055,4.984167682715868
7.674725274725275,5.0501643395980995
7.694505494505494,5.111273880367093
7.7142857142857135,5.167432441759821
7.734065934065935,5.218581351329016
7.753846153846154,5.264667155322974
7.7736263736263735,5.305641646246667
7.793406593406592,5.341461889403231
7.813186813186814,5.372090247843525
7.832967032967034,5.397494405257461
7.852747252747252,5.4176473864295644
7.872527472527472,5.432527574956615
7.892307692307693,5.442118727990064
7.912087912087912,5.446409987823132
7.931868131868132,5.445395890193814
7.951648351648351,5.439076369222352
7.971428571428572,5.427456758946767
7.991208791208791,5.410547791463872
8.010989010989011,5.388365591727431
8.03076923076923,5.360931669101273
8.05054945054945,5.328272905814292
8.07032967032967,5.290421542518453
8.09010989010989,5.247415161211772
8.10989010989011,5.1992966658584265
8.129670329670331,5.1461142611198865
8.149450549450549,5.087921429708384
8.169230769230769,5.024776908991116
8.189010989010988,4.956744667616489
8.20879120879121,4.883893883108913
8.22857142857143,4.806298921597224
8.248351648351647,4.724039321114718
8.268131868131867,4.637199780254603
8.287912087912087,4.5458701544043585
8.307692307692308,4.450145462348108
8.327472527472528,4.350125906758019
8.347252747252746,4.245916913051929
8.367032967032966,4.137629192353822
8.386813186813187,4.025378835967745
8.406593406593407,3.909287451022248
8.426373626373627,3.7894823499859767
8.446153846153845,3.6660968109234826
8.465934065934066,3.539270431131868
8.485714285714286,3.409149604885457
8.505494505494505,3.27588816749039
8.525274725274725,3.1396482643522594
8.545054945054945,3.000601527838043
8.564835164835165,2.8589306803930876
8.584615384615384,2.7148317361352063
8.604395604395604,2.5685170556168297
8.624175824175826,2.420219637409166
8.643956043956043,2.2701992360380254
8.663736263736263,2.1187512317826993
8.683516483516483,1.9662197391117655
8.703296703296704,1.8130174012290743
8.723076923076924,1.6596560035850003
8.742857142857142,1.506795065691615
8.762637362637362,1.3553211078780034
8.782417582417583,1.206480487913805
8.802197802197803,1.0621070411508362
8.821978021978023,0.9250152714348292
8.84175824175824,0.7996585406041249
8.86153846153846,0.6930837158476603
8.881318681318682,0.6156741123923843
8.901098901098901,0.5796230493109668
8.920879120879121,0.5927066275786169
8.940659340659339,0.6519591417092853
8.96043956043956,0.7462994581990421
8.98021978021978,0.8640368819737643
9.0,0.9965620903444228
9.01978021978022,1.138315282530942
9.03956043956044,1.2858015471884396
9.05934065934066,1.4367810934638143
9.079120879120879,1.5897626258271154
9.098901098901099,1.7437077794431812
9.11868131868132,1.8978597573802702
9.138461538461538,2.051642253550981
9.158241758241758,2.2045982950317793
9.178021978021977,2.356352208039176
9.197802197802199,2.506585323409969
9.217582417582419,2.655020066967084
9.237362637362637,2.8014093023407503
9.257142857142856,2.945529046154654
9.276923076923078,3.0871733985842646
9.296703296703297,3.2261509602039373
9.316483516483517,3.3622822653817526
9.336263736263735,3.4953979232662955
9.356043956043957,3.6253372592386537
9.375824175824176,3.75194731549054
9.395604395604396,3.8750821126855537
9.415384615384616,3.9946021036520274
9.435164835164835,4.11037376978081
9.454945054945055,4.222269324424632
9.474725274725275,4.3301664971365135
9.494505494505495,4.433948379353753
9.514285714285714,4.533503316995398
9.534065934065934,4.628724838973043
9.553846153846154,4.7195116132078905
9.573626373626373,4.805767423671003
9.593406593406593,4.887401163404122
9.613186813186815,4.9643268395680735
9.632967032967032,5.03646358739584
9.652747252747252,5.103735690566312
9.672527472527472,5.166072606009921
9.692307692307693,5.223408991544573
9.712087912087913,5.275684735045356
9.731868131868131,5.322844984094069
9.75164835164835,5.364840175248829
9.771428571428572,5.401626062231208
9.791208791208792,5.43316374245665
9.810989010989012,5.459419681439922
9.83076923076923,5.480365734695579
9.850549450549451,5.495979166828899
9.87032967032967,5.506242667576761
9.89010989010989,5.511144364615264
9.90989010989011,5.5106778330011394
9.92967032967033,5.504842101161471
9.94945054945055,5.4936416533899015
9.96923076923077,5.477086428851236
9.989010989010989,5.455191817139203
10.008791208791209,5.42797865047747
10.028571428571428,5.395473192701708
10.048351648351648,5.357707125213184
10.068131868131868,5.314717530153218
10.08791208791209,5.266546871115731
10.107692307692307,5.213242971793812
10.127472527472527,5.1548589930503015
10.147252747252747,5.091453409014678
10.167032967032966,5.023089982945954
10.186813186813188,4.9498377437695025
10.206593406593406,4.871770964405125
10.226373626373626,4.788969143265351
10.246153846153845,4.701516990633752
10.265934065934067,4.609504422054379
10.285714285714286,4.513026561403928
10.305494505494504,4.412183757018104
10.325274725274724,4.307081615157499
10.345054945054946,4.197831056300989
10.364835164835165,4.084548401353235
10.384615384615385,3.967355496996164
10.404395604395603,3.8463798923183536
10.424175824175824,3.7217550828307044
10.443956043956044,3.5936208434782784
10.463736263736264,3.4621236799633963
10.483516483516484,3.3274174386243405
10.503296703296703,3.1896641308262756
10.523076923076923,3.0490350507400032
10.542857142857143,2.905712299338517
10.562637362637362,2.759890878593976
10.582417582417584,2.6117815983193626
10.602197802197802,2.4616151608069985
10.621978021978022,2.309647984365084
10.641758241758241,2.156170646834989
10.661538461538463,2.001520365287063
10.681318681318682,1.8460998456718132
10.7010989010989,1.6904064505357115
10.72087912087912,1.5350785450445434
10.740659340659342,1.3809712492665411
10.760439560439561,1.2292838358417217
