Time (s),Filtered Signal
0.0,-0.006294737580117574
0.033370535714285714,0.13429248266969482
0.06674107142857143,0.26744395755087924
0.10011160714285713,0.3731671722842065
0.13348214285714285,0.4160364162216401
0.16685267857142858,0.3557679567704191
0.20022321428571427,0.1669437187477871
0.23359375,-0.142434172938515
0.2669642857142857,-0.5243111654325207
0.30033482142857143,-0.9011273476024807
0.33370535714285715,-1.1902757524520433
0.36707589285714287,-1.3321891912639887
0.40044642857142854,-1.3099143262923307
0.43381696428571426,-1.152105525768784
0.4671875,-0.9190277931021468
0.5005580357142857,-0.678437964722767
0.5339285714285714,-0.4817674871318017
0.5672991071428571,-0.34970095311459193
0.6006696428571429,-0.2712834554879682
0.6340401785714286,-0.21477513954629662
0.6674107142857143,-0.1442456307033782
0.70078125,-0.0347996119544488
0.7341517857142857,0.11882612500753048
0.7675223214285715,0.3021267963726587
0.8008928571428571,0.4876719976854915
0.8342633928571428,0.645418538207073
0.8676339285714285,0.752568624315891
0.9010044642857142,0.7998899969368717
0.934375,0.7929507663835093
0.9677455357142857,0.7484694665194032
1.0011160714285714,0.6875339285465003
1.0344866071428571,0.6283676121450318
1.0678571428571428,0.5812432728841808
1.1012276785714286,0.5470267755552471
1.1345982142857143,0.5191737983272317
1.16796875,0.4876390174212545
1.2013392857142857,0.44276876138839233
1.2347098214285714,0.37789420797594114
1.2680803571428572,0.2904365309291143
1.3014508928571429,0.18208694977390655
1.3348214285714286,0.05861811595691762
1.3681919642857143,-0.07064632204500325
1.4015625,-0.1940873027928676
1.4349330357142858,-0.2999675324178199
1.4683035714285715,-0.379064028405887
1.5016741071428572,-0.4267744383059349
1.535044642857143,-0.443892274112282
1.5684151785714286,-0.4360323605008342
1.6017857142857141,-0.41239618861015426
1.6351562499999999,-0.38452989047270236
1.6685267857142856,-0.36496374957037975
1.7018973214285713,-0.36490697098768726
1.735267857142857,-0.3903996261179274
1.7686383928571427,-0.4376853535292242
1.8020089285714285,-0.4902285651599739
1.8353794642857142,-0.5203736588316935
1.86875,-0.497173038249605
1.9021205357142856,-0.39870135689081737
1.9354910714285714,-0.22389564945934645
1.968861607142857,0.00220031266643265
2.002232142857143,0.23368041497671055
2.0356026785714287,0.4185172218503884
2.0689732142857142,0.5168566396699982
2.10234375,0.5148240479955003
2.1357142857142857,0.4278727236059568
2.169084821428571,0.29278049966490444
2.202455357142857,0.1526114641973715
2.2358258928571426,0.0415855795797708
2.2691964285714286,-0.02416617822934301
2.302566964285714,-0.04749757036577894
2.3359375,-0.04422297148990928
2.3693080357142855,-0.033988483620152846
2.4026785714285714,-0.032073995295888474
2.436049107142857,-0.04477545897405892
2.469419642857143,-0.06909280624065957
2.5027901785714284,-0.09584437206350906
2.5361607142857143,-0.11441699371318548
2.56953125,-0.11717374277656191
2.6029017857142858,-0.1019798179743101
2.6362723214285713,-0.07219587471420426
2.669642857142857,-0.034526739741858194
2.7030133928571427,0.00409089511608394
2.7363839285714286,0.03914251370431578
2.769754464285714,0.06969848254359548
2.803125,0.09783174503237926
2.8364955357142856,0.126821183252445
2.8698660714285715,0.1591135707640215
2.903236607142857,0.19496683625281663
2.936607142857143,0.23224637505161988
2.9699776785714285,0.26725602697064427
3.0033482142857144,0.2960452309413327
3.03671875,0.31552464730758817
3.070089285714286,0.32394936138362007
3.1034598214285714,0.32073809937890807
3.1368303571428573,0.3059576832745851
3.170200892857143,0.2799175444320695
3.2035714285714283,0.24313178893497994
3.2369419642857142,0.1965472498480884
3.2703124999999997,0.14166895525820836
3.3036830357142857,0.08026673809238775
3.337053571428571,0.013722058313615466
3.370424107142857,-0.05749482399262972
3.4037946428571426,-0.13361044004822706
3.4371651785714286,-0.21437692565861832
3.470535714285714,-0.297440908035053
3.50390625,-0.3773262169527619
3.5372767857142855,-0.4460795938661107
3.5706473214285714,-0.495871464365247
3.604017857142857,-0.5226744738983723
3.637388392857143,-0.5291791373647464
3.6707589285714284,-0.5249541703038059
3.7041294642857143,-0.5228065328292353
3.7375,-0.5321157655231107
3.7708705357142858,-0.5518523730090217
3.8042410714285713,-0.5669988335586471
3.837611607142857,-0.5513366156582021
3.8709821428571427,-0.4769551714373599
3.9043526785714286,-0.3273279215220086
3.937723214285714,-0.10813553918856066
3.97109375,0.1500560302109488
4.004464285714286,0.399978527876663
4.0378348214285715,0.5941616392553473
4.0712053571428575,0.7025767793525811
4.1045758928571425,0.7230584126505383
4.1379464285714285,0.6794452043157532
4.171316964285714,0.6085911878461808
4.2046875,0.5430581678831324
4.238058035714285,0.4982156547161735
4.271428571428571,0.4696474104813362
4.304799107142857,0.44094157162869024
4.338169642857142,0.39647965547613473
4.371540178571428,0.3316978245277091
4.404910714285714,0.25540217956112904
4.43828125,0.18360780321701414
4.471651785714285,0.12915082341543607
4.505022321428571,0.09338338069295345
4.538392857142857,0.06468935964586817
4.571763392857143,0.024504927388191423
4.605133928571428,-0.04260709090399653
4.638504464285714,-0.14027588767910948
4.671875,-0.2574742308269702
4.705245535714286,-0.37273040030161686
4.738616071428571,-0.46305634214152397
4.771986607142857,-0.5131336516545637
4.805357142857143,-0.520519269479242
4.838727678571429,-0.49482565334339074
4.872098214285714,-0.4517557287050285
4.90546875,-0.40512978827755564
4.938839285714286,-0.3607155803669878
4.972209821428572,-0.31463224216600316
5.005580357142857,-0.25690867796632916
5.038950892857143,-0.17839302597362372
5.072321428571429,-0.07761981315119114
5.105691964285715,0.03586497252153368
5.1390625,0.1437164302711055
5.172433035714286,0.22597381908767103
5.2058035714285715,0.2701181221549832
5.2391741071428575,0.2776294195319888
5.2725446428571425,0.2644215559995648
5.3059151785714285,0.2541996615833266
5.339285714285714,0.26726396893479365
5.3726562499999995,0.3098844882740217
5.406026785714285,0.3696331875314055
5.439397321428571,0.4195651795693031
5.472767857142857,0.4298855710962928
5.506138392857142,0.38178346582926165
5.539508928571428,0.27659145363412896
5.572879464285714,0.1353832426855823
5.60625,-0.011181388409183583
5.639620535714285,-0.1378067212202348
5.672991071428571,-0.23648091353085635
5.706361607142857,-0.31867606754570516
5.739732142857143,-0.40598276688164153
5.773102678571428,-0.5135792045501862
5.806473214285714,-0.6353417958638314
5.83984375,-0.7394252268681973
5.873214285714286,-0.778332034615664
5.906584821428571,-0.709986022702639
5.939955357142857,-0.5199779522333167
5.973325892857143,-0.23359334335409598
6.006696428571429,0.08928446906479695
6.040066964285714,0.3749005613566513
6.0734375,0.5626646019227279
6.106808035714286,0.6261987364750153
6.140178571428572,0.5794369221856875
6.173549107142857,0.46636638888647836
6.206919642857143,0.34054741131359456
6.240290178571429,0.24432585789584663
6.273660714285715,0.19632075114950776
6.30703125,0.190730963811863
6.340401785714286,0.20625080323744394
6.3737723214285715,0.21873588900842594
6.407142857142857,0.21152023656226496
6.4405133928571425,0.17986465216453798
6.4738839285714285,0.12956073378809305
6.507254464285714,0.07225845630672895
6.5406249999999995,0.02058610983513797
6.573995535714285,-0.015134069774035442
6.607366071428571,-0.028579670396948535
6.640736607142857,-0.01856921570680376
6.674107142857142,0.009652692070679723
6.707477678571428,0.043555877765315915
6.740848214285714,0.06448946578043455
6.77421875,0.05219324550374494
6.807589285714285,-0.00778074984311926
6.840959821428571,-0.11644619532508918
6.874330357142857,-0.2574876088499451
6.907700892857143,-0.40005417958271733
6.941071428571428,-0.508229996764753
6.974441964285714,-0.5537073737164085
7.0078125,-0.5262228588440055
7.041183035714286,-0.4370484511733338
7.074553571428571,-0.3139484879368719
7.107924107142857,-0.18989990136839058
7.141294642857143,-0.0905835951705199
7.174665178571429,-0.02595913432362119
7.208035714285714,0.01084600329817372
7.24140625,0.037460588468093026
7.274776785714286,0.07220796361747912
7.308147321428572,0.1247446984301407
7.341517857142857,0.19145906241645222
7.374888392857143,0.257352575647307
7.408258928571429,0.30318385610623827
7.441629464285715,0.31440228771457573
7.475,0.28778058105129933
7.508370535714286,0.23287256682143861
7.5417410714285715,0.16787744992649967
7.575111607142857,0.11204491228709607
7.6084821428571425,0.07821861803946976
7.6418526785714285,0.06881021061924042
7.675223214285714,0.07662280265042326
7.7085937499999995,0.08951503166202668
7.741964285714285,0.0961964399631826
7.775334821428571,0.09029894784470632
7.808705357142857,0.07119678835214384
7.842075892857142,0.0419684015008033
7.875446428571428,0.006301029672500298
7.908816964285714,-0.033653680178556064
7.9421875,-0.0773887551879749
7.975558035714285,-0.12440684954001911
8.008928571428571,-0.1721401682656987
8.042299107142856,-0.2148835691995929
8.075669642857143,-0.24456072787126487
8.109040178571428,-0.25314526801832904
8.142410714285715,-0.2357154956665403
8.17578125,-0.19278121088583294
8.209151785714285,-0.13078418207971276
8.242522321428572,-0.060413039410643035
8.275892857142857,0.006711828171121079
8.309263392857142,0.06171762900832788
8.342633928571429,0.10106120503390582
8.376004464285714,0.1269614014469984
8.409375,0.14547403512924797
8.442745535714286,0.16294793162231402
8.47611607142857,0.18230152360486734
8.509486607142858,0.20075943855103723
8.542857142857143,0.21026448812636458
8.576227678571428,0.2007825016490448
8.609598214285715,0.16542651658612761
8.64296875,0.1052521629426895
8.676339285714285,0.03129272339670289
8.709709821428572,-0.037751541087509055
8.743080357142857,-0.08195191840066927
8.776450892857143,-0.08846056343105628
8.809821428571428,-0.058147273897644444
8.843191964285714,-0.0072530803206846545
8.8765625,0.037396618148397905
8.909933035714285,0.04830201032670027
8.94330357142857,0.008539804146667633
8.976674107142857,-0.08038151080503986
9.010044642857142,-0.1976636166518228
9.04341517857143,-0.31010878330002867
9.076785714285714,-0.38416775395393604
9.11015625,-0.3982540139182336
9.143526785714286,-0.35027290312831477
9.176897321428571,-0.2573830554748973
9.210267857142856,-0.14833659459430054
9.243638392857143,-0.05181562092904934
9.277008928571428,0.014313309561259407
9.310379464285715,0.048505759712233434
9.34375,0.06383148834704927
9.377120535714285,0.08015312114296502
9.410491071428572,0.11384662510987495
9.443861607142857,0.1696943544451474
9.477232142857142,0.23852157321825632
9.510602678571429,0.30145468097058187
9.543973214285714,0.33855393362023267
9.57734375,0.33752753922152784
9.610714285714286,0.29833934928360756
9.64408482142857,0.23178259477160437
9.677455357142858,0.1533416991137922
9.710825892857143,0.0761320909265231
9.744196428571428,0.006988894815696548
9.777566964285715,-0.05233314665967871
9.8109375,-0.10019562616151269
9.844308035714285,-0.13024811168526176
9.877678571428572,-0.13082391181452557
9.911049107142857,-0.09020085412099696
9.944419642857143,-0.005595792858231021
9.977790178571428,0.10913391768025316
10.011160714285714,0.2223117978322787
10.04453125,0.2921955451134049
10.077901785714285,0.2816112987274968
10.11127232142857,0.17363538657135094
10.144642857142857,-0.01865092534568868
10.178013392857142,-0.25319226140538975
10.21138392857143,-0.4712051420401568
10.244754464285714,-0.6163031362623401
10.278125,-0.6531725009098237
10.311495535714286,-0.5785854423699931
10.344866071428571,-0.4207175137985374
10.378236607142856,-0.22753961559609354
10.411607142857143,-0.04932774887064757
10.444977678571428,0.07774123745797848
10.478348214285715,0.1409971555350163
10.51171875,0.1510870485096589
10.545089285714285,0.13354496781218808
10.578459821428572,0.11641031353216819
10.611830357142857,0.11907685979994967
10.645200892857142,0.14635264634931588
10.678571428571429,0.18917940275382603
10.711941964285714,0.2307449692444981
10.745312499999999,0.2548543205022623
10.778683035714286,0.2529646777692648
10.81205357142857,0.22721417937606753
10.845424107142858,0.18859057584358363
10.878794642857143,0.15137538639908812
10.912165178571428,0.1264451413987469
10.945535714285715,0.11639316540230157
10.97890625,0.1145828774558599
11.012276785714285,0.10845941873404412
11.045647321428572,0.08548505189801972
11.079017857142857,0.03885804546768975
11.112388392857143,-0.02963452804637518
11.145758928571428,-0.11074675521389644
11.179129464285714,-0.19192310694331371
11.2125,-0.26201605252675725
11.245870535714285,-0.3140711011707483
11.27924107142857,-0.3450912218054985
11.312611607142857,-0.35370161863007815
11.345982142857142,-0.33796243400834103
11.37935267857143,-0.2953347498177953
11.412723214285714,-0.2251275865314897
11.44609375,-0.1317701594179003
11.479464285714286,-0.026349386793929015
11.512834821428571,0.07529970173664303
11.546205357142856,0.1575765606007118
11.579575892857143,0.2108038994012989
11.612946428571428,0.23461432679497868
11.646316964285715,0.237145372441359
11.6796875,0.23039237553903075
11.713058035714285,0.22414685455466274
11.746428571428572,0.22168661318374547
11.779799107142857,0.21937239463160615
11.813169642857142,0.2101214963442441
11.846540178571429,0.18859603397939093
11.879910714285714,0.15504580212746094
11.913281249999999,0.11557265345951297
11.946651785714286,0.07866034996932106
11.98002232142857,0.04996684776571072
12.013392857142858,0.028402194178046635
12.046763392857143,0.00586811542781096
12.080133928571428,-0.02889824356966572
12.113504464285715,-0.08410881537182575
12.146875,-0.15938159386395193
12.180245535714285,-0.24374037525059644
12.213616071428572,-0.31845875136152463
12.246986607142857,-0.3638006101549206
12.280357142857143,-0.3668082658028309
12.313727678571428,-0.32665461195658024
12.347098214285714,-0.25508644092147315
12.38046875,-0.17173140955166655
12.413839285714285,-0.09644555997920823
12.44720982142857,-0.04222719080342333
12.480580357142857,-0.011823827714116969
12.513950892857142,0.0007682579021475441
12.54732142857143,0.005161938789322715
12.580691964285714,0.008769794643793778
12.6140625,0.01345466522297869
12.647433035714286,0.016296744802616815
12.680803571428571,0.013798443456742339
12.714174107142856,0.006852142007408717
12.747544642857143,0.0032135806634058586
12.780915178571428,0.01545282179129565
12.814285714285713,0.054855036146894964
12.84765625,0.12423171007339054
12.881026785714285,0.2136768281371107
12.914397321428572,0.30221310103569937
12.947767857142857,0.36541764691894324
12.981138392857142,0.3859127591670882
13.014508928571429,0.361761919663102
13.047879464285714,0.30838849168164567
13.081249999999999,0.2524727408222328
13.114620535714286,0.22006906020567668
13.14799107142857,0.22411006420072557
13.181361607142858,0.25709380089647693
13.214732142857143,0.29269854942687157
13.248102678571428,0.29618127319838283
13.281473214285715,0.2394006635016145
13.31484375,0.11399257375401901
13.348214285714285,-0.06325252801657745
13.381584821428572,-0.2555147515145029
13.414955357142857,-0.4196899564878136
13.448325892857143,-0.5230227152733132
13.481696428571428,-0.5555780101489847
13.515066964285714,-0.5333173350245122
13.5484375,-0.49059260473037053
13.581808035714285,-0.4652673021970052
13.61517857142857,-0.4825350367055419
13.648549107142857,-0.5437965595862556
13.681919642857142,-0.6247892127675819
13.71529017857143,-0.6835556024029388
13.748660714285714,-0.6752065697674534
13.78203125,-0.5680751157963405
13.815401785714286,-0.3555564338777167
13.848772321428571,-0.05971205852222621
13.882142857142856,0.2741809317267325
13.915513392857143,0.5898199478457854
13.948883928571428,0.8345601835639869
13.982254464285713,0.9721803444907332
14.015625,0.9905736380474225
14.048995535714285,0.9029984076147184
14.082366071428572,0.7431146795451493
14.115736607142857,0.5552260188797207
14.149107142857142,0.3821043062470638
14.182477678571429,0.25354300183616757
14.215848214285714,0.1790136668172948
14.249218749999999,0.14696544135650638
14.282589285714286,0.13124475814098385
14.31595982142857,0.10242003227526435
14.349330357142858,0.03969149490482174
14.382700892857143,-0.0612838540982394
14.416071428571428,-0.1875714580959305
14.449441964285715,-0.3149914159477933
14.4828125,-0.4179679820419357
14.516183035714285,-0.478832478603824
14.549553571428572,-0.4929374964212327
14.582924107142857,-0.46815855012610974
14.616294642857143,-0.41989153202329316
14.649665178571428,-0.364342165464303
14.683035714285714,-0.3131225627202044
14.71640625,-0.2710202185672297
14.749776785714285,-0.23699256147494074
14.78314732142857,-0.20692284517058349
14.816517857142857,-0.17619157873126237
14.849888392857142,-0.14081526853505544
14.88325892857143,-0.09724607831608888
14.916629464285714,-0.0420048648935055
14.95,0.027591506717029767
14.983370535714286,0.11132307058280252
15.016741071428571,0.20367684643881054
15.050111607142856,0.2930816344885978
15.083482142857143,0.36425407853219
15.116852678571428,0.4035864955187968
15.150223214285713,0.40561277251814
15.18359375,0.37739234246970527
15.216964285714285,0.3379011157387852
15.250334821428572,0.3113440862932512
15.283705357142857,0.31613739610631764
15.317075892857142,0.3539842767777618
15.350446428571429,0.4045769360190475
15.383816964285714,0.42996640021766763
15.417187499999999,0.38863841340616695
15.450558035714286,0.2543587790974142
15.48392857142857,0.03143006397079538
15.517299107142858,-0.2416397913533112
15.550669642857143,-0.5034228073744936
15.584040178571428,-0.692149976046459
15.617410714285715,-0.7700132488455109
15.65078125,-0.7380794674066535
15.684151785714285,-0.6346290463632434
15.717522321428572,-0.5173341224846846
15.750892857142857,-0.4372316675140527
15.784263392857143,-0.41622799251731124
15.817633928571428,-0.438132444638066
15.851004464285714,-0.45693878946642214
15.884375,-0.41833655242669426
15.917745535714285,-0.2848079418965245
15.95111607142857,-0.05350668507378757
15.984486607142857,0.24036253601990154
16.017857142857142,0.5355513374505628
16.05122767857143,0.7666740336231302
16.084598214285712,0.8868499311765896
16.11796875,0.8822837157072633
16.151339285714286,0.7738988218819924
16.18470982142857,0.6066377122989988
16.218080357142856,0.4317211731166369
16.251450892857143,0.2892428988190847
16.28482142857143,0.1974421682715158
16.318191964285713,0.1515968825542629
16.3515625,0.13132279462937127
16.384933035714287,0.11194209107829005
16.41830357142857,0.07470150062471198
16.451674107142857,0.012077305561727357
16.485044642857144,-0.07277242956197019
16.518415178571427,-0.17062835537127768
16.551785714285714,-0.27170291050000994
16.58515625,-0.3690938253571806
16.618526785714284,-0.45885683084675427
16.65189732142857,-0.5373043324769665
16.685267857142858,-0.5975674126815467
16.71863839285714,-0.6278425993613298
16.752008928571428,-0.6130117829598405
16.785379464285715,-0.5397779138439094
16.81875,-0.4036688136457042
16.852120535714285,-0.2149479953346291
16.88549107142857,-0.0003077888635592047
16.91886160714286,0.2014937042661109
16.95223214285714,0.34951233147149446
16.98560267857143,0.4129983379681659
17.018973214285715,0.38186761243398304
17.05234375,0.2712615223975389
17.085714285714285,0.11825148795482449
17.119084821428572,-0.0284504566613774
17.152455357142856,-0.1225024956287711
17.185825892857142,-0.13322474574808757
17.21919642857143,-0.054104113479536475
17.252566964285712,0.09589064683663699
17.2859375,0.27826932682036387
17.319308035714286,0.4461688825657956
17.35267857142857,0.5572511755946634
17.386049107142856,0.5847004481102884
17.419419642857143,0.523491886656653
17.45279017857143,0.39054499683890237
17.486160714285713,0.21898061186064607
17.51953125,0.048143680533974505
17.552901785714287,-0.08786219139636196
17.58627232142857,-0.1698601745107034
17.619642857142857,-0.19852703359447807
17.653013392857144,-0.19282553092001273
17.686383928571427,-0.1822059144072709
