Time (s),Filtered Signal
0.0,0.09139416047871723
0.03337008452774715,0.0005100499294390674
0.0667401690554943,-0.08697198746472495
0.10011025358324147,-0.16468975931564556
0.1334803381109886,-0.22332791620641637
0.16685042263873576,-0.25357875148690323
0.20022050716648293,-0.2506399917371677
0.23359059169423008,-0.21728512521330506
0.2669606762219772,-0.16331188240193525
0.30033076074972437,-0.10155128895366755
0.3337008452774715,-0.04297991738358933
0.36707092980521866,0.005910373379406337
0.40044101433296586,0.04205635963879105
0.433811098860713,0.062602016626362
0.46718118338846015,0.0630303523533863
0.5005512679162073,0.039489256072861266
0.5339213524439544,-0.005103504990242105
0.5672914369717016,-0.05533290892550496
0.6006615214994487,-0.08351449350882047
0.6340316060271959,-0.058968320753594636
0.667401690554943,0.03604027542711553
0.7007717750826902,0.1913808841960715
0.7341418596104373,0.3644231234266642
0.7675119441381845,0.4910703108940714
0.8008820286659317,0.5099744544320102
0.8342521131936789,0.3897238037060121
0.867622197721426,0.14578520082020802
0.9009922822491732,-0.1620807952451303
0.9343623667769203,-0.4519883908155272
0.9677324513046675,-0.6520197901405423
1.0011025358324146,-0.7276161023974146
1.0344726203601617,-0.6920612029666244
1.0678427048879089,-0.5962493694217853
1.101212789415656,-0.5037583655959721
1.1345828739434032,-0.4635057995857288
1.1679529584711503,-0.4921478399390586
1.2013230429988975,-0.5725182991192678
1.2346931275266446,-0.666183737725228
1.2680632120543918,-0.7317966431062836
1.301433296582139,-0.7393130700069889
1.334803381109886,-0.6737656517247844
1.3681734656376332,-0.5290378990438389
1.4015435501653803,-0.2982984165247708
1.4349136346931275,0.03004849961897366
1.4682837192208746,0.46530361386510927
1.5016538037486218,0.9979273644736227
1.535023888276369,1.5824269261225363
1.568393972804116,2.1316710707608566
1.6017640573318634,2.5310568563613103
1.6351341418596106,2.6717133547562346
1.6685042263873577,2.491314752546761
1.7018743109151049,2.0047450865078247
1.735244395442852,1.308816073122842
1.7686144799705992,0.5554254974733385
1.8019845644983463,-0.09846087779740376
1.8353546490260935,-0.5444731422429794
1.8687247335538406,-0.7578820408572225
1.9020948180815878,-0.799132700434901
1.935464902609335,-0.7813662635306996
1.968834987137082,-0.81831567907426
2.002205071664829,-0.975404527180919
2.0355751561925763,-1.2448625217728886
2.0689452407203235,-1.5541766966076385
2.1023153252480706,-1.8018195531284062
2.1356854097758178,-1.9023765918495303
2.169055494303565,-1.8204412601161792
2.202425578831312,-1.579745453103007
2.235795663359059,-1.2467527091381687
2.2691657478868064,-0.8995914435625026
2.3025358324145535,-0.5981599016921123
2.3359059169423007,-0.3679607408604847
2.369276001470048,-0.20156913300853369
2.402646085997795,-0.07270107600365472
2.436016170525542,0.04697518816670133
2.4693862550532892,0.17717373248269985
2.5027563395810364,0.3279847986473973
2.5361264241087835,0.5056258598422501
2.5694965086365307,0.718135008541648
2.602866593164278,0.9747588031339152
2.636236677692025,1.2773357141239405
2.669606762219772,1.607876014157799
2.7029768467475193,1.920421803786883
2.7363469312752664,2.144754283944214
2.7697170158030135,2.204411784744427
2.8030871003307607,2.0439838520712876
2.836457184858508,1.6544456737233424
2.869827269386255,1.0839624373743453
2.903197353914002,0.4267441184200271
2.9365674384417493,-0.20745644537519953
2.9699375229694964,-0.730467724892803
3.0033076074972436,-1.1021874007750931
3.0366776920249907,-1.3336629177838422
3.070047776552738,-1.4659215091043547
3.103417861080485,-1.5367827886153982
3.136787945608232,-1.5545549315519283
3.1701580301359793,-1.4936025500801065
3.203528114663727,-1.3142530207783811
3.236898199191474,-0.9954736201882839
3.270268283719221,-0.5612473572847794
3.3036383682469683,-0.08487096276303384
3.3370084527747155,0.3324647604705975
3.3703785373024626,0.5984789584527889
3.4037486218302098,0.6637829913230952
3.437118706357957,0.5372585584966525
3.470488790885704,0.2777868618432943
3.503858875413451,-0.030458173045041784
3.5372289599411983,-0.3053676021268826
3.5705990444689455,-0.48527556391814947
3.6039691289966926,-0.5348340777829719
3.63733921352444,-0.4427236601697916
3.670709298052187,-0.21812901784586158
3.704079382579934,0.11030692672962572
3.7374494671076812,0.4946736544966741
3.7708195516354284,0.8715999418660898
3.8041896361631755,1.17248065799368
3.8375597206909227,1.3383889981583335
3.87092980521867,1.3341352617194808
3.904299889746417,1.155608741880766
3.937669974274164,0.8278172022607855
3.9710400588019112,0.39565997316598134
4.004410143329658,-0.08749223130095941
4.0377802278574055,-0.5685785318979144
4.071150312385153,-0.9991628380770639
4.1045203969129,-1.3369525502525113
4.137890481440647,-1.547733587114097
4.171260565968394,-1.6096071339104832
4.204630650496141,-1.5184420895460717
4.238000735023888,-1.2912186069996565
4.2713708195516356,-0.9641512866246473
4.304740904079383,-0.5850105893629404
4.33811098860713,-0.20217339213293725
4.371481073134877,0.14537803675169414
4.404851157662624,0.43357955744890214
4.438221242190371,0.6533008071090453
4.471591326718118,0.8065442563718462
4.504961411245866,0.9018936220936349
4.538331495773613,0.9516479424801698
4.57170158030136,0.9709958941861723
4.605071664829107,0.9774531214185369
4.638441749356854,0.9880915533559325
4.671811833884601,1.0135537959264096
4.7051819184123485,1.0508141141640188
4.738552002940096,1.079182517565225
4.771922087467843,1.0639826494969369
4.80529217199559,0.9688588760775084
4.838662256523337,0.7723327955860927
4.872032341051084,0.48037672130555237
4.905402425578831,0.1274730903056085
4.9387725101065785,-0.23564920743867282
4.972142594634326,-0.5617169863919111
5.005512679162073,-0.823493149513585
5.03888276368982,-1.0185090635914027
5.072252848217567,-1.1606845032035034
5.105622932745314,-1.2656543943768734
5.138993017273061,-1.339786867479883
5.1723631018008085,-1.3791941608298754
5.205733186328556,-1.377484255142458
5.239103270856303,-1.3350116401730758
5.27247335538405,-1.2618632593152888
5.305843439911797,-1.1716757052592954
5.339213524439544,-1.0700587692535053
5.372583608967291,-0.9455083093162601
5.4059536934950385,-0.7698066373102195
5.439323778022786,-0.5097781066459326
5.472693862550533,-0.1459266422345751
5.50606394707828,0.31074686516927286
5.539434031606027,0.8125722413631642
5.572804116133774,1.2843791165706155
5.606174200661521,1.645861154315784
5.6395442851892685,1.8383055208692904
5.672914369717016,1.8437600113633306
5.706284454244763,1.6875493168527886
5.73965453877251,1.4232207119102984
5.773024623300257,1.1084132244047533
5.806394707828004,0.7851880968016478
5.839764792355751,0.47544334883997064
5.873134876883499,0.19230638475330591
5.906504961411246,-0.042487974629417335
5.939875045938993,-0.1903124379301044
5.97324513046674,-0.20684672876758348
6.006615214994487,-0.07052013179475829
6.039985299522234,0.18745528458080174
6.073355384049981,0.47260330709398307
6.106725468577729,0.6500342330482806
6.140095553105476,0.5967159906666994
6.173465637633223,0.26067908534292733
6.20683572216097,-0.3034729345898709
6.240205806688717,-0.9448054553522602
6.273575891216464,-1.472041965960768
6.3069459757442115,-1.7312935794834827
6.340316060271959,-1.6690218067354268
6.373686144799706,-1.3501546400961884
6.407056229327454,-0.9235349973363222
6.440426313855201,-0.552990623695367
6.473796398382948,-0.34824731667096553
6.507166482910695,-0.32758168217943306
6.540536567438442,-0.42578659089770055
6.5739066519661895,-0.5375501551185364
6.607276736493937,-0.5705271710261796
6.640646821021684,-0.48164873069154435
6.674016905549431,-0.28302089896497495
6.707386990077178,-0.021440848215501206
6.740757074604925,0.25196542819876455
6.774127159132672,0.5039411121321824
6.8074972436604195,0.7234269754960436
6.840867328188167,0.9103614659545188
6.874237412715914,1.059925008107647
6.907607497243661,1.1542424315648465
6.940977581771408,1.1674873114951463
6.974347666299155,1.0813581808754689
7.007717750826902,0.9013011321009939
7.0410878353546495,0.6631266027048274
7.074457919882397,0.4248461500267573
7.107828004410144,0.24648207448146733
7.141198088937891,0.1668608584915642
7.174568173465638,0.18780654938331467
7.207938257993385,0.2724059274510806
7.241308342521132,0.3575789161422002
7.27467842704888,0.3755179566043337
7.308048511576627,0.2760402984774318
7.341418596104374,0.04278991653429607
7.374788680632121,-0.3008573455675994
7.408158765159868,-0.6971188078540022
7.441528849687615,-1.068747971450662
7.4748989342153624,-1.3400733528511326
7.50826901874311,-1.458941094849768
7.541639103270857,-1.413079495676706
7.575009187798604,-1.2345152651483322
7.608379272326351,-0.9884218439444195
7.641749356854098,-0.7483225991274848
7.675119441381845,-0.5660908432023346
7.7084895259095925,-0.4493551083230252
7.74185961043734,-0.3576835993522174
7.775229694965087,-0.22162301952133256
7.808599779492834,0.021975376614081894
7.841969864020581,0.39375591057811293
7.875339948548328,0.8523030908870508
7.908710033076075,1.3022228996989988
7.9420801176038225,1.6282639218920998
7.97545020213157,1.7412320192092485
8.008820286659317,1.6151534039215392
8.042190371187063,1.29860219189283
8.075560455714811,0.8948387982672853
8.108930540242557,0.5197110250620953
8.142300624770305,0.25619071213568534
8.175670709298052,0.12530572233244688
8.2090407938258,0.08502411863447569
8.242410878353546,0.05570511210889368
8.275780962881294,-0.0406441745813237
8.30915104740904,-0.24487984395519824
8.342521131936788,-0.5434051563313049
8.375891216464534,-0.8746144636291008
8.409261300992283,-1.1546100776550292
8.442631385520029,-1.3105220202399903
8.476001470047777,-1.3077780546389652
8.509371554575523,-1.1609898615330176
8.542741639103271,-0.9251040203500362
8.57611172363102,-0.6714409291526446
8.609481808158765,-0.4592329920120125
8.642851892686513,-0.3148811952529076
8.67622197721426,-0.227537089068857
8.709592061742008,-0.16209125035832259
8.742962146269754,-0.0824040378033935
8.776332230797502,0.02746163160065274
8.809702315325248,0.15535259656660427
8.843072399852996,0.27089494589865115
8.876442484380743,0.34773552460493823
8.90981256890849,0.3852735973383333
8.943182653436237,0.41623267602790165
8.976552737963985,0.4933974752355332
9.009922822491731,0.660252518422521
9.04329290701948,0.920066509000692
9.076662991547225,1.2206415197852716
9.110033076074973,1.4655292557933164
9.14340316060272,1.5497936317779077
9.176773245130468,1.4055942066530023
9.210143329658214,1.0365528563116613
9.243513414185962,0.5236327685068201
9.276883498713708,-0.0022348275342765956
9.310253583241456,-0.41007989945820844
9.343623667769203,-0.6197499684108685
9.37699375229695,-0.6311360708183191
9.410363836824697,-0.5189438710252554
9.443733921352445,-0.3959843201380764
9.477104005880191,-0.36222475271811416
9.51047409040794,-0.46278549889763576
9.543844174935685,-0.6730642257389821
9.577214259463434,-0.915932318547411
9.61058434399118,-1.1010162773296017
9.643954428518928,-1.1665280456526355
9.677324513046674,-1.104160472924435
9.710694597574422,-0.956720502148324
9.744064682102168,-0.7916830607378836
9.777434766629916,-0.6651270313183256
9.810804851157663,-0.5942772168617769
9.84417493568541,-0.5515860437903877
9.877545020213157,-0.48187046389147326
9.910915104740905,-0.33244862069265213
9.944285189268651,-0.08046337817146217
9.9776552737964,0.25564870975651716
10.011025358324146,0.6243315438475785
10.044395442851894,0.9623094709127942
10.07776552737964,1.2172921611776866
10.111135611907388,1.361723892981329
10.144505696435134,1.394172037767208
10.177875780962882,1.3321286969264001
10.211245865490628,1.2030043515023627
10.244615950018376,1.0377269071032464
10.277986034546123,0.8663964375311345
10.31135611907387,0.7124930807266128
10.344726203601617,0.584047664378934
10.378096288129365,0.4655927910992702
10.411466372657111,0.31874011781031325
10.44483645718486,0.09721022987635826
10.478206541712606,-0.22632749802384675
10.511576626240354,-0.6341624449978006
10.5449467107681,-1.054738102168951
10.578316795295848,-1.381288795647407
10.611686879823594,-1.5135938837575864
10.645056964351342,-1.404214460027464
10.678427048879088,-1.0855639311202423
10.711797133406836,-0.6623624974956075
10.745167217934583,-0.27130606855083034
10.77853730246233,-0.026423133523747453
10.811907386990077,0.024640545944407986
10.845277471517825,-0.08551976815433283
10.878647556045571,-0.26389930881760126
10.91201764057332,-0.3990992554494791
10.945387725101066,-0.40590416536870766
10.978757809628814,-0.25449458075396686
11.01212789415656,0.024711736562972243
11.045497978684308,0.3587064876982001
11.078868063212054,0.6620892577387765
11.112238147739802,0.8671080938146443
11.145608232267548,0.9431733748353146
11.178978316795297,0.9010022979248274
11.212348401323043,0.7826841372889216
11.24571848585079,0.6434076192496414
11.279088570378537,0.5320640017478381
11.312458654906285,0.47652548767562597
11.345828739434031,0.4764535744478114
11.37919882396178,0.5038404554474111
11.412568908489526,0.5102697577901706
11.445938993017274,0.43980674146684334
11.47930907754502,0.24611727075067713
11.512679162072768,-0.08921409634184196
11.546049246600514,-0.5426297974376703
11.579419331128262,-1.045439098335456
11.612789415656009,-1.4960527617508805
11.646159500183757,-1.7865822409643313
11.679529584711503,-1.836190265863373
11.71289966923925,-1.6194017500998485
11.746269753766997,-1.178222705138705
11.779639838294745,-0.6123703131121093
11.813009922822491,-0.04994703618807204
11.84638000735024,0.3917325806215635
11.879750091877986,0.6415528910680405
11.913120176405734,0.6937072366089874
11.94649026093348,0.6037823612478138
11.979860345461228,0.4636722407831494
12.013230429988974,0.36526404560596365
12.046600514516722,0.3670515926641777
12.079970599044469,0.4762285647313241
12.113340683572217,0.6520060210078922
12.146710768099963,0.8269097317788867
12.180080852627711,0.9356731431586721
12.213450937155457,0.9391665056226524
12.246821021683205,0.8343210910709062
12.280191106210951,0.6482481257049584
12.3135611907387,0.42205510171497757
12.346931275266446,0.19372349545169554
12.380301359794194,-0.011789701899285389
12.41367144432194,-0.18231231749342539
12.447041528849688,-0.3113679768781617
12.480411613377434,-0.391175284854478
12.513781697905182,-0.41180534870247587
12.547151782432929,-0.3679012922754897
12.580521866960677,-0.2688191846857633
12.613891951488423,-0.14497269403871563
12.647262036016171,-0.04439955657193781
12.680632120543917,-0.01851100052775137
12.714002205071665,-0.101994654399318
12.747372289599411,-0.29568934683465165
12.78074237412716,-0.5608314427666704
12.814112458654908,-0.8285002487122188
12.847482543182654,-1.0215718735836459
12.880852627710402,-1.0810599550145088
12.914222712238148,-0.9866728985462206
12.947592796765896,-0.763438167480961
12.980962881293642,-0.47149043509212973
13.01433296582139,-0.18270645224808704
13.047703050349137,0.0466543917382568
13.081073134876885,0.19613861761728657
13.114443219404631,0.28564584217639744
13.147813303932379,0.36243117342493847
13.181183388460125,0.4762676509755645
13.214553472987873,0.6536088795341923
13.24792355751562,0.8818936664310194
13.281293642043368,1.1105870047097604
13.314663726571114,1.2683691098746854
13.348033811098862,1.2893033032604362
13.381403895626608,1.1375602560089237
13.414773980154356,0.8214378951114578
13.448144064682102,0.392122983161031
13.48151414920985,-0.07138150271659324
13.514884233737597,-0.48501412182077885
13.548254318265345,-0.7820964409163988
13.581624402793091,-0.9286402376899334
13.614994487320839,-0.9278789884366452
13.648364571848585,-0.8140585382839322
13.681734656376333,-0.638513719222122
13.71510474090408,-0.4528418718665235
13.748474825431828,-0.29450087140150416
13.781844909959574,-0.17934876129965044
13.815214994487322,-0.10332039238660211
13.848585079015068,-0.051826009164605225
13.881955163542816,-0.011838113103319748
13.915325248070562,0.019896193172033665
13.94869533259831,0.037032903937506814
13.982065417126057,0.03175214082168894
14.015435501653805,0.005382501198682646
14.048805586181551,-0.02566409504885087
14.082175670709299,-0.033109519563502374
14.115545755237045,0.011797917398696
14.148915839764793,0.12435856367788817
14.18228592429254,0.2968384649617557
14.215656008820288,0.49771388663139843
14.249026093348034,0.6801327981303984
14.282396177875782,0.7964171740842847
14.315766262403528,0.813519694997576
14.349136346931276,0.7240811606573611
14.382506431459023,0.5488788738102786
14.41587651598677,0.32907963111932514
14.449246600514517,0.1106285168839851
14.482616685042265,-0.07299261588178269
14.515986769570011,-0.21179190361970332
14.54935685409776,-0.3186184387359879
14.582726938625505,-0.4171797578888463
14.616097023153253,-0.5252448631689899
14.649467107681,-0.6423649795914556
14.682837192208748,-0.7489550743399676
14.716207276736494,-0.8170304008204631
14.749577361264242,-0.8260709984754683
14.782947445791988,-0.7744948255559354
14.816317530319736,-0.6799611839426843
14.849687614847483,-0.5686095113097895
14.88305769937523,-0.46012385455475274
14.916427783902977,-0.3579435976423494
14.949797868430725,-0.25050953020331246
14.983167952958471,-0.12239243686946549
15.01653803748622,0.03196347866629674
15.049908122013965,0.2004895902064277
15.083278206541713,0.35625552229651664
15.11664829106946,0.46867781244702944
15.150018375597208,0.5164518050254118
15.183388460124954,0.4955869100094059
15.216758544652702,0.4200606078740776
15.250128629180448,0.3172646832294323
15.283498713708196,0.22217843620505154
15.316868798235943,0.17235547229402037
15.35023888276369,0.2026156832592638
15.383608967291437,0.3369535649432998
15.416979051819185,0.5771352248483097
15.450349136346931,0.891589967573616
15.48371922087468,1.211538745895613
15.517089305402425,1.4410255164739787
15.550459389930174,1.4826951130972685
15.58382947445792,1.273406526431474
15.617199558985668,0.8166550252397802
15.650569643513414,0.19627333346225828
15.683939728041162,-0.4395527361283933
15.717309812568908,-0.9238462234942075
15.750679897096656,-1.1322220754863377
15.784049981624403,-1.0362146457222807
15.81742006615215,-0.7237933870491345
15.850790150679897,-0.37300107360605084
15.884160235207645,-0.18393056795362261
15.917530319735391,-0.29427171418664133
15.95090040426314,-0.7147097631164164
15.984270488790886,-1.315583423089549
16.017640573318634,-1.8753461925319777
16.05101065784638,-2.172778712597745
16.084380742374126,-2.0822976477992956
16.117750826901876,-1.6275856714316714
16.151120911429622,-0.967066334735107
16.18449099595737,-0.31751670469998433
16.217861080485115,0.14710880613075628
16.251231165012864,0.37204095083952177
16.28460124954061,0.4363285330947753
16.317971334068357,0.5002703191767123
16.351341418596103,0.7138882230192224
16.384711503123853,1.1331896372207186
16.4180815876516,1.6853029605474268
16.451451672179346,2.197802659025063
16.484821756707092,2.47587174543291
16.51819184123484,2.389464855175006
16.551561925762588,1.9307375269119138
16.584932010290334,1.2183942184240217
16.61830209481808,0.45048006640985583
16.65167217934583,-0.1715620241918225
16.685042263873576,-0.5153339806623879
16.718412348401323,-0.5585635322762578
16.75178243292907,-0.3855464754466253
16.78515251745682,-0.14398399050849742
16.818522601984565,0.0176678342045639
16.85189268651231,0.005877513536342592
16.885262771040058,-0.190947453518677
16.918632855567807,-0.5119852569338257
16.952002940095554,-0.8612871030912617
16.9853730246233,-1.152452050206795
17.018743109151046,-1.3392888426980523
17.052113193678796,-1.4206008356721778
17.085483278206542,-1.4217233474518187
17.11885336273429,-1.3669944475312907
17.15222344726204,-1.2602702012191949
17.185593531789785,-1.0842777666193666
17.21896361631753,-0.8181643225849277
17.252333700845277,-0.4622249743041622
17.285703785373027,-0.05451702471321112
17.319073869900773,0.33227030851011685
17.35244395442852,0.615502574877019
17.385814038956266,0.7391704196704484
17.419184123484015,0.7049685215286029
