Frequency (Hz),Amplitude
0.0,4.165596043033839
0.019801980198019802,4.164048773980131
0.039603960396039604,4.159409680824626
0.0594059405940594,4.151686911328699
0.07920792079207921,4.140894064336268
0.09900990099009901,4.127050218963474
0.1188118811881188,4.1101799761228435
0.13861386138613863,4.090313513050183
0.15841584158415842,4.067486651706724
0.1782178217821782,4.041740942143627
0.19801980198019803,4.013123762141905
0.21782178217821782,3.9816884346803585
0.2376237623762376,3.9474943650380245
0.25742574257425743,3.9106071996061393
0.27722772277227725,3.8710990087674753
0.297029702970297,3.8290484964954192
0.31683168316831684,3.784541239627266
0.33663366336633666,3.737669960068399
0.3564356435643564,3.688534833474885
0.37623762376237624,3.6372438382233843
0.39603960396039606,3.583913148685299
0.4158415841584158,3.528667576938678
0.43564356435643564,3.4716410670286253
0.45544554455445546,3.4129772456540834
0.4752475247524752,3.3528300326240585
0.495049504950495,3.2913643134648645
0.5148514851485149,3.2287566750089103
0.5346534653465347,3.165196202444884
0.5544554455445545,3.1008853328926484
0.5742574257425742,3.0360407557557942
0.594059405940594,2.97089434350784
0.613861386138614,2.9056940877376047
0.6336633663366337,2.840705003735764
0.6534653465346534,2.7762099521931622
0.6732673267326733,2.712510308364259
0.6930693069306931,2.6499263872625693
0.7128712871287128,2.5887975085389425
0.7326732673267327,2.529481557909553
0.7524752475247525,2.4723538758193806
0.7722772277227723,2.417805282545764
0.7920792079207921,2.366239038200507
0.8118811881188118,2.3180665440703727
0.8316831683168316,2.273701627804224
0.8514851485148516,2.233553328315181
0.8712871287128713,2.1980172132836384
0.891089108910891,2.167465422613443
0.9108910891089109,2.1422358243223463
0.9306930693069307,2.1226208710406875
0.9504950495049505,2.108856918799193
0.9702970297029703,2.101114871554127
0.99009900990099,2.099493005725501
1.00990099009901,2.104012687886157
1.0297029702970297,2.1146174339818393
1.0495049504950495,2.131175410580722
1.0693069306930694,2.153485111627744
1.0891089108910892,2.1812836275827734
1.108910891089109,2.214256712633001
1.1287128712871286,2.2520497759900815
1.1485148514851484,2.294278969002834
1.1683168316831685,2.3405416798819325
1.188118811881188,2.3904259394007648
1.2079207920792079,2.4435184424975134
1.227722772277228,2.499411070940311
1.2475247524752475,2.5577059433204536
1.2673267326732673,2.618019115138324
1.2871287128712872,2.679983106957621
1.3069306930693068,2.74324846059683
1.3267326732673268,2.807484521635686
1.3465346534653466,2.8723796299882425
1.3663366336633662,2.9376408760561232
1.3861386138613863,3.00299355313909
1.405940594059406,3.0681804106498953
1.4257425742574257,3.1329607891169604
1.4455445544554455,3.1971096978044433
1.4653465346534653,3.260416879207783
1.4851485148514851,3.322685891483397
1.504950495049505,3.383733229635603
1.5247524752475248,3.4433874985389616
1.5445544554455446,3.501488645150799
1.5643564356435644,3.5578872531428827
1.5841584158415842,3.612443900290019
1.6039603960396038,3.6650285769990116
1.6237623762376237,3.715520163102377
1.6435643564356437,3.7638059592929
1.6633663366336633,3.8097812691907627
1.683168316831683,3.8533490279080085
1.7029702970297032,3.8944194730222357
1.7227722772277227,3.9329098540350658
1.7425742574257426,3.9687441766260876
1.7623762376237624,4.00185297828998
1.782178217821782,4.032173132241911
1.801980198019802,4.059647676779316
1.8217821782178218,4.0842256675868525
1.8415841584158414,4.1058620507608135
1.8613861386138615,4.124517554605495
1.881188118811881,4.140158598515644
1.900990099009901,4.1527572175062595
1.920792079207921,4.162291001184092
1.9405940594059405,4.168743046175851
1.9603960396039604,4.172101921237682
1.98019801980198,4.172361644471259
2.0,4.169521672265757
2.01980198019802,4.163586899774223
2.0396039603960396,4.154567672920109
2.0594059405940595,4.142479812116378
2.0792079207920793,4.127344648069304
2.099009900990099,4.109189070232509
2.118811881188119,4.088045588677679
2.1386138613861387,4.063952410357858
2.1584158415841586,4.0369535309596385
2.1782178217821784,4.007098843773798
2.1980198019801978,3.9744442672610627
2.217821782178218,3.939051893251699
2.237623762376238,3.9009901579945714
2.257425742574257,3.860334038561455
2.2772277227722775,3.817165277413388
2.297029702970297,3.7715726382409875
2.3168316831683167,3.7236521964922256
2.336633663366337,3.6735076682834866
2.3564356435643563,3.6212507816330817
2.376237623762376,3.567001694130906
2.3960396039603964,3.5108894612201977
2.4158415841584158,3.4530525591611387
2.4356435643564356,3.3936394663895464
2.455445544554456,3.3328093062720803
2.4752475247524752,3.270732553049661
2.495049504950495,3.2075918008689803
2.514851485148515,3.143582592992053
2.5346534653465347,3.078914304249715
2.5544554455445545,3.0138110642075144
2.5742574257425743,2.948512700918405
2.594059405940594,2.8832756750765807
2.6138613861386135,2.818373961380009
2.633663366336634,2.7540998175345197
2.6534653465346536,2.690764361350654
2.673267326732673,2.6286978529265497
2.6930693069306932,2.568249552748343
2.712871287128713,2.50978699944474
2.7326732673267324,2.4536945260863368
2.7524752475247527,2.400370816308787
2.7722772277227725,2.3502252981656446
2.792079207920792,2.303673193280691
2.811881188118812,2.2611290911888635
2.8316831683168315,2.2229990121079113
2.8514851485148514,2.1896710596742537
2.8712871287128716,2.1615049438061233
2.891089108910891,2.1388208560233726
2.910891089108911,2.1218883747945996
2.9306930693069306,2.1109162255691896
2.9504950495049505,2.1060437755763024
2.9702970297029703,2.1073350744293085
2.99009900990099,2.1147760494504135
3.00990099009901,2.128275153022409
3.0297029702970297,2.147667391588863
3.0495049504950495,2.172721311746092
3.0693069306930694,2.203148243824392
3.089108910891089,2.238612950582914
3.108910891089109,2.2787448091737987
3.128712871287129,2.3231487492214256
3.148514851485148,2.3714153401992166
3.1683168316831685,2.423129623314556
3.1881188118811883,2.477878479026404
3.2079207920792077,2.535256485789535
3.227722772277228,2.5948703468135648
3.2475247524752473,2.656342038644679
3.267326732673267,2.7193108742575265
3.2871287128712874,2.783434683232186
3.3069306930693068,2.8483903019579047
3.3267326732673266,2.9138735458240124
3.346534653465347,2.9795988092564514
3.366336633663366,3.045298412494314
3.386138613861386,3.110721788770943
3.4059405940594063,3.175634583414461
3.4257425742574257,3.2398177178069116
3.4455445544554455,3.30306645610363
3.4653465346534653,3.365189500792327
3.485148514851485,3.4260081341100475
3.504950495049505,3.485355415555374
3.5247524752475248,3.5430754407791936
3.5445544554455446,3.5990226636111524
3.564356435643564,3.6530612805459386
3.5841584158415842,3.7050646754023537
3.603960396039604,3.754914920863042
3.6237623762376234,3.802502333037036
3.6435643564356437,3.8477250749337655
3.6633663366336635,3.89048880469981
3.683168316831683,3.930706364578195
3.702970297029703,3.96829750675227
3.722772277227723,4.0031886524955125
3.7425742574257423,4.035312681338655
3.762376237623762,4.064608747268125
3.7821782178217824,4.091022119273399
3.801980198019802,4.114504043856938
3.8217821782178216,4.135011627405366
3.841584158415842,4.1525077365912155
3.8613861386138613,4.166960915230585
3.881188118811881,4.178345316263569
3.9009900990099013,4.1866406477526725
3.9207920792079207,4.191832132010423
3.9405940594059405,4.193910477174019
3.96039603960396,4.19287186074281
3.98019801980198,4.188717924787246
4.0,4.18145578272687
4.01980198019802,4.171098037762732
4.03960396039604,4.157662813238841
4.0594059405940595,4.141173795399347
4.079207920792079,4.121660289206547
4.099009900990099,4.099157288090846
4.118811881188119,4.073705558719845
4.138613861386139,4.045351742101917
4.158415841584159,4.014148472581352
4.178217821782178,3.980154516538541
4.198019801980198,3.943434932880518
4.217821782178218,3.9040612576935776
4.237623762376238,3.862111715728829
4.257425742574258,3.817671461699183
4.2772277227722775,3.770832854675624
4.297029702970297,3.7216957691696697
4.316831683168317,3.670367946761675
4.336633663366336,3.616965392355486
4.356435643564357,3.561612819273978
4.376237623762377,3.504444147408058
4.3960396039603955,3.445603058425135
4.415841584158416,3.3852436115410875
4.435643564356436,3.323530922438112
4.455445544554455,3.2606419064091
4.475247524752476,3.196766084517138
4.4950495049504955,3.1321064482118697
4.514851485148514,3.0668803731133853
4.534653465346535,3.00132056616568
4.554455445544555,2.9356760216215108
4.574257425742574,2.870212949861719
4.594059405940594,2.8052156284007213
4.613861386138614,2.7409871062232622
4.633663366336633,2.677849670730175
4.653465346534653,2.6161449614283883
4.673267326732674,2.55623358726879
4.693069306930693,2.4984940776021087
4.712871287128713,2.443320974094059
4.732673267326733,2.391121858590449
4.752475247524752,2.3423131178431706
4.772277227722772,2.2973142796848176
4.792079207920793,2.2565408261916464
4.811881188118812,2.220395504515717
4.8316831683168315,2.1892583159591767
4.851485148514852,2.1634755585853402
4.871287128712871,2.1433485048162013
4.891089108910891,2.129122476470789
4.910891089108912,2.1209771912812156
4.930693069306931,2.1190192561452537
4.9504950495049505,2.123277549732195
4.97029702970297,2.133701976393588
4.99009900990099,2.150165723537919
5.00990099009901,2.1724707797147094
5.02970297029703,2.2003561419549933
5.0495049504950495,2.233507916320758
5.069306930693069,2.271570424256553
5.089108910891089,2.3141574652759425
5.108910891089109,2.3608630235070884
5.128712871287129,2.4112708983402773
5.148514851485149,2.464962945053142
5.1683168316831685,2.5215257969868454
5.188118811881188,2.5805560874864666
5.207920792079208,2.641664291066118
5.227722772277227,2.704477362025402
5.247524752475248,2.7686403730554705
5.267326732673268,2.8338173559339093
5.2871287128712865,2.8996915303298803
5.306930693069307,2.965965082410571
5.326732673267327,3.032358627698792
5.346534653465346,3.0986104659476896
5.366336633663367,3.1644757116481355
5.3861386138613865,3.229725363074956
5.405940594059405,3.2941453557188667
5.425742574257426,3.3575356323427634
5.445544554455446,3.4197092513359353
5.465346534653465,3.4804915470368987
5.485148514851486,3.5397193497751944
5.504950495049505,3.5972402691095704
5.524752475247524,3.6529120407422098
5.544554455445545,3.7066019355572974
5.564356435643565,3.758186227921203
5.584158415841584,3.8075497195970156
5.603960396039604,3.854585315220113
5.623762376237624,3.8991936451404987
5.643564356435643,3.94128273147849
5.663366336633663,3.9807676934012886
5.683168316831684,4.017570487864098
5.702970297029703,4.051619682339224
5.7227722772277225,4.082850256357756
5.742574257425743,4.111203428995853
5.762376237623762,4.136626509741627
5.782178217821782,4.159072770472616
5.801980198019803,4.178501336555246
5.821782178217822,4.19487709534348
5.841584158415841,4.2081706206058715
5.861386138613861,4.218358111647185
5.881188118811881,4.225421346115312
5.900990099009901,4.229347645697484
5.920792079207921,4.2301298541139385
5.9405940594059405,4.22776632701461
5.96039603960396,4.2222609335764805
5.98019801980198,4.213623069789924
6.0,4.201867683611914
6.01980198019802,4.187015312356691
6.03960396039604,4.169092132891392
6.0594059405940595,4.148130025408023
6.079207920792079,4.124166651756459
6.099009900990099,4.097245549547459
6.118811881188119,4.067416243472014
6.138613861386139,4.034734375535526
6.158415841584159,3.9992618561728346
6.178217821782178,3.9610670384931095
6.198019801980198,3.9202249182014657
6.217821782178218,3.8768173620531443
6.237623762376237,3.8309333680117805
6.257425742574258,3.782669360595943
6.2772277227722775,3.7321295251946918
6.297029702970296,3.6794261853921255
6.316831683168317,3.624680227534685
6.336633663366337,3.5680215768595405
6.356435643564356,3.5095897294222445
6.376237623762377,3.449534343735608
6.396039603960396,3.3880158953546586
6.415841584158415,3.325206396471277
6.435643564356436,3.261290180733262
6.455445544554456,3.1964647507366157
6.475247524752475,3.130941681660171
6.495049504950495,3.0649475689512227
6.514851485148515,2.998725000400074
6.534653465346534,2.9325335228763008
6.554455445544554,2.8666505609400583
6.574257425742575,2.801372228038118
6.594059405940594,2.7370139507685733
6.6138613861386135,2.673910802830907
6.633663366336634,2.6124174184803555
6.653465346534653,2.5529073272835143
6.673267326732673,2.495771525850503
6.693069306930694,2.441416082960818
6.712871287128713,2.390258569154675
6.732673267326732,2.342723119398337
6.752475247524753,2.299233987808981
6.772277227722772,2.2602075455716504
6.792079207920792,2.22604281173752
6.811881188118813,2.1971107877583718
6.8316831683168315,2.1737430742020813
6.851485148514851,2.15622045172796
6.871287128712871,2.1447622660574237
6.891089108910891,2.1395175230284114
6.910891089108911,2.1405585394769058
6.930693069306931,2.147877797363619
6.9504950495049505,2.161388334085163
6.97029702970297,2.180927624626432
6.99009900990099,2.206264542601238
7.00990099009901,2.2371086961924616
7.02970297029703,2.2731212682342297
7.0495049504950495,2.31392646087541
7.069306930693069,2.3591227363789744
7.089108910891089,2.40829321764197
7.108910891089109,2.461014819450868
7.128712871287128,2.516865884587615
7.148514851485149,2.5754322706528554
7.1683168316831685,2.6363119609000707
7.188118811881187,2.699118354036789
7.207920792079208,2.763482429812867
7.227722772277228,2.82905399865794
7.247524752475247,2.8955022344744337
7.267326732673268,2.9625156684741993
7.287128712871287,3.029801795199422
7.306930693069306,3.097086414078501
7.326732673267327,3.164112803783092
7.346534653465347,3.230640803708815
7.366336633663366,3.2964458576363906
7.3861386138613865,3.361318059022316
7.405940594059406,3.4250612250898325
7.425742574257425,3.487492017477722
7.445544554455446,3.5484391201575187
7.465346534653466,3.6077424801803906
7.485148514851485,3.665252613148391
7.504950495049505,3.7208299727743115
7.524752475247524,3.7743443822172167
7.544554455445544,3.8256745238330376
7.564356435643565,3.874707483388973
7.584158415841584,3.921338344523
7.603960396039604,3.965469829187714
7.623762376237624,4.007011979926571
7.643564356435643,4.045881880037097
7.663366336633663,4.082003407941253
7.683168316831684,4.1153070223808035
7.702970297029703,4.145729575366497
7.7227722772277225,4.173214150121474
7.742574257425743,4.197709921563908
7.762376237623762,4.219172037166504
7.782178217821782,4.237561516308437
7.801980198019803,4.252845166498514
7.821782178217822,4.26499551509622
7.841584158415841,4.273990755391567
7.861386138613862,4.279814706126671
7.881188118811881,4.282456783753428
7.900990099009901,4.281911986925275
7.92079207920792,4.278180892918271
7.9405940594059405,4.2712696658705935
7.96039603960396,4.26119007692219
7.980198019801979,4.247959536529954
8.0,4.231601139431179
8.01980198019802,4.212143722931188
8.03960396039604,4.189621939402544
8.05940594059406,4.164076344105228
8.07920792079208,4.1355534996715555
8.099009900990099,4.104106098848422
8.118811881188119,4.0697931073537035
8.138613861386139,4.0326799289842725
8.158415841584159,3.9928385954095296
8.178217821782178,3.9503479833948565
8.198019801980198,3.9052940625200003
8.217821782178218,3.857770176781468
8.237623762376238,3.8078773637841286
8.257425742574258,3.755724715518962
8.277227722772277,3.70142978496652
8.297029702970297,3.6451190429241844
8.316831683168317,3.5869283894801547
8.336633663366337,3.5270037243802728
8.356435643564357,3.465501580062921
8.376237623762377,3.402589820247881
8.396039603960396,3.338448405493766
8.415841584158416,3.273270224872861
8.435643564356436,3.2072619895812813
8.455445544554456,3.1406451795696837
8.475247524752476,3.073657027739756
8.495049504950495,3.006551517434373
8.514851485148515,2.9396003573432687
8.534653465346535,2.8730938830480435
8.554455445544555,2.8073418158353878
8.574257425742575,2.742673786963504
8.594059405940595,2.6794395096025636
8.613861386138613,2.618008452320722
8.633663366336634,2.5587688396007033
8.653465346534654,2.5021257804617307
8.673267326732672,2.448498311881367
8.693069306930694,2.3983151475633515
8.712871287128714,2.3520089545455165
8.732673267326732,2.3100090502857693
8.752475247524753,2.272732528870095
8.772277227722773,2.240573988219918
8.792079207920791,2.213894231323276
8.811881188118813,2.1930085302366313
8.831683168316832,2.178175234472514
8.85148514851485,2.1695856291949824
8.871287128712872,2.167355959641215
8.891089108910892,2.171522409871937
8.91089108910891,2.1820395600320146
8.930693069306932,2.1987824853668636
8.950495049504951,2.221552268228777
8.97029702970297,2.2500843462449067
8.990099009900991,2.2840588778431585
9.00990099009901,2.3231122029904183
9.029702970297029,2.366848509979814
9.04950495049505,2.414850957822719
9.06930693069307,2.4666917031444475
9.089108910891088,2.521940495251887
9.10891089108911,2.5801716981875766
9.12871287128713,2.640969753430908
9.148514851485148,2.703933204332502
9.16831683168317,2.7686774661365616
9.188118811881187,2.834836551852731
9.207920792079207,2.9020639644410258
9.227722772277229,2.970032949366045
9.247524752475247,3.038436276359072
9.267326732673267,3.106985690852165
9.287128712871288,3.175411147693302
9.306930693069306,3.24345991451541
9.326732673267326,3.310895610481818
9.346534653465348,3.3774972282958013
9.366336633663366,3.4430581731368
9.386138613861386,3.507385341146404
9.405940594059407,3.570298251728247
9.425742574257425,3.6316282417459647
9.445544554455445,3.691217725246032
9.465346534653467,3.7489195192071816
9.485148514851485,3.804596233702691
9.504950495049505,3.8581197234973867
9.524752475247526,3.9093705972868102
9.544554455445544,3.9582377803645303
9.564356435643564,4.0046181263589355
9.584158415841586,4.048416073724902
9.603960396039604,4.089543342844076
9.623762376237623,4.127918669834245
9.643564356435645,4.163467573459493
9.663366336633663,4.196122151846427
9.683168316831683,4.225820906031287
9.702970297029704,4.252508587678587
9.722772277227723,4.276136068617188
9.742574257425742,4.296660230131318
9.762376237623764,4.314043870220319
9.782178217821782,4.328255627301313
9.801980198019802,4.339269919074803
9.821782178217823,4.34706689550572
9.841584158415841,4.351632405092857
9.861386138613861,4.352957973811155
9.881188118811881,4.351040796314968
9.900990099009901,4.345883739189843
9.92079207920792,4.33749535623644
9.94059405940594,4.325889915967293
9.96039603960396,4.311087441695761
9.98019801980198,4.2931137648005055
10.0,4.272000591960106
10.01980198019802,4.247785587373275
10.03960396039604,4.220512471212811
10.05940594059406,4.19023113580836
10.07920792079208,4.156997781314939
10.099009900990099,4.120875072903368
10.118811881188119,4.081932321804376
10.138613861386139,4.040245692850178
10.158415841584159,3.9958984414824554
10.178217821782178,3.9489811835292383
10.198019801980198,3.89959220138598
10.217821782178218,3.847837790555117
10.237623762376238,3.79383265078253
10.257425742574258,3.737700326249748
10.277227722772277,3.6795736993945956
10.297029702970297,3.6195955428826956
10.316831683168317,3.5579191339563097
10.336633663366337,3.4947089347377327
10.356435643564357,3.4301413409165216
10.376237623762377,3.3644054994132118
10.396039603960396,3.297704192842548
10.415841584158416,3.2302547845874408
10.435643564356436,3.162290212661109
10.455445544554454,3.0940600128289537
10.475247524752476,3.025831341173397
10.495049504950495,2.9578899528793174
10.514851485148514,2.890541077003125
10.534653465346535,2.824110106035918
10.554455445544555,2.758942994207698
10.574257425742573,2.695406230368626
10.594059405940595,2.6338862216022636
10.613861386138614,2.5747878956213226
10.633663366336632,2.518532308535001
10.653465346534654,2.465553037047005
10.673267326732674,2.4162911499290955
10.693069306930692,2.371188603299981
10.712871287128714,2.3306799975571786
10.732673267326733,2.295182776265223
10.752475247524751,2.2650861357739824
10.772277227722773,2.240739132762929
10.792079207920793,2.222438694071355
10.81188118811881,2.210418405035943
