Time (s),Filtered Signal
0.0,-0.056878531507604996
0.03337004405286344,-0.281292310028896
0.06674008810572687,-0.40877059337855476
0.10011013215859031,-0.3870948797879842
0.13348017621145375,-0.23042127450795122
0.16685022026431717,-0.010616832054258058
0.20022026431718062,0.17782773562405746
0.23359030837004408,0.2617127511620467
0.2669603524229075,0.22063447436156639
0.3003303964757709,0.09174963032837714
0.33370044052863435,-0.05289299993080972
0.3670704845814978,-0.14383850111383825
0.40044052863436125,-0.14751968962791537
0.43381057268722467,-0.07963982293821947
0.46718061674008815,0.00633705388270174
0.5005506607929515,0.048177835444442624
0.533920704845815,0.006095431794802542
0.5672907488986785,-0.11889123917971747
0.6006607929515418,-0.2870642849312164
0.6340308370044053,-0.4397072298320706
0.6674008810572687,-0.5254097816279463
0.7007709251101322,-0.5199870265217065
0.7341409691629956,-0.431527796224531
0.767511013215859,-0.29025431165271015
0.8008810572687225,-0.1303269515207541
0.834251101321586,0.02616756364792294
0.8676211453744493,0.1752066242442695
0.9009911894273128,0.32514248021287573
0.9343612334801763,0.4840805435272595
0.9677312775330397,0.6482983342011218
1.001101321585903,0.7982975966945485
1.0344713656387665,0.9042974371688332
1.06784140969163,0.9377408359963076
1.1012114537444935,0.8825916510145886
1.134581497797357,0.7410545110490375
1.1679515418502202,0.5318937714793018
1.2013215859030837,0.28343909806288
1.2346916299559472,0.02546114561133827
1.2680616740088106,-0.2164473562476128
1.3014317180616741,-0.42274832732490286
1.3348017621145374,-0.5793793057617177
1.3681718061674009,-0.677110267351522
1.4015418502202643,-0.7124294873406818
1.4349118942731278,-0.689609491827624
1.4682819383259913,-0.6219675652511253
1.5016519823788548,-0.5301915935526422
1.535022026431718,-0.43712041778716715
1.5683920704845815,-0.3606132822140021
1.601762114537445,-0.30769161918168275
1.6351321585903085,-0.27296964512732574
1.668502202643172,-0.24249957301167616
1.7018722466960352,-0.20151993687361258
1.7352422907488987,-0.14258798971771067
1.7686123348017622,-0.07022031494248818
1.8019823788546256,0.0003593297191095699
1.8353524229074891,0.050131164595477416
1.8687224669603526,0.06598184560210658
1.9020925110132159,0.04884186947073076
1.9354625550660793,0.016246744141906674
1.9688325991189428,-0.0025362734584710275
2.002202643171806,0.022511455349512117
2.0355726872246698,0.10930780589728353
2.068942731277533,0.2544461735816834
2.1023127753303967,0.43194646341804915
2.13568281938326,0.6010707099877998
2.1690528634361232,0.7203307238261455
2.202422907488987,0.7619961304828313
2.23579295154185,0.7211115075275616
2.269162995594714,0.6154393560348022
2.302533039647577,0.4767467085918011
2.3359030837004404,0.3375730783653416
2.369273127753304,0.21934758268848767
2.4026431718061674,0.12675036197127273
2.436013215859031,0.05012409300974887
2.4693832599118943,-0.025941874905556085
2.5027533039647576,-0.11233966426956885
2.5361233480176213,-0.20844214212226572
2.5694933920704845,-0.301601519334147
2.6028634361233483,-0.37327996275906383
2.6362334801762115,-0.4088450281930347
2.6696035242290748,-0.4062959370592458
2.7029735682819385,-0.3795262688262734
2.7363436123348017,-0.3540483858659884
2.7697136563876654,-0.3564297166252674
2.8030837004405287,-0.4016271611977213
2.8364537444933924,-0.4837267514951855
2.8698237885462556,-0.5746972047020724
2.903193832599119,-0.6328419449833945
2.9365638766519826,-0.6186156125759615
2.969933920704846,-0.5118298847713866
3.0033039647577096,-0.32266570226218616
3.036674008810573,-0.09055268021130897
3.070044052863436,0.13014301154812918
3.1034140969162998,0.29231503299904493
3.136784140969163,0.37614664261077474
3.1701541850220267,0.3967966847094805
3.20352422907489,0.39498329406300786
3.2368942731277532,0.4143953279690068
3.270264317180617,0.4771736831007954
3.30363436123348,0.5702865241865777
3.337004405286344,0.650232231646903
3.370374449339207,0.6639620739805716
3.4037444933920704,0.575466102196874
3.437114537444934,0.3846792872409621
3.4704845814977974,0.1295680073389214
3.503854625550661,-0.1290413788999822
3.5372246696035243,-0.33187556515426014
3.5705947136563876,-0.44296671544822663
3.6039647577092513,-0.4591680788302166
3.6373348017621145,-0.4047099518975723
3.6707048458149782,-0.3155876168841138
3.7040748898678415,-0.2228636072122125
3.737444933920705,-0.14312601881489928
3.7708149779735685,-0.0792977644688987
3.8041850220264317,-0.028832317538627122
3.8375550660792954,0.007473993019484849
3.8709251101321587,0.022349933635166776
3.9042951541850224,0.0067208287686308
3.9376651982378856,-0.04095121231896676
3.971035242290749,-0.1070274876064935
4.004405286343612,-0.16248256868322866
4.037775330396476,-0.17176127123766113
4.0711453744493395,-0.10720579760154923
4.104515418502203,0.03767967157176545
4.137885462555066,0.24247692370315777
4.171255506607929,0.46439259183693554
4.2046255506607935,0.6512172718309982
4.237995594713657,0.7574740483500104
4.27136563876652,0.7577632327597403
4.304735682819383,0.6529934963247291
4.3381057268722465,0.46817459574451076
4.371475770925111,0.24336527957384313
4.404845814977974,0.021232479110352916
4.438215859030837,-0.1648366700678585
4.4715859030837,-0.2987423135696331
4.504955947136564,-0.38370323262504447
4.538325991189428,-0.4378018481388652
4.571696035242291,-0.4844297560786683
4.605066079295154,-0.5409624097024557
4.638436123348018,-0.6101512443642442
4.671806167400881,-0.678094347174359
4.705176211453745,-0.7199848903703016
4.738546255506608,-0.7112255328987084
4.7719162995594715,-0.6388637106445796
4.805286343612335,-0.5081540188093655
4.838656387665198,-0.34146649923917094
4.872026431718062,-0.1703755852661634
4.905396475770925,-0.02469005883530279
4.938766519823789,0.07691204015117545
4.972136563876652,0.13124704520291922
5.005506607929515,0.1491011424457979
5.038876651982379,0.14933086016647598
5.072246696035243,0.1513920796950336
5.105616740088106,0.1690674842845955
5.138986784140969,0.20723627305590409
5.172356828193832,0.2622914629260684
5.2057268722466965,0.3256118063539648
5.23909691629956,0.38848815363451206
5.272466960352423,0.4462943553237521
5.305837004405286,0.4998388417611843
5.3392070484581495,0.5529914091416215
5.372577092511014,0.6075996998175337
5.405947136563877,0.658489945007415
5.43931718061674,0.6918346585848908
5.4726872246696034,0.6887561005443378
5.506057268722468,0.6332501155025246
5.539427312775331,0.5208643982325508
5.572797356828194,0.36360804108037
5.606167400881057,0.18794151031186496
5.639537444933921,0.025784137705813188
5.672907488986785,-0.09815364611947355
5.706277533039648,-0.17727509738187075
5.739647577092511,-0.22693195986553757
5.7730176211453745,-0.27845959154277783
5.806387665198238,-0.3648969420855621
5.839757709251102,-0.5040370375140083
5.873127753303965,-0.6865361464051211
5.9064977973568284,-0.8753972699244056
5.939867841409692,-1.0183680914082889
5.973237885462555,-1.0686366319242084
6.006607929515419,-1.004732658326752
6.039977973568282,-0.8402861660945758
6.073348017621146,-0.6187335929262001
6.106718061674009,-0.39516794383603004
6.140088105726872,-0.2137540955603577
6.173458149779736,-0.09128614040314303
6.2068281938325995,-0.014410392879495625
6.240198237885463,0.048718399133020285
6.273568281938326,0.12866877180115704
6.306938325991189,0.23706646948500795
6.3403083700440535,0.36000117922183594
6.373678414096917,0.4656954011644126
6.40704845814978,0.5221940079063513
6.440418502202643,0.5155609243461768
6.4737885462555065,0.4587644244845329
6.507158590308371,0.3863641910091841
6.540528634361234,0.33773860311961545
6.573898678414097,0.3378116013247801
6.60726872246696,0.3855933105844247
6.640638766519824,0.4564835381582962
6.674008810572688,0.5165738516874228
6.707378854625551,0.5404932485604638
6.740748898678414,0.5225519947442852
6.774118942731278,0.47512249844094234
6.807488986784141,0.41593230436254525
6.840859030837005,0.35268705605788137
6.874229074889868,0.27516430789016905
6.9075991189427315,0.1604918116619628
6.940969162995595,-0.010753564505117066
6.974339207048458,-0.2369649934704065
7.007709251101322,-0.48741661796702757
7.041079295154185,-0.7097780258307382
7.074449339207049,-0.8506802226141132
7.107819383259912,-0.8792882818240337
7.141189427312775,-0.8017958318686879
7.174559471365639,-0.6592637097898176
7.207929515418503,-0.5096812489675664
7.241299559471366,-0.4029114806202399
7.274669603524229,-0.3603209156989602
7.308039647577092,-0.36811581709066543
7.3414096916299565,-0.3865053097432829
7.37477973568282,-0.36942928348791926
7.408149779735683,-0.2852626948428237
7.441519823788546,-0.12940396937937645
7.47488986784141,0.07571383320626343
7.508259911894274,0.29151077156011473
7.541629955947137,0.4788455876449341
7.575,0.6111627467641738
7.608370044052863,0.6805658556555341
7.641740088105728,0.6961677190994467
7.675110132158591,0.6771906490911903
7.708480176211454,0.6443153221148304
7.741850220264317,0.6120980024435155
7.775220264317181,0.5841740923149737
7.808590308370045,0.5523145226473914
7.841960352422908,0.49996432943724173
7.875330396475771,0.40980920113841474
7.9087004405286345,0.27292783384499686
7.942070484581498,0.09530315221176079
7.975440528634362,-0.10228369294748751
8.008810572687224,-0.29182927403853004
8.042180616740088,-0.4494470769488358
8.075550660792953,-0.5638993895216233
8.108920704845815,-0.6371000120888216
8.142290748898679,-0.6765777752924935
8.175660792951541,-0.6855667454949546
8.209030837004406,-0.6583860037970398
8.24240088105727,-0.5853220217184594
8.275770925110132,-0.4644214460651724
8.309140969162996,-0.31204920666592484
8.342511013215859,-0.16371087144717594
8.375881057268723,-0.06205017843933207
8.409251101321587,-0.03690961834605957
8.44262114537445,-0.08797149520167222
8.475991189427313,-0.18022794926028995
8.509361233480176,-0.25628216033200985
8.54273127753304,-0.2606289391550111
8.576101321585904,-0.16445837052183124
8.609471365638766,0.02117496335094535
8.64284140969163,0.2503049457398209
8.676211453744493,0.4625548772467805
8.709581497797357,0.6089624443534521
8.742951541850221,0.6706558102753192
8.776321585903084,0.662061230438578
8.809691629955948,0.6184421831192737
8.84306167400881,0.5752619580430204
8.876431718061674,0.5502367095861298
8.909801762114538,0.5366257711365608
8.9431718061674,0.5099334874898935
8.976541850220265,0.44333028323771084
9.009911894273127,0.32322569627117836
9.043281938325991,0.1571935103115601
9.076651982378856,-0.028982396934979702
9.110022026431718,-0.20266746669462316
9.143392070484582,-0.337792421344357
9.176762114537445,-0.4236875406915418
9.210132158590309,-0.46577314786499496
9.243502202643173,-0.4790800764173982
9.276872246696035,-0.47907107552463374
9.3102422907489,-0.4749231275926032
9.343612334801762,-0.4681862470777731
9.376982378854626,-0.45611450633619227
9.41035242290749,-0.43627361366618705
9.443722466960352,-0.40886830599188134
9.477092511013216,-0.37546956048390107
9.510462555066079,-0.3357385899861623
9.543832599118943,-0.2852906147621313
9.577202643171807,-0.21704432863191767
9.61057268722467,-0.12591798272339202
9.643942731277534,-0.014246717273884855
9.677312775330396,0.10563168774015193
9.71068281938326,0.2139877162689624
9.744052863436124,0.29118249452244677
9.777422907488987,0.32687150677205196
9.81079295154185,0.3262976877835001
9.844162995594713,0.3098426301403187
9.877533039647577,0.3049773722484167
9.910903083700441,0.33360712062043996
9.944273127753304,0.4005647913295407
9.977643171806168,0.48905508244979345
10.01101321585903,0.5658964725334242
10.044383259911895,0.5947757668009259
10.077753303964759,0.5517194820899359
10.111123348017621,0.43569530038043025
10.144493392070485,0.26945713882614336
10.177863436123348,0.09039286429970124
10.211233480176212,-0.06417362585990866
10.244603524229076,-0.1704816144897454
10.277973568281938,-0.22506332590859848
10.311343612334802,-0.2428499924153589
10.344713656387665,-0.24882034408742312
10.378083700440529,-0.2675993789197442
10.411453744493393,-0.3151551124567075
10.444823788546255,-0.3947713838533021
10.47819383259912,-0.49728715100445336
10.511563876651982,-0.6043127356352934
10.544933920704846,-0.6929566559848676
10.57830396475771,-0.7409893052087366
10.611674008810573,-0.731709795310496
10.645044052863437,-0.6578420669024732
10.678414096916299,-0.523723752611448
10.711784140969163,-0.3451061030164645
10.745154185022027,-0.1461850288964614
10.77852422907489,0.0459213420989968
10.811894273127754,0.20816559507205187
10.845264317180618,0.32804047666407254
10.87863436123348,0.40709275811556295
10.912004405286345,0.45962913833318814
10.945374449339207,0.5064436570801508
10.978744493392071,0.5655471166197066
11.012114537444935,0.643438640947536
11.045484581497798,0.7305786156373572
11.078854625550662,0.80325620296726
11.112224669603524,0.8315850910273062
11.145594713656388,0.7908894993831023
11.178964757709252,0.672205406709505
11.212334801762115,0.48764031895373383
11.245704845814979,0.2680401897355923
11.279074889867841,0.05333431292869202
11.312444933920705,-0.12099502803582908
11.34581497797357,-0.23598429612943692
11.379185022026432,-0.29476926793247527
11.412555066079296,-0.3191975982822916
11.445925110132158,-0.3388073273185922
11.479295154185023,-0.376933126576623
11.512665198237887,-0.440177213679174
11.546035242290749,-0.5161595136466163
11.579405286343613,-0.5806674559990197
11.612775330396476,-0.6106511999311722
11.64614537444934,-0.5963112689356125
11.679515418502204,-0.545760509844736
11.712885462555066,-0.47966364063820643
11.74625550660793,-0.41890937236026615
11.779625550660793,-0.3724973322308751
11.812995594713657,-0.33281714613072955
11.846365638766521,-0.2811562536299513
11.879735682819383,-0.20012303496906167
11.913105726872248,-0.08549717980770942
11.94647577092511,0.049562763032891234
11.979845814977974,0.18032795799559617
12.013215859030838,0.28277191579437133
12.0465859030837,0.3452923618976023
12.079955947136565,0.3737165169685977
12.113325991189427,0.3875524505752307
12.146696035242291,0.4100056634730208
12.180066079295155,0.4567431199161875
12.213436123348018,0.5280715731566001
12.246806167400882,0.6071468180292198
12.280176211453744,0.6645407105458638
12.313546255506608,0.6677434533461336
12.346916299559473,0.5929130543726642
12.380286343612335,0.4352508544058487
12.413656387665199,0.21414281314052896
12.447026431718061,-0.029702364465313612
12.480396475770926,-0.24531826720660546
12.51376651982379,-0.3876786583425296
12.547136563876652,-0.43338575250478806
12.580506607929516,-0.3896447611477713
12.613876651982379,-0.2923478252030628
12.647246696035243,-0.1931882169161069
12.680616740088107,-0.14031281911582622
12.71398678414097,-0.1600259982212317
12.747356828193833,-0.24693054382461227
12.780726872246696,-0.36651237572592255
12.81409691629956,-0.4690282956928265
12.847466960352424,-0.5089774594738911
12.880837004405286,-0.46240542862654943
12.91420704845815,-0.3354815439869686
12.947577092511013,-0.16142511356240377
12.980947136563877,0.012701883462302267
13.014317180616741,0.14419520973883151
13.047687224669604,0.2110173513827909
13.081057268722468,0.2198828220033822
13.11442731277533,0.20255264906392242
13.147797356828194,0.20114481508888082
13.181167400881058,0.24794311262306423
13.21453744493392,0.348239536002304
13.247907488986785,0.47437603090165065
13.281277533039647,0.5748468982938507
13.314647577092511,0.5955781301044144
13.348017621145376,0.5043853577164304
13.381387665198238,0.30730162745999007
13.414757709251102,0.04855185957654694
13.448127753303964,-0.2065670523117473
13.481497797356829,-0.3981817012594766
13.514867841409693,-0.49495264252045074
13.548237885462555,-0.5025045002729852
13.58160792951542,-0.4536000610208985
13.614977973568282,-0.3864761797578982
13.648348017621146,-0.3242705919251148
13.68171806167401,-0.2674024355436566
13.715088105726872,-0.20246909812853275
13.748458149779736,-0.12060636695983863
13.781828193832599,-0.03198542960718229
13.815198237885463,0.034569709975201625
13.848568281938327,0.048037133835046396
13.88193832599119,-0.0023458859951548208
13.915308370044054,-0.0939292081028476
13.948678414096916,-0.17734017522421316
13.98204845814978,-0.20126773808676357
14.015418502202644,-0.14145945842869131
14.048788546255507,-0.016097985224635177
14.08215859030837,0.12301546163894096
14.115528634361233,0.21966682232584986
14.148898678414097,0.24629566536985675
14.182268722466961,0.22127140536824472
14.215638766519824,0.19935483868567322
14.249008810572688,0.23971086486909504
14.28237885462555,0.3689797720716052
14.315748898678414,0.5602234147341829
14.349118942731279,0.7402341509170803
14.382488986784141,0.8224635480790987
14.415859030837005,0.7490559168405867
14.449229074889868,0.5205037418094592
14.482599118942732,0.19777571202150238
14.515969162995596,-0.12410837377346473
14.549339207048458,-0.3576913008340079
14.582709251101322,-0.4593201065336832
14.616079295154185,-0.44291531290451347
14.649449339207049,-0.3660873696038654
14.682819383259913,-0.297349852416784
14.716189427312775,-0.28195014374229416
14.74955947136564,-0.32326430568059816
14.782929515418502,-0.3875762758940214
14.816299559471366,-0.42754311868454203
14.84966960352423,-0.4104307265213526
14.883039647577093,-0.33591763778865313
14.916409691629957,-0.23503681398578416
14.94977973568282,-0.15241050836271888
14.983149779735683,-0.1223601611282378
15.016519823788547,-0.1515478550775775
15.04988986784141,-0.21624983798458466
15.083259911894274,-0.2744077876027281
15.116629955947138,-0.28566217336870936
15.15,-0.22971661513843
15.183370044052865,-0.1151289104177884
15.216740088105727,0.024633388630202094
15.250110132158591,0.14568963644830296
15.283480176211455,0.21264456294136405
15.316850220264318,0.21422153661545806
15.350220264317182,0.16913952071241597
15.383590308370044,0.1192385760047815
15.416960352422908,0.11174736848080805
15.450330396475772,0.17734610593080494
15.483700440528635,0.3133827981430811
15.517070484581499,0.48059712895963846
15.550440528634361,0.6166268235747999
15.583810572687225,0.6620400138667449
15.61718061674009,0.5879815130542532
15.650550660792952,0.4123277019735199
15.683920704845816,0.19537652451183987
15.717290748898678,0.015296950950881596
15.750660792951543,-0.06637917770982811
15.784030837004407,-0.03322763397012331
15.817400881057269,0.07761330466454587
15.850770925110133,0.19176872260848446
15.884140969162996,0.2315387985782356
15.91751101321586,0.15158274246589168
15.950881057268724,-0.040281010058808
15.984251101321586,-0.2864998477647916
16.01762114537445,-0.5051299213789453
16.050991189427315,-0.6247185518392805
16.084361233480177,-0.6127204304045345
16.11773127753304,-0.48561359935143666
16.151101321585905,-0.2981807626798916
16.184471365638768,-0.11882730677129294
16.21784140969163,-0.002819999529141672
16.251211453744492,0.02570504421928415
16.284581497797358,-0.022401352019437732
16.31795154185022,-0.11039124651119242
16.351321585903083,-0.1918747780830189
16.38469162995595,-0.22720229200978662
16.41806167400881,-0.19461533523720737
16.451431718061674,-0.09397968897882589
16.48480176211454,0.05605106629566716
16.518171806167402,0.2248223854247068
16.551541850220264,0.37757989270401326
16.584911894273127,0.4825109044745018
16.618281938325993,0.5160892545567175
16.651651982378855,0.4666610792570217
16.685022026431717,0.3364047446347957
16.718392070484583,0.14156556851847832
16.751762114537446,-0.08944784852060396
16.785132158590308,-0.3205229155587479
16.818502202643174,-0.5147029534040377
16.851872246696036,-0.6422235129943861
16.8852422907489,-0.687464234594949
16.91861233480176,-0.6522965898899458
16.951982378854627,-0.5542733430411586
16.98535242290749,-0.42003046012050155
17.01872246696035,-0.27624763868957586
17.052092511013218,-0.1415341433644054
17.08546255506608,-0.022187970694335913
17.118832599118942,0.08681875728343696
17.152202643171808,0.1963044959969652
17.18557268722467,0.3151623240269091
17.218942731277533,0.44366261592863165
17.2523127753304,0.5706815753022313
17.28568281938326,0.676338468444323
17.319052863436124,0.7393050253786538
