Frequency (Hz),Amplitude
0.0,3.7541128613287325
0.019867549668874173,3.752605516567614
0.039735099337748346,3.7480858105920527
0.059602649006622516,3.740560732834085
0.07947019867549669,3.730041947469698
0.09933774834437085,3.7165458164318386
0.11920529801324503,3.7000934322937455
0.13907284768211922,3.6807106617031864
0.15894039735099338,3.658428200265527
0.17880794701986755,3.63328164000826
0.1986754966887417,3.605311550816621
0.2185430463576159,3.5745635775137594
0.23841059602649006,3.5410885545754254
0.2582781456953642,3.5049426408234554
0.27814569536423844,3.466187476840613
0.2980132450331126,3.42489036829836
0.31788079470198677,3.381124498894526
0.33774834437086093,3.3349691771657866
0.3576158940397351,3.2865101220758928
0.3774834437086093,3.235839792986434
0.3973509933774834,3.183057770394054
0.4172185430463576,3.128271194657768
0.4370860927152318,3.0715952708303145
0.45695364238410596,3.0131538486162937
0.4768211920529801,2.9530800873604846
0.49668874172185434,2.8915172167401324
0.5165562913907285,2.8286194043732555
0.5364238410596026,2.764552741673756
0.5562913907284769,2.6994963587106113
0.5761589403973509,2.6336436771694927
0.5960264900662252,2.56720380721551
0.6158940397350993,2.5004030883527006
0.6357615894039735,2.4334867652415295
0.6556291390728477,2.3667207755341595
0.6754966887417219,2.300393606450926
0.695364238410596,2.234818148093927
0.7152317880794702,2.1703334322963004
0.7350993377483444,2.1073060943282034
0.7549668874172186,2.046131330216409
0.7748344370860927,1.9872330462225696
0.7947019867549668,1.9310628146743412
0.8145695364238411,1.878097173792664
0.8344370860927152,1.828832759153687
0.8543046357615894,1.7837787617640533
0.8741721854304636,1.743446311262245
0.8940397350993378,1.7083346214699564
0.9139072847682119,1.678914132646855
0.9337748344370861,1.6556074252973174
0.9536423841059603,1.638769289283039
0.9735099337748344,1.628667868505408
0.9933774834437087,1.625469084740163
1.0132450331125828,1.6292264158919536
1.033112582781457,1.6398775068702887
1.0529801324503312,1.6572481225786546
1.0728476821192052,1.6810628493429174
1.0927152317880795,1.7109610043428254
1.1125827814569538,1.7465156508115889
1.1324503311258278,1.787253524452638
1.1523178807947019,1.832673986098497
1.1721854304635762,1.8822656640630044
1.1920529801324504,1.9355200574336249
1.2119205298013245,1.9919419026253102
1.2317880794701985,2.051056490134396
1.2516556291390728,2.1124143453966155
1.271523178807947,2.1755937821924154
1.2913907284768211,2.2402018385862235
1.3112582781456954,2.3058740523417725
1.3311258278145695,2.37227345514638
1.3509933774834437,2.4390890827891223
1.370860927152318,2.5060342230151473
1.390728476821192,2.5728445592330527
1.410596026490066,2.6392763177882608
1.4304635761589404,2.705104488212786
1.4503311258278146,2.770121157867039
1.4701986754966887,2.834133982624665
1.4900662251655628,2.8969648017785623
1.5099337748344372,2.9584483965240906
1.5298013245033113,3.018431385892776
1.5496688741721854,3.076771250862812
1.5695364238410596,3.1333354758151515
1.5894039735099337,3.188000795996666
1.609271523178808,3.2406525398112827
1.6291390728476822,3.291184055321539
1.6490066225165563,3.339496211125481
1.6688741721854303,3.3854969626586002
1.6887417218543048,3.429100975879076
1.7086092715231789,3.4702293011811927
1.728476821192053,3.5088090912172256
1.7483443708609272,3.5447733570789546
1.7682119205298013,3.578060757990772
1.7880794701986755,3.6086154202961693
1.8079470198675496,3.6363867820824356
1.8278145695364238,3.6613294602890067
1.847682119205298,3.683403137589446
1.8675496688741722,3.7025724667317768
1.8874172185430464,3.7188069903728427
1.9072847682119205,3.7320810747560276
1.9271523178807946,3.7423738558632844
1.9470198675496688,3.749669196927362
1.9668874172185429,3.7539556564233854
1.9867549668874174,3.755226465874987
2.0066225165562916,3.7534795170130444
2.0264900662251657,3.7487173580191735
2.0463576158940397,3.7409471987746223
2.066225165562914,3.730180925222821
2.086092715231788,3.7164351231427233
2.1059602649006623,3.6997311118260208
2.1258278145695364,3.6800949883558687
2.1456953642384105,3.6575576834041374
2.165562913907285,3.6321550297009613
2.185430463576159,3.6039278445903884
2.205298013245033,3.5729220283732896
2.2251655629139075,3.539188680459497
2.2450331125827816,3.5027842357107595
2.2649006622516556,3.4637706237607913
2.2847682119205297,3.422215454555408
2.3046357615894038,3.3781922338699832
2.324503311258278,3.3317806131406167
2.3443708609271523,3.2830666785937175
2.364238410596027,3.232143285379892
2.384105960264901,3.179110443211609
2.403973509933775,3.1240757608643985
2.423841059602649,3.06715495781243
2.443708609271523,3.0084724522028834
2.463576158940397,2.948162035278238
2.4834437086092715,2.886367643150739
2.5033112582781456,2.8232442373917155
2.52317880794702,2.7589588060296317
2.543046357615894,2.6936914959736744
2.562913907284768,2.627636886189758
2.5827814569536423,2.5610054075813897
2.6026490066225163,2.4940249096816474
2.622516556291391,2.4269423648824944
2.642384105960265,2.3600256866341613
2.662251655629139,2.293565617114368
2.6821192052980134,2.2278776102723397
2.7019867549668874,2.1633035957503592
2.7218543046357615,2.1002134561162054
2.741721854304636,2.039005983306515
2.76158940397351,1.9801090017481027
2.781456953642384,1.9239782611352327
2.801324503311258,1.8710946238760682
2.821192052980132,1.8219590225602527
2.8410596026490067,1.7770846736241572
2.8609271523178808,1.7369861450247042
2.8807947019867552,1.7021651280783643
2.9006622516556293,1.6730931792801054
2.9205298013245033,1.6501922585582807
2.9403973509933774,1.633814514786219
2.9602649006622515,1.6242233085718791
2.9801324503311255,1.6215777290813747
3.0,1.6259226969408147
3.0198675496688745,1.6371861001610295
3.0397350993377485,1.655183396783279
3.0596026490066226,1.6796289893487863
3.0794701986754967,1.7101527315576592
3.0993377483443707,1.7463193923145006
3.119205298013245,1.787648849564549
3.1390728476821192,1.8336351342882007
3.1589403973509933,1.8837630206099105
3.1788079470198674,1.937521478235177
3.198675496688742,1.9944138343532554
3.218543046357616,2.05396486877033
3.23841059602649,2.1157252819953865
3.2582781456953644,2.1792740599405893
3.2781456953642385,2.2442192520105673
3.2980132450331126,2.310197620514677
3.3178807947019866,2.3768735382834603
3.3377483443708607,2.4439374275142605
3.3576158940397347,2.51110395695778
3.3774834437086096,2.5781101512101494
3.3973509933774837,2.6447135159511355
3.4172185430463577,2.7106902453251895
3.437086092715232,2.7758335503185734
3.456953642384106,2.8399521278016557
3.47682119205298,2.9028687769194437
3.4966887417218544,2.9644191610820876
3.5165562913907285,3.024450708629616
3.5364238410596025,3.0828216423305284
3.556291390728477,3.1394001264899827
3.576158940397351,3.1940635200637413
3.596026490066225,3.2466977244262663
3.615894039735099,3.2971966150686125
3.6357615894039736,3.3454615473311384
3.6556291390728477,3.39140092719235
3.6754966887417218,3.434929839065976
3.695364238410596,3.4759697234585945
3.7152317880794703,3.5144480981848045
3.7350993377483444,3.550298317612977
3.754966887417219,3.583459365117701
3.774834437086093,3.613875674546442
3.794701986754967,3.6414969770702816
3.814569536423841,3.666278170288767
3.834437086092715,3.6881792069018804
3.854304635761589,3.707165000655868
3.8741721854304636,3.723205347618745
3.8940397350993377,3.7362748611539827
3.9139072847682117,3.7463529192407656
3.9337748344370858,3.753423623043457
3.9536423841059607,3.7574757658650593
3.9735099337748347,3.758502811834641
3.993377483443709,3.7565028838816357
4.013245033112583,3.7514787607432707
4.033112582781457,3.743437882940442
4.052980132450331,3.73239236784522
4.072847682119205,3.7183590341530817
4.0927152317880795,3.701359436269979
4.112582781456953,3.681419909330993
4.132450331125828,3.658571625788798
4.152317880794702,3.632850664750291
4.172185430463576,3.6042980955033297
4.19205298013245,3.572960076968146
4.211920529801325,3.5388879751345694
4.231788079470199,3.5021385009134915
4.251655629139073,3.4627738712451333
4.271523178807947,3.4208619967741645
4.291390728476821,3.3764766999306324
4.311258278145695,3.3296979678510383
4.33112582781457,3.28061224524318
4.3509933774834435,3.2293127730442452
4.370860927152318,3.175899979545069
4.390728476821192,3.1204819315495773
4.410596026490066,3.06317485409163
4.43046357615894,3.004103728214375
4.450331125827815,2.9434029772787396
4.470198675496689,2.8812172531261417
4.490066225165563,2.8177023340477185
4.509933774834438,2.753026146712908
4.529801324503311,2.6873699236976876
4.549668874172186,2.620929506607408
4.569536423841059,2.553916801422765
4.589403973509934,2.486561386787624
4.6092715231788075,2.4191122663986095
4.629139072847682,2.3518397419979085
4.649006622516556,2.2850373618954447
4.66887417218543,2.2190238693088973
4.688741721854305,2.15414503281903
4.708609271523179,2.0907751858834542
4.728476821192054,2.029318232725753
4.748344370860927,1.9702077955964503
4.768211920529802,1.9139060895094038
4.788079470198675,1.8609010284039535
4.80794701986755,1.8117010144413606
4.827814569536423,1.7668268741534223
4.847682119205298,1.7268005244612403
4.867549668874172,1.6921302205784152
4.887417218543046,1.6632926798802394
4.9072847682119205,1.640712969695354
4.927152317880794,1.6247437033031762
4.947019867549669,1.6156456458007415
4.966887417218543,1.6135720899292119
4.986754966887418,1.6185591565236634
5.006622516556291,1.6305234628837202
5.026490066225166,1.6492675169999809
5.04635761589404,1.6744920136583346
5.066225165562914,1.7058132468190605
5.086092715231788,1.7427833392857588
5.105960264900662,1.7849109857218208
5.125827814569536,1.8316808075295452
5.14569536423841,1.882570038252258
5.1655629139072845,1.937061904754097
5.185430463576159,1.9946556085300535
5.205298013245033,2.054873183214193
5.225165562913908,2.1172637086541037
5.245033112582782,2.1814054326111463
5.264900662251656,2.2469063325489445
5.28476821192053,2.313403582268017
5.304635761589404,2.380562301176728
5.324503311258278,2.4480738766776335
5.344370860927152,2.515654072564206
5.364238410596027,2.5830410724707167
5.3841059602649,2.6499935576640876
5.403973509933775,2.716288881334622
5.4238410596026485,2.7817213748350356
5.443708609271523,2.8461008027729906
5.463576158940397,2.9092509714552053
5.483443708609272,2.971008487244362
5.503311258278146,3.0312216566175163
5.52317880794702,3.0897495171223373
5.543046357615895,3.1464609872958293
5.562913907284768,3.201234123423203
5.582781456953643,3.253955471413136
5.602649006622516,3.3045195028024823
5.622516556291391,3.3528281248135365
5.642384105960264,3.3987902553631466
5.662251655629139,3.4423214548965646
5.682119205298013,3.483343607850402
5.701986754966887,3.5217846474156533
5.7218543046357615,3.557578318063068
5.741721854304636,3.590663971007121
5.7615894039735105,3.6209863884226725
5.781456953642384,3.64849563279595
5.801324503311259,3.673146918293694
5.821192052980132,3.694900501479541
5.841059602649007,3.7137215891002864
5.860927152317881,3.7295802610146627
5.880794701986755,3.742451406649
5.900662251655629,3.752314673644345
5.920529801324503,3.759154427612827
5.940397350993377,3.76295972215314
5.960264900662251,3.7637242784898772
5.980132450331126,3.7614464743041225
6.0,3.756129341516323
6.0198675496688745,3.7477805729719886
6.039735099337749,3.736412538169048
6.059602649006623,3.722042308357255
6.079470198675497,3.7046916915384323
6.099337748344371,3.684387278105306
6.119205298013245,3.6611604980812937
6.139072847682119,3.635047691167589
6.158940397350993,3.6060901910725427
6.178807947019867,3.5743344258972405
6.198675496688741,3.5398320366856932
6.218543046357616,3.5026400166256226
6.23841059602649,3.4628208738117867
6.258278145695365,3.420442820967511
6.2781456953642385,3.375579996067494
6.298013245033113,3.32831271842458
6.317880794701987,3.278727785501467
6.337748344370861,3.2269188164903206
6.357615894039735,3.1729866495711145
6.377483443708609,3.117039800708984
6.397350993377484,3.059194992870024
6.417218543046357,2.9995777655957094
6.437086092715232,2.9383231759310995
6.456953642384105,2.87557660266857
6.47682119205298,2.8114946666202085
6.496688741721854,2.746246279968619
6.516556291390729,2.6800138373750975
6.5364238410596025,2.612994560013727
6.556291390728477,2.54540200043607
6.5761589403973515,2.4774677102935114
6.596026490066225,2.409443063283325
6.6158940397351,2.341601210695229
6.635761589403973,2.2742391246613964
6.655629139072848,2.207679652321324
6.675496688741721,2.142273460069867
6.695364238410596,2.0784006885758286
6.715231788079469,2.0164720651708747
6.735099337748344,1.9569291319660453
6.754966887417219,1.9002431519867162
6.774834437086093,1.8469121658953165
6.794701986754967,1.7974556135327693
6.814569536423841,1.7524059450566285
6.8344370860927155,1.7122967732575853
6.854304635761589,1.6776474086223694
6.874172185430464,1.6489440977516567
6.894039735099337,1.6266189298213565
6.913907284768212,1.6110280847245946
6.933774834437086,1.602431690281546
6.95364238410596,1.600977813639145
6.973509933774834,1.6066928565317355
6.993377483443709,1.6194798199135707
7.013245033112583,1.6391247097939277
7.033112582781457,1.665310087563555
7.052980132450331,1.6976337705288318
7.072847682119205,1.7356301965854801
7.0927152317880795,1.7787920251250957
7.112582781456954,1.826590025723212
7.132450331125828,1.878489992242516
7.152317880794702,1.9339661080098884
7.172185430463576,1.9925107424896842
7.19205298013245,2.053641027930294
7.211920529801324,2.1169027545036534
7.231788079470198,2.1818721756735164
7.251655629139073,2.2481562808858704
7.271523178807947,2.315392012456321
7.291390728476822,2.3832448079435307
7.311258278145695,2.451406756721465
7.33112582781457,2.519594579120521
7.3509933774834435,2.5875475715739804
7.370860927152318,2.655025611388884
7.390728476821192,2.721807278107914
7.410596026490066,2.7876881224389973
7.430463576158941,2.852479095955014
7.450331125827814,2.9160051430848024
7.470198675496689,2.9781039496145
7.490066225165562,3.038624837676694
7.509933774834438,3.097427795043718
7.52980132450331,3.1543826257499474
7.549668874172186,3.209368209147428
7.569536423841059,3.262271855101385
7.589403973509934,3.3129887439245684
7.6092715231788075,3.361421440676156
7.629139072847682,3.4074794745144135
7.649006622516557,3.451078974830697
7.66887417218543,3.4921423568712737
7.6887417218543055,3.5305980504549606
7.708609271523178,3.566380266210442
7.728476821192054,3.599428794489512
7.748344370860927,3.6296888327624908
7.768211920529802,3.657110837878337
7.788079470198675,3.681650400080304
7.80794701986755,3.7032681361167152
7.827814569536423,3.721929599182512
7.847682119205298,3.737605203778681
7.8675496688741715,3.750270163888982
7.887417218543046,3.759904443153884
7.907284768211921,3.766492715974868
7.927152317880795,3.7700243387143835
7.9470198675496695,3.77049333037136
7.966887417218543,3.767898362315096
7.986754966887418,3.7622427568541803
8.006622516556291,3.753534494607164
8.026490066225167,3.741786230831036
8.046357615894038,3.727015321056542
8.066225165562914,3.7092438565796413
8.086092715231787,3.688498710570433
8.105960264900663,3.664811595789047
8.125827814569536,3.638219135146602
8.14569536423841,3.608762946624522
8.165562913907285,3.5764897443720485
8.185430463576159,3.5414514581465344
8.205298013245034,3.503705373651152
8.225165562913906,3.4633142967668955
8.245033112582782,3.4203467451792675
8.264900662251655,3.374877171472891
8.28476821192053,3.326986222418308
8.304635761589404,3.2767610399128446
8.324503311258278,3.2242956098684954
8.344370860927151,3.169691166268481
8.364238410596027,3.113056658638561
8.3841059602649,3.0545092922912125
8.403973509933774,2.9941751518738973
8.42384105960265,2.9321899199445065
8.443708609271523,2.8686997034263366
8.463576158940398,2.8038619817370294
8.483443708609272,2.737846690940719
8.503311258278146,2.670837458140379
8.52317880794702,2.603032999063766
8.543046357615895,2.5346486887578616
8.562913907284768,2.4659183095858097
8.582781456953642,2.3970959710643913
8.602649006622515,2.328458180816166
8.62251655629139,2.2603060228890253
8.642384105960264,2.192967366308499
8.66225165562914,2.1267989800744185
8.682119205298013,2.062188368161029
8.701986754966887,1.9995550577985015
8.721854304635762,1.9393509775299942
8.741721854304636,1.8820594546883813
8.76158940397351,1.8281922601890077
8.781456953642383,1.778284059428855
8.801324503311259,1.7328836336568274
8.821192052980132,1.692541370387888
8.841059602649008,1.6577928385489418
8.86092715231788,1.6291387948232405
8.880794701986755,1.607022685451866
8.90066225165563,1.5918074974059357
8.920529801324504,1.583754466528537
8.940397350993377,1.5830064147424485
8.960264900662251,1.589578165956514
8.980132450331126,1.6033555530964674
9.0,1.6241031757543734
9.019867549668875,1.6514796698796756
9.039735099337747,1.6850581976220802
9.059602649006623,1.7243494024610009
9.079470198675496,1.7688242226578315
9.099337748344372,1.8179345454534206
9.119205298013245,1.87113046430668
9.139072847682119,1.9278736479944483
9.158940397350994,1.9876469070004064
9.178807947019868,2.049960405394518
9.198675496688743,2.114355136553489
9.218543046357615,2.1804043101434356
9.23841059602649,2.24771324114295
9.258278145695364,2.315918234417081
9.27814569536424,2.384684851085238
9.298013245033111,2.453705843241965
9.317880794701987,2.522698959526924
9.33774834437086,2.5914047576428416
9.357615894039736,2.65958450999942
9.37748344370861,2.7270182526288145
9.397350993377483,2.7935030024653766
9.417218543046358,2.85885115131622
9.437086092715232,2.9228890341173277
9.456953642384107,2.9854556626006246
9.47682119205298,3.046401611951659
9.496688741721854,3.1055880464413033
9.516556291390728,3.1628858696718445
9.536423841059603,3.218174985506534
9.556291390728477,3.2713436566233427
9.57615894039735,3.3222879487308994
9.596026490066224,3.3709112496665505
9.6158940397351,3.4171238537757445
9.635761589403973,3.460842603097024
9.655629139072847,3.501990577919415
9.675496688741722,3.54049683022704
9.695364238410596,3.5762961543964735
9.715231788079471,3.609328890268103
9.735099337748345,3.6395407543811076
9.754966887417218,3.666882695749605
9.774834437086092,3.6913107730743775
9.794701986754967,3.7127860507389254
9.814569536423841,3.7312745113382197
9.834437086092716,3.7467469828422244
9.854304635761588,3.7591790788097375
9.874172185430464,3.7685511503493045
9.894039735099337,3.774848248777184
9.913907284768213,3.7780600981547416
9.933774834437086,3.778181077102046
9.95364238410596,3.7752102094875393
9.973509933774835,3.7691511637876776
9.993377483443709,3.760012261101131
10.013245033112582,3.7478064919926033
10.033112582781456,3.7325515425357074
10.052980132450331,3.714269830127021
10.072847682119205,3.692988549858849
10.09271523178808,3.668739732470195
10.112582781456952,3.641560315150482
10.132450331125828,3.6114922267525174
10.152317880794701,3.578582489287729
10.172185430463577,3.542883337933806
10.192052980132452,3.5044523621903676
10.211920529801324,3.463352671280929
10.2317880794702,3.4196530874281352
10.251655629139073,3.373428371234306
10.271523178807948,3.324759484091062
10.29139072847682,3.2737338933306006
10.311258278145695,3.2204459267268755
10.331125827814569,3.164997183964258
10.350993377483444,3.107497013817311
10.370860927152318,3.048063067022566
10.390728476821192,2.9868219361526784
10.410596026490065,2.9239098951858273
10.43046357615894,2.85947375282459
10.450331125827816,2.7936718348379226
10.470198675496688,2.7266751115789067
10.490066225165563,2.658668487067224
10.509933774834437,2.589852265159389
10.529801324503312,2.5204438056888554
10.549668874172186,2.4506793780734824
10.56953642384106,2.3808162104046655
10.589403973509933,2.3111347166050327
10.609271523178808,2.2419408604572744
10.629139072847682,2.173568580163794
10.649006622516556,2.106382147155798
10.66887417218543,2.040778264710198
10.688741721854305,1.9771876231615466
10.70860927152318,1.9160755196008636
10.728476821192054,1.857941027275462
10.748344370860927,1.803314079758006
10.7682119205298,1.7527497482378682
