Time (s),Filtered Signal
0.0,-0.015691776008523266
0.033370165745856356,0.3199630297954008
0.06674033149171271,0.6028708100675157
0.10011049723756907,0.790942350152005
0.13348066298342542,0.8612094062150158
0.16685082872928178,0.8144694060279454
0.20022099447513814,0.6743721434459263
0.2335911602209945,0.48046548443461873
0.26696132596685085,0.27671306455978906
0.30033149171270723,0.0990600511499825
0.33370165745856356,-0.03345772429367322
0.3670718232044199,-0.12067952459094401
0.4004419889502763,-0.17595134251288563
0.43381215469613266,-0.21646831452741436
0.467182320441989,-0.2543974835473501
0.5005524861878453,-0.29314881151261585
0.5339226519337017,-0.3299636988611775
0.5672928176795581,-0.3620907240882121
0.6006629834254145,-0.3916044640060886
0.6340331491712707,-0.4248964257577915
0.6674033149171271,-0.4665860799891487
0.7007734806629835,-0.5117922501981379
0.7341436464088398,-0.5425986374843093
0.7675138121546962,-0.5326527582579452
0.8008839779005525,-0.45902829097919073
0.8342541436464089,-0.31559782335458875
0.8676243093922653,-0.1203151676878426
0.9009944751381216,0.0885927006179309
0.934364640883978,0.2667309268484539
0.9677348066298344,0.3814218744477674
1.0011049723756906,0.424535429097761
1.0344751381215471,0.4139276973473378
1.0678453038674034,0.38309341787709067
1.1012154696132597,0.36469189802195473
1.1345856353591162,0.3764341338707737
1.1679558011049724,0.4159792764557505
1.201325966850829,0.4662043403504452
1.2346961325966852,0.5065994959240734
1.2680662983425415,0.52377591716594
1.301436464088398,0.5155291172162283
1.3348066298342542,0.48738979967429785
1.3681767955801105,0.4451899515242702
1.401546961325967,0.38910924498781757
1.4349171270718233,0.3130490215868442
1.4682872928176796,0.20937234845385325
1.501657458563536,0.07560169553405527
1.5350276243093923,-0.08136778345671439
1.5683977900552488,-0.24622393307645452
1.601767955801105,-0.40081042861389515
1.6351381215469614,-0.5310721334610625
1.6685082872928179,-0.6314615965925596
1.7018784530386741,-0.704444016913619
1.7352486187845306,-0.7554904306813677
1.768618784530387,-0.786406928118068
1.8019889502762432,-0.7908237908548452
1.8353591160220997,-0.7547432714246765
1.868729281767956,-0.6626223234686215
1.9020994475138122,-0.5065829797916602
1.9354696132596687,-0.2943317224338814
1.968839779005525,-0.051364498888388045
2.0022099447513813,0.18463828083054207
2.0355801104972375,0.3755631827274748
2.0689502762430942,0.49581256470334306
2.1023204419889505,0.5405987499377796
2.135690607734807,0.5258766735409287
2.169060773480663,0.4802678654355372
2.2024309392265193,0.43302738445634176
2.235801104972376,0.4034692667021785
2.2691712707182323,0.39582011027223774
2.3025414364640886,0.40039185455079407
2.335911602209945,0.39918159962886635
2.369281767955801,0.3729167844968093
2.402651933701658,0.3072376683835832
2.436022099447514,0.19706521478809771
2.4693922651933704,0.04898597201633399
2.5027624309392267,-0.11871400767863056
2.536132596685083,-0.27921250085350274
2.5695027624309392,-0.40399092425873073
2.602872928176796,-0.47216820618522515
2.636243093922652,-0.4790001058216075
2.6696132596685085,-0.4392065353875066
2.7029834254143648,-0.38216777361279985
2.736353591160221,-0.33963089639230204
2.7697237569060777,-0.3306872641280821
2.803093922651934,-0.3510860008405357
2.8364640883977903,-0.3728253472141205
2.8698342541436466,-0.35551988906518545
2.903204419889503,-0.265212549580887
2.936574585635359,-0.09202108978332944
2.969944751381216,0.14222484627982285
3.003314917127072,0.39077159316142507
3.0366850828729284,0.6004069766889703
3.0700552486187846,0.7327099413092721
3.103425414364641,0.7776049835841993
3.1367955801104976,0.7528115554006669
3.170165745856354,0.6902789220574174
3.20353591160221,0.6173933217877124
3.2369060773480665,0.5430240647531384
3.2702762430939227,0.4554147229321832
3.3036464088397794,0.3324960395960025
3.3370165745856357,0.1588395146603573
3.370386740331492,-0.05977570256179193
3.4037569060773483,-0.292007172299274
3.4371270718232045,-0.48971408062077504
3.4704972375690613,-0.6064693728023419
3.5038674033149175,-0.6176937247179155
3.537237569060774,-0.533239269936984
3.57060773480663,-0.3963743754119762
3.6039779005524863,-0.2689650562762892
3.6373480662983426,-0.20857280198575798
3.6707182320441993,-0.24661628750100206
3.7040883977900556,-0.3762837844384328
3.737458563535912,-0.55483171969493
3.770828729281768,-0.7190473839550117
3.8041988950276244,-0.8074952595223986
3.837569060773481,-0.780862667773842
3.8709392265193374,-0.633115396946936
3.9043093922651937,-0.39042226471727703
3.93767955801105,-0.09983373969421824
3.9710497237569062,0.18672956111933958
4.0044198895027625,0.4268242179880281
4.037790055248619,0.5956977320100643
4.071160220994475,0.6872324040809858
4.104530386740332,0.7095989212397188
4.1379005524861885,0.6791513250023756
4.171270718232044,0.6155898917546025
4.204640883977901,0.5394110031976355
4.238011049723757,0.4705036005481355
4.271381215469614,0.42587167953322147
4.30475138121547,0.415490512787194
4.338121546961326,0.4375638959757895
4.371491712707183,0.47627382583106964
4.404861878453039,0.5049179505288031
4.438232044198895,0.49479076099600633
4.471602209944752,0.42664338847818073
4.504972375690608,0.2993337822058532
4.538342541436465,0.13102827828925392
4.5717127071823205,-0.048107157331928406
4.605082872928177,-0.2083514312107661
4.638453038674034,-0.33190877100729504
4.67182320441989,-0.41787972455186345
4.7051933701657465,-0.4786619085145612
4.738563535911602,-0.5301641895493902
4.771933701657459,-0.5812407962771619
4.805303867403316,-0.6278707652982924
4.8386740331491715,-0.6549256742466799
4.872044198895028,-0.644383869347342
4.905414364640884,-0.5856168572292937
4.938784530386741,-0.48246823443667375
4.972154696132597,-0.353611043267799
5.005524861878453,-0.22609038924042252
5.03889502762431,-0.1252290004301363
5.072265193370166,-0.06557963400058596
5.105635359116023,-0.046770305087760575
5.1390055248618784,-0.055570492331606464
5.172375690607735,-0.07270267430299708
5.205745856353592,-0.08111912832580528
5.239116022099448,-0.07223828202868526
5.272486187845304,-0.04779552220426303
5.30585635359116,-0.01687021722457109
5.339226519337017,0.01041601670478846
5.372596685082874,0.029681408505441077
5.4059668508287295,0.04636255975605715
5.439337016574586,0.07479409794580658
5.472707182320442,0.13195786365034395
5.506077348066299,0.2280178294432265
5.5394475138121555,0.3577423030210438
5.572817679558011,0.4974377439256993
5.606187845303868,0.610460622324916
5.639558011049724,0.6609118961901674
5.672928176795581,0.6309143521853466
5.706298342541437,0.533829423807704
5.739668508287293,0.41577300754519986
5.77303867403315,0.3416644349733985
5.806408839779006,0.3687771962025589
5.839779005524862,0.5175702696477092
5.873149171270718,0.7530005106301095
5.906519337016575,0.9871116510525104
5.939889502762432,1.1055450006504193
5.9732596685082875,1.00977459021595
6.006629834254144,0.6583526816659383
6.04,0.08896253155695329
6.073370165745857,-0.589645625492794
6.1067403314917135,-1.2334842551780754
6.140110497237569,-1.7117194259878465
6.173480662983426,-1.9467388487792932
6.206850828729282,-1.9296536383400107
6.240220994475139,-1.7075259238063616
6.273591160220995,-1.3523839099011052
6.306961325966851,-0.929889700220749
6.340331491712708,-0.48344161919315964
6.373701657458564,-0.0389147872515599
6.40707182320442,0.3777343468104918
6.440441988950277,0.7255086900983662
6.473812154696133,0.9492883233261724
6.50718232044199,0.9988792617167678
6.5405524861878455,0.8557106487267624
6.573922651933702,0.5504519145497976
6.607292817679559,0.15917849406084839
6.640662983425415,-0.2220660587170731
6.674033149171271,-0.512052211889161
6.707403314917127,-0.6711198177642703
6.740773480662984,-0.7073719902145279
6.774143646408841,-0.661160220575727
6.8075138121546965,-0.5778336959191446
6.840883977900553,-0.4836290760038498
6.874254143646409,-0.37634469856793784
6.907624309392266,-0.23365541137474335
6.9409944751381225,-0.03268462982259167
6.974364640883978,0.23056072380674567
7.007734806629835,0.5320830347770691
7.041104972375691,0.8252037729531515
7.074475138121548,1.0569325606183193
7.107845303867403,1.1870417588887818
7.14121546961326,1.20110700834364
7.174585635359117,1.112614890424854
7.207955801104973,0.9548313850553132
7.241325966850829,0.7674354585970933
7.274696132596685,0.5840728151299592
7.308066298342542,0.42510699918778794
7.341436464088399,0.29661443940325655
7.3748066298342545,0.19400550482645232
7.408176795580111,0.10757945090105316
7.441546961325967,0.02768555037682407
7.474917127071824,-0.051848525662507305
7.5082872928176805,-0.13248891071048766
7.541657458563536,-0.21192813993342177
7.575027624309393,-0.2867887351247498
7.608397790055249,-0.3562192603692259
7.641767955801106,-0.4248605780494234
7.675138121546962,-0.5032726194273125
7.708508287292818,-0.6043891368209314
7.741878453038675,-0.7362084867108553
7.775248618784531,-0.8932679843865072
7.808618784530387,-1.0512553157824989
7.841988950276244,-1.1689928244544463
7.8753591160221,-1.1993876350997932
7.908729281767957,-1.1066131430872388
7.9420994475138125,-0.8828712977299024
7.975469613259669,-0.5568807186472645
8.008839779005525,-0.18889561567669402
8.042209944751383,0.1472649197307392
8.075580110497238,0.3886379730499618
8.108950276243094,0.504103174866888
8.14232044198895,0.5032618587908424
8.175690607734808,0.4298045335902129
8.209060773480664,0.34268968385704374
8.24243093922652,0.29339554039825855
8.275801104972377,0.3084789121674579
8.309171270718233,0.3835821183770324
8.342541436464089,0.4896741879838073
8.375911602209946,0.5873071081715244
8.409281767955802,0.6421220176836763
8.442651933701658,0.635499354688986
8.476022099447514,0.5673601225233229
8.509392265193371,0.45196100368012476
8.542762430939227,0.31024938750384745
8.576132596685083,0.16287841853706628
8.60950276243094,0.026454408748860292
8.642872928176796,-0.0868649763003285
8.676243093922652,-0.16824124402968726
8.709613259668508,-0.211754285451494
8.742983425414366,-0.21584531365611737
8.776353591160222,-0.18577114454724522
8.809723756906077,-0.13474796239023315
8.843093922651935,-0.08153229979480582
8.87646408839779,-0.044076553647140734
8.909834254143647,-0.031669845115347525
8.943204419889504,-0.039850138918950506
8.97657458563536,-0.051786645874057215
9.009944751381216,-0.046620357783797785
9.043314917127072,-0.011064338938626213
9.07668508287293,0.05198278228245297
9.110055248618785,0.12307399006812159
9.143425414364641,0.1750655977533321
9.176795580110499,0.18690138295717676
9.210165745856354,0.154971286491758
9.24353591160221,0.09568932986035421
9.276906077348068,0.03753079130844036
9.310276243093924,0.006403015797229495
9.34364640883978,0.011814215811276492
9.377016574585635,0.040974776503576824
9.410386740331493,0.06398476565950773
9.443756906077349,0.04776389830705508
9.477127071823205,-0.027852105701010037
9.510497237569062,-0.1594040048045201
9.543867403314918,-0.319484604200801
9.577237569060774,-0.4670678517106633
9.610607734806631,-0.5640785979148762
9.643977900552487,-0.5910998308344051
9.677348066298343,-0.5553847685031735
9.710718232044199,-0.4873881501506678
9.744088397790057,-0.4267368511670972
9.777458563535912,-0.40321171740624523
9.810828729281768,-0.4210175560785533
9.844198895027626,-0.453932406738848
9.877569060773482,-0.454641162123158
9.910939226519337,-0.3751900881462879
9.944309392265193,-0.18993311900375612
9.97767955801105,0.08949346489307636
10.011049723756907,0.4144407669818826
10.044419889502763,0.71514110784768
10.07779005524862,0.9254318452955982
10.111160220994476,1.0056975589146304
10.144530386740332,0.9547180870006335
10.17790055248619,0.8065180049629888
10.211270718232045,0.6148871547586767
10.244640883977901,0.4329072788356153
10.278011049723757,0.29587043808225844
10.311381215469615,0.21352641562558464
10.34475138121547,0.17312818603366792
10.378121546961326,0.15027724750569194
10.411491712707184,0.12187599715471861
10.44486187845304,0.0754836243137479
10.478232044198895,0.011781006294311952
10.511602209944753,-0.059610215530671536
10.544972375690609,-0.12772745763995916
10.578342541436465,-0.18691949791925244
10.61171270718232,-0.23921197339691863
10.645082872928178,-0.29155156892502926
10.678453038674034,-0.34978239976210274
10.71182320441989,-0.4128092096859482
10.745193370165747,-0.47023227185510375
10.778563535911603,-0.5049643455958586
10.811933701657459,-0.4998543380081964
10.845303867403315,-0.4453392780078149
10.878674033149172,-0.34457914936154577
10.912044198895028,-0.21366912564390028
10.945414364640884,-0.07680453386843214
10.978784530386742,0.041457505207005654
11.012154696132598,0.1235785196358399
11.045524861878453,0.16331517293031758
11.078895027624311,0.16584942846695758
11.112265193370167,0.1445738395068642
11.145635359116023,0.11635849801451242
11.179005524861878,0.09703337795195052
11.212375690607736,0.098031957189906
11.245745856353592,0.12437214721500138
11.279116022099448,0.17384831576256796
11.312486187845305,0.23740841750224928
11.345856353591161,0.3008081584683292
11.379226519337017,0.3474741457513077
11.412596685082875,0.3621087863307495
11.44596685082873,0.33421292321597673
11.479337016574586,0.26063878136113733
11.512707182320442,0.14655021792743897
11.5460773480663,0.0045983367899238075
11.579447513812156,-0.1474832095167963
11.612817679558011,-0.29038483569871676
11.646187845303869,-0.4071365915041567
11.679558011049725,-0.4865057684806778
11.71292817679558,-0.5248005944044145
11.746298342541436,-0.5252483744893838
11.779668508287294,-0.4949790157023722
11.81303867403315,-0.4408878991619948
11.846408839779006,-0.36652786328479003
11.879779005524863,-0.2719055468980857
11.91314917127072,-0.15649681395591067
11.946519337016575,-0.02375896562637127
11.979889502762433,0.11577506811325305
12.013259668508288,0.2451721376177569
12.046629834254144,0.3457968345869011
12.08,0.40392958757843955
12.113370165745858,0.4160597450121418
12.146740331491714,0.3903226963628617
12.18011049723757,0.34355779435023814
12.213480662983427,0.2954959732494154
12.246850828729283,0.2625806267934609
12.280220994475139,0.253622463063452
12.313591160220996,0.26836345075633905
12.346961325966852,0.2987902661779379
12.380331491712708,0.33219486670263304
12.413701657458564,0.3546877001891012
12.447071823204421,0.3540684049722611
12.480441988950277,0.3215104640337957
12.513812154696133,0.2522109249263447
12.54718232044199,0.1456741682400911
12.580552486187846,0.006295846862019967
12.613922651933702,-0.15572017078346392
12.64729281767956,-0.32398751304712803
12.680662983425416,-0.47743701705636044
12.714033149171271,-0.5944188236828385
12.747403314917127,-0.6585725486130082
12.780773480662985,-0.6640564404553403
12.81414364640884,-0.6173698312564877
12.847513812154697,-0.5344272707210662
12.880883977900554,-0.4340629479856464
12.91425414364641,-0.331179898041234
12.947624309392266,-0.23293443823003923
12.980994475138122,-0.13950488361513128
13.01436464088398,-0.04832283391629586
13.047734806629835,0.04116779894122104
13.081104972375691,0.12508289756402616
13.114475138121549,0.19613964891457142
13.147845303867404,0.24716855490909453
13.18121546961326,0.27484820286396694
13.214585635359118,0.2816017849698758
13.247955801104974,0.27480422825256656
13.28132596685083,0.2637905099234014
13.314696132596685,0.2559633218496934
13.348066298342543,0.25347849593136074
13.381436464088399,0.251798970442958
13.414806629834255,0.24100291561302142
13.448176795580112,0.20997341303979125
13.481546961325968,0.15237026315045676
13.514917127071824,0.07194519296778298
13.548287292817681,-0.015813694108016023
13.581657458563537,-0.08770457441681392
13.615027624309393,-0.12190032599654164
13.648397790055249,-0.10850170935280445
13.681767955801106,-0.05634112487656692
13.715138121546962,0.00813622099238844
13.748508287292818,0.05056262295940483
13.781878453038676,0.04321340638003054
13.815248618784532,-0.02211640672924959
13.848618784530387,-0.1291971118753675
13.881988950276245,-0.24313429022786856
13.9153591160221,-0.32439936720856793
13.948729281767957,-0.34460864489120335
13.982099447513813,-0.29675690670069554
14.01546961325967,-0.19562552552077392
14.048839779005526,-0.06920758759568967
14.082209944751382,0.053702660300768396
14.11558011049724,0.1534756102307287
14.148950276243095,0.2232382989867404
14.182320441988951,0.26619809042430836
14.215690607734807,0.2899373588606401
14.249060773480664,0.3015019828869634
14.28243093922652,0.305330743556864
14.315801104972376,0.30357113554852966
14.349171270718234,0.29689918490439676
14.38254143646409,0.2843600518783146
14.415911602209945,0.26232357887899116
14.449281767955803,0.2239951611971766
14.482651933701659,0.16095468263147003
14.516022099447515,0.06688993547949666
14.54939226519337,-0.058001560266241786
14.582762430939228,-0.2043470901743529
14.616132596685084,-0.35450149250252405
14.64950276243094,-0.4871150037301401
14.682872928176797,-0.5835482898686087
14.716243093922653,-0.6332927762647809
14.749613259668509,-0.6359906412563793
14.782983425414367,-0.5993311465553972
14.816353591160222,-0.5341515768829463
14.849723756906078,-0.44940148822428744
14.883093922651934,-0.349513059964889
14.916464088397792,-0.2352270338834858
14.949834254143648,-0.10692404114951762
14.983204419889503,0.03181519487499863
15.016574585635361,0.17259965889072448
15.049944751381217,0.3033898587720224
15.083314917127073,0.41158475042992365
15.116685082872928,0.48726921691941827
15.150055248618786,0.5251564158865992
15.183425414364642,0.5248832733948394
15.216795580110498,0.49036764231825675
15.250165745856355,0.4291789361759782
15.283535911602211,0.3522437467252034
15.316906077348067,0.273294462332992
15.350276243093925,0.20705788434605632
15.38364640883978,0.16570458735817253
15.417016574585636,0.1543336723958964
15.450386740331492,0.16750653644550717
15.48375690607735,0.18917429486167275
15.517127071823205,0.19725008202055996
15.550497237569061,0.17184183222536245
15.583867403314919,0.10389087641270647
15.617237569060775,6.039277418112917e-05
15.65060773480663,-0.1189863228494819
15.683977900552488,-0.22668823949411337
15.717348066298344,-0.30151965448107426
15.7507182320442,-0.3355269075101113
15.784088397790056,-0.3362732836609459
15.817458563535913,-0.3213091493105957
15.85082872928177,-0.30814450076441846
15.884198895027625,-0.3050206737974582
15.917569060773483,-0.3072779229403776
15.950939226519338,-0.30105191412763005
15.984309392265194,-0.2720775583708787
16.01767955801105,-0.21470272987196853
16.051049723756908,-0.13625587094854294
16.084419889502765,-0.05455435254685557
16.11779005524862,0.009982936303129129
16.151160220994477,0.043484677354852605
16.18453038674033,0.044545422383255526
16.21790055248619,0.024309842213890924
16.251270718232046,0.0010701563721830043
16.2846408839779,-0.0077793660719543975
16.318011049723758,0.0073593331004958035
16.351381215469615,0.04542845357546035
16.38475138121547,0.0965884206972465
16.418121546961327,0.14718485215453214
16.451491712707185,0.1849390260014423
16.48486187845304,0.20200794953467588
16.518232044198896,0.1953756485190651
16.551602209944754,0.16584197321693847
16.584972375690608,0.11738742518015484
16.618342541436466,0.05762306186777264
16.651712707182323,-0.0016629921889266923
16.685082872928177,-0.045703483089964775
16.718453038674035,-0.06071033369563715
16.751823204419892,-0.03958735355305532
16.785193370165747,0.013382602452558217
16.818563535911604,0.08184917766733403
16.851933701657458,0.14201157474361867
16.885303867403316,0.17122850871822182
16.918674033149173,0.1571706322446508
16.952044198895027,0.1035105355779957
16.985414364640885,0.02943718101777004
17.018784530386743,-0.037162159603530046
17.052154696132597,-0.0702942463650549
17.085524861878454,-0.055971734356443106
17.118895027624312,0.002304901729509424
17.152265193370166,0.08491186443282345
17.185635359116024,0.16359215486091735
17.21900552486188,0.21176840012279943
17.252375690607735,0.21338132030408744
17.285745856353593,0.1669729667864506
17.31911602209945,0.08412192469921835
