Frequency (Hz),Amplitude
0.0,1.3797068100652996
0.04,1.3793341372417065
0.08,1.3782170893946417
0.12,1.376358579624364
0.16,1.3737634671935135
0.19999999999999998,1.3704385636649585
0.24,1.3663926414817755
0.27999999999999997,1.3616364449720482
0.32,1.356182703749538
0.36,1.3500461484645778
0.39999999999999997,1.3432435288361264
0.44,1.3357936338641292
0.48,1.327717314079154
0.52,1.3190375056316987
0.5599999999999999,1.3097792559538628
0.6,1.2999697506387324
0.64,1.2896383410744667
0.6799999999999999,1.2788165722375113
0.72,1.2675382098889965
0.76,1.2558392662263407
0.7999999999999999,1.243758022815138
0.84,1.2313350493608837
0.88,1.218613216574012
0.9199999999999999,1.2056377010333585
0.96,1.192455979564002
1.0,1.1791178102185638
1.04,1.165675196494654
1.0799999999999998,1.152182330947994
1.1199999999999999,1.1386955138907933
1.1600000000000001,1.1252730424260136
1.2,1.111975064697605
1.24,1.0988633939834092
1.28,1.0860012771789764
1.3199999999999998,1.0734531123867799
1.3599999999999999,1.0612841108111402
1.4,1.0495598990425827
1.44,1.0383460591684333
1.48,1.0277076060238426
1.52,1.0177084033252684
1.5599999999999998,1.0084105233864145
1.5999999999999999,0.9998735585256682
1.64,0.992153895984001
1.68,0.9853039719557439
1.72,0.979371523895631
1.76,0.9743988632542417
1.7999999999999998,0.9704221928438198
1.8399999999999999,0.9674709938071514
1.88,0.9655675063928076
1.92,0.9647263263007974
1.9599999999999997,0.9649541342924852
2.0,0.9662495712810729
2.0399999999999996,0.9686032646309806
2.08,0.9719980044226275
2.12,0.9764090615741056
2.1599999999999997,0.9818046335290659
2.2,0.9881463982080975
2.2399999999999998,0.9953901534160559
2.28,1.003486517058736
2.3200000000000003,1.0123816633231153
2.36,1.022018071235311
2.4,1.0323352644328438
2.44,1.0432705242191103
2.48,1.0547595616413459
2.5199999999999996,1.0667371381173771
2.56,1.0791376277565425
2.6,1.0918955177787506
2.6399999999999997,1.1049458462070698
2.68,1.1182245782387943
2.7199999999999998,1.1316689243841718
2.76,1.1452176046398976
2.8,1.1588110636973847
2.84,1.1723916425497043
2.88,1.185903711932432
2.92,1.1992937728869806
2.96,1.212510529434707
2.9999999999999996,1.2255049379519347
3.04,1.2382302373833518
3.08,1.2506419639588846
3.1199999999999997,1.26269795361106
3.16,1.2743583348440493
3.1999999999999997,1.285585514392231
3.2399999999999998,1.2963441576320656
3.28,1.3066011653784322
3.32,1.3163256484057118
3.36,1.3254889007827613
3.4,1.3340643728973047
3.44,1.342027644864972
3.4799999999999995,1.3493564008685897
3.52,1.3560304048495584
3.5599999999999996,1.362031477873141
3.5999999999999996,1.367343477408385
3.64,1.3719522786995693
3.6799999999999997,1.3758457583561459
3.7199999999999998,1.3790137802495734
3.76,1.381448183777066
3.7999999999999994,1.3831427745308047
3.84,1.3840933173966061
3.88,1.3842975320955186
3.9199999999999995,1.3837550911750742
3.96,1.382467620452128
4.0,1.3804387019057718
4.04,1.377673879015229
4.079999999999999,1.3741806645330987
4.12,1.369968550677831
4.16,1.3650490217193467
4.199999999999999,1.359435568917425
4.24,1.3531437077522448
4.28,1.346190997358599
4.319999999999999,1.3385970620384222
4.36,1.330383614677644
4.4,1.3215744818315998
4.4399999999999995,1.3121956301647169
4.4799999999999995,1.3022751938328336
4.5200000000000005,1.291843502276624
4.56,1.2809331077489305
4.6,1.2695788117239237
4.640000000000001,1.2578176891278088
4.68,1.245689109086803
4.72,1.2332347506046517
4.76,1.2204986112576466
4.8,1.2075270066301074
4.84,1.194368557809199
4.88,1.1810741638208533
4.92,1.1676969554286745
4.96,1.154292226250973
5.0,1.140917336700772
5.039999999999999,1.1276315858527097
5.08,1.1144960460301234
5.12,1.1015733547389188
5.159999999999999,1.0889274586141517
5.2,1.0766233043620004
5.24,1.0647264723495002
5.279999999999999,1.0533027495913836
5.319999999999999,1.0424176404707364
5.36,1.0321358156491558
5.3999999999999995,1.0225205022767632
5.4399999999999995,1.0136328217565451
5.48,1.0055310848397265
5.52,0.9982700575460844
5.56,0.9919002150584088
5.6,0.9864670040168002
5.64,0.982010136180825
5.68,0.978562937885353
5.72,0.9761517797859046
5.76,0.9747956098730133
5.8,0.9745056095783197
5.84,0.9752849881198308
5.879999999999999,0.9771289243395885
5.92,0.9800246586255671
5.96,0.9839517306322547
5.999999999999999,0.9888823520007203
6.04,0.9947818976601154
6.08,1.0016094949850114
6.119999999999999,1.0093186873410038
6.16,1.0178581474489357
6.2,1.027172416441776
6.239999999999999,1.0372026462464754
6.279999999999999,1.047887325677197
6.32,1.059162974020382
6.359999999999999,1.070964789578598
6.3999999999999995,1.0832272443169573
6.44,1.0958846191846783
6.4799999999999995,1.1088714777020674
6.52,1.1221230779160303
6.56,1.1355757248034228
6.6,1.1491670666562654
6.64,1.1628363399632733
6.68,1.1765245678758032
6.72,1.190174717587297
6.76,1.2037318219388842
6.8,1.2171430703584072
6.84,1.2303578739061298
6.88,1.2433279087869429
6.92,1.2560071422358534
6.959999999999999,1.2683518442199593
7.0,1.2803205879481456
7.04,1.2918742417529159
7.08,1.3029759545169857
7.119999999999999,1.313591136464194
7.16,1.3236874368225429
7.199999999999999,1.3332347195951288
7.239999999999999,1.3422050384413406
7.28,1.350572611472029
7.32,1.358313796596038
7.359999999999999,1.365407067916895
7.3999999999999995,1.3718329935651414
7.4399999999999995,1.3775742152592592
7.4799999999999995,1.3826154298145017
7.52,1.3869433727602793
7.5600000000000005,1.3905468041811266
7.599999999999999,1.3934164968615086
7.64,1.3955452267883663
7.68,1.3969277660459987
7.719999999999999,1.3975608781240256
7.76,1.397443315649184
7.800000000000001,1.3965758205445136
7.839999999999999,1.3949611266138158
7.88,1.3926039645441664
7.92,1.3895110693131933
7.959999999999999,1.3856911899804907
8.0,1.3811551018314605
8.040000000000001,1.3759156208276677
8.08,1.3699876202966412
8.12,1.3633880497670698
8.159999999999998,1.3561359558182235
8.2,1.3482525047654794
8.24,1.3397610069426142
8.28,1.3306869422659062
8.32,1.3210579866696888
8.36,1.3109040388873208
8.399999999999999,1.300257246910107
8.44,1.2891520332878454
8.48,1.277625118233681
8.52,1.2657155392607695
8.56,1.2534646658051343
8.6,1.2409162069775077
8.639999999999999,1.2281162102356695
8.68,1.215113048380897
8.72,1.2019573918619557
8.76,1.1887021629282475
8.8,1.1754024677241597
8.84,1.1621155019823743
8.879999999999999,1.1489004255841804
8.92,1.135818200949538
8.959999999999999,1.1229313900476063
9.0,1.1103039048392107
9.040000000000001,1.0980007062420096
9.079999999999998,1.0860874473201536
9.12,1.0746300574123038
9.16,1.0636942653877255
9.2,1.0533450622008296
9.24,1.043646105409779
9.280000000000001,1.0346590712963197
9.32,1.026442963576199
9.36,1.019053391257474
9.399999999999999,1.0125418317548522
9.44,1.0069548986080623
9.48,1.002333635748767
9.52,0.9987128618763903
9.559999999999999,0.9961205888399911
9.6,0.9945775367698261
9.639999999999999,0.9940967659781825
9.68,0.9946834414350569
9.72,0.9963347401702367
9.76,0.999039905659852
9.8,1.0027804466298673
9.84,1.007530471300107
9.879999999999999,1.013257142423333
9.92,1.0199212339693444
9.959999999999999,1.0274777672487712
10.0,1.0358767027802047
10.04,1.0450636642289437
10.079999999999998,1.0549806720996415
10.12,1.0655668672644112
10.16,1.0767592075215004
10.2,1.088493123871125
10.24,1.1007031267626146
10.280000000000001,1.113323355963818
10.319999999999999,1.1262880707524938
10.36,1.139532079719422
10.4,1.152991111556159
10.44,1.1666021297767875
10.48,1.1803035954277221
10.52,1.1940356825315614
10.559999999999999,1.2077404513580694
10.6,1.221361984690084
10.639999999999999,1.234846492121421
10.68,1.2481423871484334
10.72,1.2612003414478647
10.76,1.273973320311431
10.799999999999999,1.2864166027653356
10.84,1.2984877894621933
10.879999999999999,1.3101468010122839
10.92,1.3213558690288036
10.96,1.3320795218062564
11.0,1.3422845662332634
11.04,1.351940067262356
11.08,1.361017326017663
11.12,1.369489857415067
11.16,1.3773333679943904
11.2,1.3845257345174913
11.24,1.391046983764882
11.28,1.3968792738647864
11.319999999999999,1.4020068774083285
11.36,1.4064161665404018
11.4,1.4100956001652059
11.44,1.413035713365737
11.48,1.4152291091062092
11.52,1.4166704522630722
11.559999999999999,1.4173564660127667
11.6,1.4172859305908134
11.64,1.4164596844262882
11.68,1.4148806276465913
11.72,1.4125537279384575
11.759999999999998,1.4094860287416882
11.799999999999999,1.40568665974006
11.84,1.4011668495988228
11.879999999999999,1.3959399408780822
11.92,1.3900214070253234
11.96,1.3834288713158154
11.999999999999998,1.376182127566071
12.04,1.3683031623891857
12.08,1.3598161786911915
12.12,1.350747620020314
12.16,1.3411261952748175
12.200000000000001,1.3309829031458476
12.239999999999998,1.3203510555169788
12.28,1.3092662988583847
12.32,1.297766632438083
12.36,1.2858924219225145
12.4,1.2736864066527191
12.44,1.2611936985593653
12.479999999999999,1.2484617703217853
12.52,1.2355404299867443
12.559999999999999,1.2224817788503515
12.6,1.209340148982442
12.64,1.196172016357137
12.68,1.1830358851700644
12.719999999999999,1.1699921386069168
12.76,1.1571028511212174
12.799999999999999,1.1444315572343033
12.84,1.1320429720459106
12.88,1.1200026591058543
12.92,1.1083766421117098
12.959999999999999,1.0972309581255453
12.999999999999998,1.0866311516918306
13.04,1.0766417114094449
13.08,1.0673254531477572
13.12,1.058742857134527
13.16,1.050951369455975
13.2,1.0440046819092677
13.239999999999998,1.0379520073853614
13.28,1.032837370741152
13.32,1.0286989371300947
13.36,1.025568400700207
13.4,1.0234704561978847
13.44,1.0224223741958884
13.479999999999999,1.0224336973898396
13.52,1.0235060708305344
13.559999999999999,1.0256332133787127
13.6,1.028801031507117
13.64,1.0329878703262756
13.68,1.0381648908811918
13.719999999999999,1.0442965578082137
13.76,1.0513412176993415
13.799999999999999,1.0592517461963464
13.84,1.0679762409758926
13.88,1.0774587382923682
13.919999999999998,1.0876399324064592
13.959999999999999,1.0984578797625857
14.0,1.109848672873306
14.04,1.1217470722217429
14.08,1.1340870878381624
14.120000000000001,1.1468025053358053
14.16,1.1598273539582358
14.2,1.1730963165117523
14.239999999999998,1.186545082899738
14.28,1.2001106503521226
14.32,1.213731574390354
14.36,1.2273481751446047
14.399999999999999,1.240902703909065
14.44,1.2543394748492243
14.479999999999999,1.267604966623657
14.52,1.2806478984053868
14.56,1.2934192844302226
14.6,1.3058724707983385
14.64,1.3179631578376827
14.68,1.3296494109258585
14.719999999999999,1.3408916622734068
14.76,1.351652705806657
14.799999999999999,1.361897686956733
14.84,1.3715940888658824
14.879999999999999,1.3807117162623535
14.919999999999998,1.3892226780304766
14.959999999999999,1.3971013693094674
15.0,1.4043244537917192
15.04,1.4108708467543307
15.079999999999998,1.4167216992443685
15.120000000000001,1.4218603837450603
15.159999999999998,1.4262724815743935
15.199999999999998,1.4299457722064903
15.24,1.4328702246572922
15.28,1.4350379910373678
15.319999999999999,1.4364434023441337
15.36,1.4370829665412683
15.399999999999999,1.4369553689535743
15.439999999999998,1.4360614749888045
15.48,1.4344043351832145
15.52,1.4319891925527535
15.559999999999999,1.4288234922162812
15.600000000000001,1.424916893238591
15.639999999999999,1.4202812826190205
15.679999999999998,1.4149307913231
15.72,1.4088818122197933
15.76,1.4021530197419354
15.799999999999999,1.3947653910317857
15.84,1.3867422282640833
15.879999999999999,1.3781091817529239
15.919999999999998,1.3688942733441196
15.96,1.3591279194680435
16.0,1.348842953075768
16.04,1.3380746435016888
16.080000000000002,1.32686071308448
16.12,1.3152413491336565
16.16,1.3032592095486748
16.200000000000003,1.2909594200815586
16.24,1.278389560882737
16.279999999999998,1.2655996395880635
16.319999999999997,1.2526420477989342
16.36,1.23957149738973
16.4,1.2264449326642606
16.439999999999998,1.2133214140001651
16.48,1.2002619682990445
16.52,1.1873294013417792
16.56,1.1745880670821678
16.6,1.162103589055583
16.64,1.1499425294960417
16.68,1.1381720025105184
16.72,1.1268592288145105
16.759999999999998,1.1160710311366302
16.799999999999997,1.1058732714784487
16.84,1.096330233959831
16.88,1.0875039599343252
16.919999999999998,1.079453545311832
16.96,1.0722344134028
17.0,1.065897579865271
17.04,1.0604889292115596
17.080000000000002,1.0560485245064697
17.12,1.0526099730644045
17.16,1.0501998708763298
17.2,1.0488373470077772
17.24,1.0485337262710084
17.279999999999998,1.049292324200736
17.32,1.0511083830167502
17.36,1.0539691512278717
17.4,1.0578541032953577
17.44,1.062735289829995
17.48,1.0685778036092577
17.52,1.0753403426390953
17.56,1.0829758487861694
17.6,1.09143219925636
17.64,1.1006529283351898
17.68,1.1105779581555886
17.72,1.1211443195555837
17.759999999999998,1.1322868470304897
17.799999999999997,1.1439388350662767
17.84,1.1560326464891528
17.88,1.16850026665872
17.919999999999998,1.1812738002048022
17.96,1.1942859094611373
18.0,1.207470195735877
18.04,1.2207615260766422
18.080000000000002,1.2340963092680044
18.12,1.2474127254919398
18.159999999999997,1.260650914449466
18.2,1.2737531268490598
18.24,1.2866638440764806
18.279999999999998,1.2993298706274545
18.32,1.3117004035568007
18.36,1.3237270828140348
18.4,1.3353640259269262
18.44,1.346567850083438
18.48,1.3572976842655848
18.52,1.3675151737165927
18.560000000000002,1.3771844786818892
18.6,1.386272269058489
18.64,1.3947477163166235
18.679999999999996,1.4025824838217233
18.72,1.4097507164817813
18.759999999999998,1.4162290304722744
18.799999999999997,1.4219965036451292
18.84,1.4270346671065928
18.88,1.4313274983482818
18.919999999999998,1.4348614162327225
18.96,1.437625278067485
19.0,1.4396103789464383
19.04,1.4408104534919413
19.080000000000002,1.441221680094238
19.119999999999997,1.440842687712744
19.159999999999997,1.4396745652757186
19.2,1.437720873688488
19.24,1.4349876604334875
19.279999999999998,1.431483476716466
19.32,1.4272193970799052
19.36,1.4222090413646438
19.4,1.4164685988523467
19.44,1.4100168543611815
19.48,1.4028752159927693
19.52,1.395067744137149
19.560000000000002,1.3866211812298908
19.6,1.3775649816192896
19.639999999999997,1.367931340736403
19.68,1.3577552225642224
19.72,1.3470743841687527
19.759999999999998,1.335929395782268
19.8,1.324363654613469
19.84,1.3124233901990483
19.88,1.300157658707122
19.919999999999998,1.287618323156473
19.96,1.274860016034843
20.0,1.2619400802949077
20.04,1.2489184841970533
20.08,1.2358577049797954
20.119999999999997,1.2228225759074907
20.159999999999997,1.2098800909177283
20.2,1.197099160925352
20.24,1.1845503159058932
20.279999999999998,1.1723053472555744
20.32,1.1604368856911433
20.36,1.1490179111904084
20.4,1.1381211932515223
20.44,1.1278186621088453
20.48,1.1181807144879277
20.52,1.1092754609584616
20.560000000000002,1.1011679258282843
20.599999999999998,1.0939192146115357
20.639999999999997,1.0875856681186507
20.68,1.082218025808487
20.72,1.077860623828465
20.759999999999998,1.074550654764916
20.8,1.0723175162068563
20.84,1.071182273575904
20.88,1.0711572592360141
20.92,1.0722458248003148
20.96,1.0744422571229204
21.0,1.0777318611881515
21.04,1.082091205584857
21.08,1.0874885191056491
21.119999999999997,1.0938842208178534
21.159999999999997,1.1012315611683465
21.2,1.1094773485899654
21.24,1.11856273476099
21.279999999999998,1.1284240320368963
21.32,1.138993538382894
21.36,1.1502003480470964
21.4,1.161971129845381
21.44,1.1742308589052826
21.48,1.1869034917074228
21.52,1.1999125780086475
21.56,1.2131818065481565
21.599999999999998,1.2266354842205647
21.639999999999997,1.2401989506072677
21.68,1.2537989314020672
21.72,1.2673638353954966
21.759999999999998,1.2808240003650506
21.8,1.2941118935343594
21.84,1.3071622722933487
21.88,1.3199123106878865
21.92,1.3323016968569936
21.96,1.344272706172256
22.0,1.355770254361704
22.04,1.366741934411924
22.08,1.3771380405619476
22.119999999999997,1.3869115822468499
22.16,1.396018290428878
22.2,1.4044166183749027
22.24,1.4120677386034923
22.28,1.41893553743304
22.32,1.4249866083121518
22.36,1.430190244902378
22.4,1.434518434707798
22.44,1.437945853902875
22.48,1.4404498638950722
22.519999999999996,1.4420105100694853
22.56,1.442610523095453
22.599999999999998,1.4422353231273388
22.639999999999997,1.4408730272006243
22.68,1.4385144601085786
22.72,1.4351531690412958
22.759999999999998,1.43078544227729
22.8,1.4254103322356428
22.84,1.4190296832236884
22.88,1.4116481642492702
22.92,1.4032733073073806
22.96,1.393915551596632
23.0,1.3835882941703623
23.04,1.372307947578465
23.08,1.3600940051064168
23.119999999999997,1.3469691142651397
23.16,1.3329591592241252
23.2,1.3180933529057561
23.24,1.3024043394628986
23.28,1.2859283078348205
23.32,1.268705117004723
23.36,1.250778433448271
23.400000000000002,1.232195881043672
23.44,1.2130092033811986
23.479999999999997,1.1932744379264693
23.519999999999996,1.173052100811674
23.56,1.152407380096367
23.599999999999998,1.1314103340878443
23.639999999999997,1.1101360896641854
23.68,1.0886650334163355
23.72,1.067082985734799
23.759999999999998,1.0454813446340516
23.8,1.0239571820860116
23.84,1.0026132709273738
23.88,0.9815580151139331
23.92,0.9609052504625505
23.96,0.9407738775014651
23.999999999999996,0.9212872833703121
24.04,0.9025725069327056
24.08,0.8847591017926878
24.119999999999997,0.8679776574364538
24.16,0.8523579510435711
24.2,0.8380267231622376
24.24,0.8251051001600264
24.28,0.8137057244274757
24.32,0.80392969692152
24.36,0.7958634805600098
24.400000000000002,0.7895759498349081
24.439999999999998,0.7851157933816395
24.479999999999997,0.7825094746058168
24.52,0.7817599265487194
24.56,0.7828461018900602
24.599999999999998,0.7857234241655816
24.64,0.7903251035431622
24.68,0.7965642035475526
24.72,0.8043362862158732
24.759999999999998,0.8135224301583903
24.8,0.8239924108569047
24.84,0.8356078517065798
24.88,0.8482251905319598
24.92,0.8616983509824613
24.959999999999997,0.8758810534970762
24.999999999999996,0.8906287406625212
25.04,0.9058001235139995
25.08,0.9212583776311752
25.119999999999997,0.9368720313712624
25.16,0.9525155947913724
25.2,0.968069978615779
25.24,0.9834227498077945
25.28,0.9984682654334747
25.32,1.0131077207117878
25.36,1.0272491412348417
25.4,1.0408073438128864
25.439999999999998,1.0537038855256247
25.479999999999997,1.065867016454408
25.52,1.077231648238245
25.56,1.0877393479864044
25.599999999999998,1.0973383651081434
25.64,1.105983697189962
25.68,1.1136372000665167
25.72,1.1202677466019846
25.76,1.1258514383392995
25.8,1.130371874005983
25.84,1.133820478809202
25.880000000000003,1.1361968984295507
25.919999999999998,1.1375094615430774
25.959999999999997,1.1377757144611618
25.999999999999996,1.137023030948969
26.04,1.135289299306194
26.08,1.1326236871657493
26.119999999999997,1.1290874819341774
26.16,1.1247550010520944
26.2,1.1197145609245391
26.24,1.114069486046
26.28,1.107939130089775
26.32,1.1014598681606382
26.36,1.0947860037873387
26.4,1.0880905156425622
26.439999999999998,1.0815655480616462
26.479999999999997,1.075422527687425
26.52,1.0698917686852163
26.56,1.0652214150993993
26.599999999999998,1.061675566725443
26.64,1.0595314511347025
26.68,1.059075546032765
26.72,1.0605986278665107
26.76,1.0643898248602837
26.8,1.0707298784633401
26.84,1.0798839505037199
26.88,1.0920944299552018
26.919999999999998,1.1075742651376268
26.959999999999997,1.1265013502768666
27.0,1.1490144181218587
27.04,1.1752107399158367
27.08,1.205145736471009
27.119999999999997,1.2388343975657008
27.16,1.276254230411137
27.2,1.3173493402785286
27.24,1.3620351993587583
27.28,1.4102036782184104
27.32,1.4617279803950176
27.36,1.5164672125202234
27.4,1.5742704193335173
27.439999999999998,1.634980000100804
27.479999999999997,1.6984344920319792
27.52,1.7644707548505008
27.56,1.8329256202327298
27.599999999999998,1.9036370840183818
27.64,1.97644512212316
27.68,2.0511922068780373
27.72,2.127723592244994
27.76,2.205887426324036
27.8,2.2855347393016316
27.839999999999996,2.3665193454061684
27.88,2.448697688994144
27.919999999999998,2.5319286577566995
27.959999999999997,2.616073380192258
28.0,2.700995019822931
28.04,2.786558574980435
28.08,2.8726306901830565
28.12,2.9590794830089724
