Time (s),Filtered Signal
0.0,-0.03544236855224108
0.03337004405286344,0.19875308975923467
0.06674008810572687,0.2660291325572195
0.10011013215859031,0.07049955214511852
0.13348017621145375,-0.37214648240010983
0.16685022026431717,-0.9460577634665003
0.20022026431718062,-1.4884835371596006
0.23359030837004408,-1.8571807268324751
0.2669603524229075,-1.9804360529069214
0.3003303964757709,-1.870179254872385
0.33370044052863435,-1.5985892959930907
0.3670704845814978,-1.2553731015138316
0.40044052863436125,-0.9086436592066264
0.43381057268722467,-0.5860774008589946
0.46718061674008815,-0.2801278326913056
0.5005506607929515,0.030815980441155563
0.533920704845815,0.35883200408020655
0.5672907488986785,0.6919365494631469
0.6006607929515418,0.9937077566895818
0.6340308370044053,1.215414884450843
0.6674008810572687,1.3146881218769573
0.7007709251101322,1.2733550452357194
0.7341409691629956,1.1077977317660839
0.767511013215859,0.8673953138912778
0.8008810572687225,0.6202255172875665
0.834251101321586,0.429924737620023
0.8676211453744493,0.33203267872429054
0.9009911894273128,0.31989194949780336
0.9343612334801763,0.3473859946899776
0.9677312775330397,0.3488569904756945
1.001101321585903,0.2684568922462908
1.0344713656387665,0.08615573039236883
1.06784140969163,-0.1714032223036654
1.1012114537444935,-0.44029671217143346
1.134581497797357,-0.6450057933813036
1.1679515418502202,-0.7295464518839065
1.2013215859030837,-0.6813667348892097
1.2346916299559472,-0.5385089382716992
1.2680616740088106,-0.3766709625101852
1.3014317180616741,-0.27971231571018645
1.3348017621145374,-0.30340528303245434
1.3681718061674009,-0.4464257576047747
1.4015418502202643,-0.6425278041489568
1.4349118942731278,-0.7815111991151981
1.4682819383259913,-0.7545133576247378
1.5016519823788548,-0.5060271118957705
1.535022026431718,-0.06816995889648043
1.5683920704845815,0.4423097818672311
1.601762114537445,0.8674254502087824
1.6351321585903085,1.0744700647250718
1.668502202643172,1.0148350790830896
1.7018722466960352,0.745848276020747
1.7352422907488987,0.40342469688788146
1.7686123348017622,0.1377157088450444
1.8019823788546256,0.04298279854873138
1.8353524229074891,0.11637531928551641
1.8687224669603526,0.26594481341308135
1.9020925110132159,0.36322080967614934
1.9354625550660793,0.31291506176021244
1.9688325991189428,0.10378895445128208
2.002202643171806,-0.1850427846191313
2.0355726872246698,-0.42466278950616554
2.068942731277533,-0.502100552545576
2.1023127753303967,-0.3777546948365859
2.13568281938326,-0.10660617403560245
2.1690528634361232,0.1856914260150966
2.202422907488987,0.35899910847273253
2.23579295154185,0.32030823380457885
2.269162995594714,0.06315164408783716
2.302533039647577,-0.33142503384003363
2.3359030837004404,-0.7308487012881373
2.369273127753304,-1.0062888959821479
2.4026431718061674,-1.081843668457195
2.436013215859031,-0.9564606485571946
2.4693832599118943,-0.691497466354808
2.5027533039647576,-0.373807716585217
2.5361233480176213,-0.0753169904135389
2.5694933920704845,0.17057474385184004
2.6028634361233483,0.36697268039869413
2.6362334801762115,0.5323535883445807
2.6696035242290748,0.6767040627460609
2.7029735682819385,0.7903981810029338
2.7363436123348017,0.8511507864449326
2.7697136563876654,0.8420430897382131
2.8030837004405287,0.7667337950627685
2.8364537444933924,0.6503525366265339
2.8698237885462556,0.524427714448
2.903193832599119,0.40543981615656755
2.9365638766519826,0.2821712423270917
2.969933920704846,0.12286322651948792
3.0033039647577096,-0.0990989188754698
3.036674008810573,-0.37559415467281526
3.070044052863436,-0.6504877639876224
3.1034140969162998,-0.8357595336243995
3.136784140969163,-0.8530497512712809
3.1701541850220267,-0.6794465062290433
3.20352422907489,-0.37032890276019065
3.2368942731277532,-0.042546296864136315
3.270264317180617,0.1767954765024791
3.30363436123348,0.21003282991403632
3.337004405286344,0.06485626687750985
3.370374449339207,-0.17335078743579269
3.4037444933920704,-0.38816817116468677
3.437114537444934,-0.49132667959748555
3.4704845814977974,-0.46152058786429945
3.503854625550661,-0.3426829020274515
3.5372246696035243,-0.205830287423349
3.5705947136563876,-0.09988077005177941
3.6039647577092513,-0.022438203178615026
3.6373348017621145,0.07187465924624276
3.6707048458149782,0.2320544169935055
3.7040748898678415,0.4666418842126599
3.737444933920705,0.7243807016457329
3.7708149779735685,0.9136523116433342
3.8041850220264317,0.9505304252456025
3.8375550660792954,0.807323975440752
3.8709251101321587,0.5325557571250751
3.9042951541850224,0.22966435419894599
3.9376651982378856,0.00531315804086658
3.971035242290749,-0.0847250108406122
4.004405286343612,-0.06291822658130994
4.037775330396476,-0.01599050440079872
4.0711453744493395,-0.046893793906926426
4.104515418502203,-0.2173983610683714
4.137885462555066,-0.5103591201481411
4.171255506607929,-0.8307264423542932
4.2046255506607935,-1.045503803859814
4.237995594713657,-1.0443175617780425
4.27136563876652,-0.7925865777117818
4.304735682819383,-0.3526518778405528
4.3381057268722465,0.13714385854262617
4.371475770925111,0.5164101801400749
4.404845814977974,0.6660671756225122
4.438215859030837,0.5539592542084251
4.4715859030837,0.24443477688836657
4.504955947136564,-0.12992741573604252
4.538325991189428,-0.4204178665930821
4.571696035242291,-0.5160526631153114
4.605066079295154,-0.37932943663021684
4.638436123348018,-0.053678183564676935
4.671806167400881,0.3561140994158863
4.705176211453745,0.7208280268393081
4.738546255506608,0.9281071144504999
4.7719162995594715,0.9160938795318119
4.805286343612335,0.6906439817799762
4.838656387665198,0.32172362509413915
4.872026431718062,-0.0801334005725302
4.905396475770925,-0.40057042979378277
4.938766519823789,-0.5596301074532272
4.972136563876652,-0.5379258639071889
5.005506607929515,-0.3803428431026787
5.038876651982379,-0.17470885821465768
5.072246696035243,-0.013039821099383552
5.105616740088106,0.04868221291565734
5.138986784140969,0.013989715726012836
5.172356828193832,-0.05931388234744873
5.2057268722466965,-0.09192381618636748
5.23909691629956,-0.02784083015669223
5.272466960352423,0.13183973353625608
5.305837004405286,0.3247891707794919
5.3392070484581495,0.4564391148897819
5.372577092511014,0.4476297624937423
5.405947136563877,0.2758521600772602
5.43931718061674,-0.011885983022156302
5.4726872246696034,-0.32123836519259386
5.506057268722468,-0.5553402173469533
5.539427312775331,-0.6577443132561901
5.572797356828194,-0.6307560294611383
5.606167400881057,-0.5213164312943022
5.639537444933921,-0.3858162119247553
5.672907488986785,-0.25711530625235135
5.706277533039648,-0.13410019465580902
5.739647577092511,0.001806836808495482
5.7730176211453745,0.15727011543491465
5.806387665198238,0.3076934519062637
5.839757709251102,0.4039381058103778
5.873127753303965,0.40294487761920195
5.9064977973568284,0.30253775891815937
5.939867841409692,0.15560607425379328
5.973237885462555,0.05025468756785302
6.006607929515419,0.06373388328654642
6.039977973568282,0.2157332519916839
6.073348017621146,0.44937629427397324
6.106718061674009,0.6535490126670039
6.140088105726872,0.7164865679675
6.173458149779736,0.5820704078870466
6.2068281938325995,0.2783147325837707
6.240198237885463,-0.09669597270901749
6.273568281938326,-0.42221947245425995
6.306938325991189,-0.6088006561108664
6.3403083700440535,-0.6308040006087806
6.373678414096917,-0.5244552420490739
6.40704845814978,-0.3587773240738449
6.440418502202643,-0.1999378664288823
6.4737885462555065,-0.08850794363663009
6.507158590308371,-0.03702430566662374
6.540528634361234,-0.04161076937313107
6.573898678414097,-0.09497806584418607
6.60726872246696,-0.1912380369343665
6.640638766519824,-0.32143478523269403
6.674008810572688,-0.46592865421792956
6.707378854625551,-0.5914777059391019
6.740748898678414,-0.6570837218965451
6.774118942731278,-0.6267036316916981
6.807488986784141,-0.4826824018015141
6.840859030837005,-0.2334171299406382
6.874229074889868,0.08809558121892551
6.9075991189427315,0.43376082840813834
6.940969162995595,0.7535804142664742
6.974339207048458,1.0073330915195557
7.007709251101322,1.1710057243373642
7.041079295154185,1.2369934848813398
7.074449339207049,1.209774342650532
7.107819383259912,1.1002531728380458
7.141189427312775,0.9217139360347459
7.174559471365639,0.688611684774635
7.207929515418503,0.4173818850558462
7.241299559471366,0.1273500896513812
7.274669603524229,-0.15974051757951244
7.308039647577092,-0.42174549199071015
7.3414096916299565,-0.6388679130433552
7.37477973568282,-0.7963095560952277
7.408149779735683,-0.8864033264775888
7.441519823788546,-0.9097962256530896
7.47488986784141,-0.8748576442684334
7.508259911894274,-0.7946977063646488
7.541629955947137,-0.6826438493938362
7.575,-0.5488476945118307
7.608370044052863,-0.4009128560870025
7.641740088105728,-0.2489487301657409
7.675110132158591,-0.11152977302660778
7.708480176211454,-0.016719725814198737
7.741850220264317,0.005922783234365527
7.775220264317181,-0.05910043329457205
7.808590308370045,-0.19764714208894305
7.841960352422908,-0.36033323120509486
7.875330396475771,-0.4735269270807782
7.9087004405286345,-0.4655509097048018
7.942070484581498,-0.29813489771647056
7.975440528634362,0.011357663105170633
8.008810572687224,0.38909466431556866
8.042180616740088,0.7287922463163131
8.075550660792953,0.9325326730242265
8.108920704845815,0.9513570257029424
8.142290748898679,0.8069127713320392
8.175660792951541,0.5827402628738364
8.209030837004406,0.38744776896920524
8.24240088105727,0.3057961339129246
8.275770925110132,0.36052114481265896
8.309140969162996,0.503402853080389
8.342511013215859,0.640089101279886
8.375881057268723,0.676389266464729
8.409251101321587,0.5630738661414308
8.44262114537445,0.3174975272029323
8.475991189427313,0.012837727058894324
8.509361233480176,-0.2576381900057295
8.54273127753304,-0.42223521904230965
8.576101321585904,-0.45853662902099307
8.609471365638766,-0.3964683891185582
8.64284140969163,-0.2990362924790967
8.676211453744493,-0.23251200724607268
8.709581497797357,-0.23986277940066936
8.742951541850221,-0.32682797721384743
8.776321585903084,-0.46322536526151736
8.809691629955948,-0.5965008745621677
8.84306167400881,-0.6717000918728281
8.876431718061674,-0.6514645712485579
8.909801762114538,-0.5302771388688966
8.9431718061674,-0.338482210287473
8.976541850220265,-0.1338618728422239
9.009911894273127,0.017829952896368618
9.043281938325991,0.06745499131660478
9.076651982378856,0.0027586414439821887
9.110022026431718,-0.1450579737137357
9.143392070484582,-0.3127991939422919
9.176762114537445,-0.4306491799599613
9.210132158590309,-0.44986522331341083
9.243502202643173,-0.3594528441988805
9.276872246696035,-0.18418079788273745
9.3102422907489,0.033540259904182586
9.343612334801762,0.25674663883796317
9.376982378854626,0.4688109509197867
9.41035242290749,0.6725613045133217
9.443722466960352,0.8755935991589082
9.477092511013216,1.0715426823789236
9.510462555066079,1.2290686704596734
9.543832599118943,1.296061865299634
9.577202643171807,1.2187653223525687
9.61057268722467,0.9679453606761086
9.643942731277534,0.5600591030302787
9.677312775330396,0.06234120806500147
9.71068281938326,-0.42311075658600017
9.744052863436124,-0.7919230544922197
9.777422907488987,-0.9740448643931896
9.81079295154185,-0.9586238980162354
9.844162995594713,-0.7957471792909627
9.877533039647577,-0.5736952228363441
9.910903083700441,-0.3813827368030843
9.944273127753304,-0.27238501506127727
9.977643171806168,-0.2462938238645416
10.01101321585903,-0.25544081176213246
10.044383259911895,-0.23361399489586945
10.077753303964759,-0.13321920175647264
10.111123348017621,0.04692386910007955
10.144493392070485,0.25690418088064837
10.177863436123348,0.416891406185879
10.211233480176212,0.45402019874524474
10.244603524229076,0.33683887702828536
10.277973568281938,0.0905968463668079
10.311343612334802,-0.21310975394833645
10.344713656387665,-0.4855692578091189
10.378083700440529,-0.6536185841809354
10.411453744493393,-0.6807338139660112
10.444823788546255,-0.5698973199455158
10.47819383259912,-0.3520661585586426
10.511563876651982,-0.0702962415784869
10.544933920704846,0.23135059013505213
10.57830396475771,0.5111860448051218
10.611674008810573,0.7292420905156056
10.645044052863437,0.848853097059151
10.678414096916299,0.8439481844370079
10.711784140969163,0.7096597725063517
10.745154185022027,0.46930500540437625
10.77852422907489,0.17119691393455932
10.811894273127754,-0.12562808466074993
10.845264317180618,-0.3704320036525168
10.87863436123348,-0.5345530673434584
10.912004405286345,-0.6128794281743536
10.945374449339207,-0.6138502938324721
10.978744493392071,-0.5463496827090282
11.012114537444935,-0.4137337166276061
11.045484581497798,-0.21987507579864882
11.078854625550662,0.017164494976414434
11.112224669603524,0.25523633736443474
11.145594713656388,0.43300165229890414
11.178964757709252,0.4921769347678288
11.212334801762115,0.40775405929490416
11.245704845814979,0.20893548102247395
11.279074889867841,-0.02445351941326042
11.312444933920705,-0.19314766057857832
11.34581497797357,-0.22422498976478647
11.379185022026432,-0.10806994291137817
11.412555066079296,0.09454175895074952
11.445925110132158,0.2812290535999471
11.479295154185023,0.35890958628737274
11.512665198237887,0.29019946133031366
11.546035242290749,0.11069809392933505
11.579405286343613,-0.09136852314361549
11.612775330396476,-0.22094681759174006
11.64614537444934,-0.22206424344118503
11.679515418502204,-0.10029606975642143
11.712885462555066,0.08707592494511243
11.74625550660793,0.2640236305654346
11.779625550660793,0.3717891351035415
11.812995594713657,0.3893073158239562
11.846365638766521,0.33052781400018233
11.879735682819383,0.2245633638324255
11.913105726872248,0.09298246521638029
11.94647577092511,-0.06162833221995716
11.979845814977974,-0.2494352650304417
12.013215859030838,-0.4739805696137263
12.0465859030837,-0.712646205630831
12.079955947136565,-0.9112826977955806
12.113325991189427,-1.0001305327972976
12.146696035242291,-0.9257157379039654
12.180066079295155,-0.6826109140597383
12.213436123348018,-0.3265843182955557
12.246806167400882,0.041013806910584254
12.280176211453744,0.3128439219088024
12.313546255506608,0.4210832350455178
12.346916299559473,0.3666648686587826
12.380286343612335,0.21750199777306436
12.413656387665199,0.0760367506160624
12.447026431718061,0.03146184005594735
12.480396475770926,0.11941799764261363
12.51376651982379,0.30819602021721265
12.547136563876652,0.5172555846492001
12.580506607929516,0.6577874010672928
12.613876651982379,0.6744015144217459
12.647246696035243,0.5674442955692183
12.680616740088107,0.3864948714739887
12.71398678414097,0.2009204292913985
12.747356828193833,0.06453952280950792
12.780726872246696,-0.007140075822418066
12.81409691629956,-0.03686737237235592
12.847466960352424,-0.06525417156824773
12.880837004405286,-0.12281432468465536
12.91420704845815,-0.2101217417232908
12.947577092511013,-0.2964781517252928
12.980947136563877,-0.33719218654707467
13.014317180616741,-0.2996424099616539
13.047687224669604,-0.18368878195052402
13.081057268722468,-0.025059857111082662
13.11442731277533,0.12040384210010083
13.147797356828194,0.20321506215141497
13.181167400881058,0.20304229764464396
13.21453744493392,0.13568395012997989
13.247907488986785,0.04117973764692826
13.281277533039647,-0.0393046641219206
13.314647577092511,-0.08424157345623422
13.348017621145376,-0.0987013664601912
13.381387665198238,-0.10476642923858423
13.414757709251102,-0.12265349465273216
13.448127753303964,-0.15511959892429117
13.481497797356829,-0.1852291264995481
13.514867841409693,-0.18879784876073014
13.548237885462555,-0.15320058128402414
13.58160792951542,-0.08978368495282044
13.614977973568282,-0.030854045206182658
13.648348017621146,-0.01202375170238368
13.68171806167401,-0.05044287678116842
13.715088105726872,-0.13275329847141396
13.748458149779736,-0.22097829527365123
13.781828193832599,-0.2733040159695392
13.815198237885463,-0.2669490980901555
13.848568281938327,-0.20859312850049375
13.88193832599119,-0.12574274626617787
13.915308370044054,-0.04516313810071974
13.948678414096916,0.02638724859029481
13.98204845814978,0.10498444008344257
14.015418502202644,0.21294922529826388
14.048788546255507,0.3538069531453665
14.08215859030837,0.496930622772905
14.115528634361233,0.5851024162773389
14.148898678414097,0.5639214047083124
14.182268722466961,0.4171435247596883
14.215638766519824,0.18610939487986833
14.249008810572688,-0.04137851678276718
14.28237885462555,-0.17057012230603552
14.315748898678414,-0.14850722011846568
14.349118942731279,0.004410924837355253
14.382488986784141,0.19902566975905478
14.415859030837005,0.31844036789394875
14.449229074889868,0.2757407194089091
14.482599118942732,0.058768726456769727
14.515969162995596,-0.2615847580558912
14.549339207048458,-0.5640544093895101
14.582709251101322,-0.7336512898868078
14.616079295154185,-0.7132357010063808
14.649449339207049,-0.5246646775277015
14.682819383259913,-0.25108648035894277
14.716189427312775,0.007604672935401844
14.74955947136564,0.18130059564934364
14.782929515418502,0.25449625880040405
14.816299559471366,0.259310872877922
14.84966960352423,0.2445962937368422
14.883039647577093,0.24136148958647835
14.916409691629957,0.2451131069383704
14.94977973568282,0.22456109836598404
14.983149779735683,0.15011144326729703
15.016519823788547,0.023668957863729335
15.04988986784141,-0.10995668606287792
15.083259911894274,-0.179559885085344
15.116629955947138,-0.12529094012097572
15.15,0.06232604086072368
15.183370044052865,0.32480212149021126
15.216740088105727,0.5522146546355411
15.250110132158591,0.6288444848570353
15.283480176211455,0.48701472465871054
15.316850220264318,0.142852776830474
15.350220264317182,-0.3042045472074135
15.383590308370044,-0.7090483651588547
15.416960352422908,-0.9390151369964104
15.450330396475772,-0.9266848171239196
15.483700440528635,-0.6947592671530578
15.517070484581499,-0.34356633811316434
15.550440528634361,-0.008015909263185806
15.583810572687225,0.1971008375523762
15.61718061674009,0.22115552959532295
15.650550660792952,0.0941983670840779
15.683920704845816,-0.08962593837973351
15.717290748898678,-0.21451968255633708
15.750660792951543,-0.19405714209547878
15.784030837004407,-0.009790913929763197
15.817400881057269,0.27909168013657815
15.850770925110133,0.5598798414824373
15.884140969162996,0.7144569556070545
15.91751101321586,0.670687426978313
15.950881057268724,0.43442130525453554
15.984251101321586,0.08795824014018652
16.01762114537445,-0.24409331184518007
16.050991189427315,-0.4460651908940024
16.084361233480177,-0.4568813831411627
16.11773127753304,-0.29068525832243824
16.151101321585905,-0.024927184939370246
16.184471365638768,0.23676221792084678
16.21784140969163,0.4086734073021663
16.251211453744492,0.45382741085009093
16.284581497797358,0.388878373675764
16.31795154185022,0.26391175971924574
16.351321585903083,0.1302913329492598
16.38469162995595,0.014695822219256525
16.41806167400881,-0.08731337588959216
16.451431718061674,-0.19665688735492587
16.48480176211454,-0.32574295507448836
16.518171806167402,-0.4596558656078295
16.551541850220264,-0.5561544200764629
16.584911894273127,-0.565653801680409
16.618281938325993,-0.46004208817849807
16.651651982378855,-0.2533029334138195
16.685022026431717,-0.0010596990193894643
16.718392070484583,0.22200619748725917
16.751762114537446,0.35524176761904014
16.785132158590308,0.37786768955441
16.818502202643174,0.3138739020323545
16.851872246696036,0.21417582658597625
16.8852422907489,0.12705913574120406
16.91861233480176,0.07406194973613463
16.951982378854627,0.04435211508829559
16.98535242290749,0.009154385262591965
17.01872246696035,-0.05391040026018902
17.052092511013218,-0.14171197433522267
17.08546255506608,-0.22286792509791672
17.118832599118942,-0.25269398890166117
17.152202643171808,-0.19750418724682928
17.18557268722467,-0.05538455021875333
17.218942731277533,0.13726111238426308
17.2523127753304,0.3170339084365164
17.28568281938326,0.4180698985672881
17.319052863436124,0.3992050354635721
