Frequency (Hz),Amplitude
0.0,0.9841334797214913
0.019801980198019802,0.9850241109299597
0.039603960396039604,0.9876875857677192
0.0594059405940594,0.9920988880454323
0.07920792079207921,0.9982171078899014
0.09900990099009901,1.0059865607196348
0.1188118811881188,1.015338247666159
0.13861386138613863,1.0261915667579184
0.15841584158415842,1.038456177122848
0.1782178217821782,1.0520339207899345
0.19801980198019803,1.0668207166941457
0.21782178217821782,1.0827083567723594
0.2376237623762376,1.0995861519519612
0.25742574257425743,1.1173423940125689
0.27722772277227725,1.1358656159383997
0.297029702970297,1.1550456473286435
0.31683168316831684,1.1747744721779356
0.33663366336633666,1.1949469038593792
0.3564356435643564,1.215461096756443
0.37623762376237624,1.236218916202707
0.39603960396039606,1.2571261887633587
0.4158415841584158,1.2780928539731458
0.43564356435643564,1.2990330368996135
0.45544554455445546,1.3198650587050642
0.4752475247524752,1.34051140001446
0.495049504950495,1.3608986295556558
0.5148514851485149,1.3809573083467577
0.5346534653465347,1.4006218777333814
0.5544554455445545,1.4198305378578209
0.5742574257425742,1.4385251216763792
0.594059405940594,1.45665096841805
0.613861386138614,1.4741567993759475
0.6336633663366337,1.490994598114609
0.6534653465346534,1.5071194965352808
0.6732673267326733,1.5224896677401618
0.6930693069306931,1.537066226251614
0.7128712871287128,1.5508131358518467
0.7326732673267327,1.5636971250945857
0.7524752475247525,1.5756876103867747
0.7722772277227723,1.5867566264329431
0.7920792079207921,1.5968787637669073
0.8118811881188118,1.6060311130564202
0.8316831683168316,1.6141932158493997
0.8514851485148516,1.6213470214303862
0.8712871287128713,1.6274768494684058
0.891089108910891,1.6325693581589926
0.9108910891089109,1.636613517592236
0.9306930693069307,1.6396005881119606
0.9504950495049505,1.6415241034684542
0.9702970297029703,1.6423798586068488
0.99009900990099,1.6421659019742938
1.00990099009901,1.6408825322717049
1.0297029702970297,1.638532299618842
1.0495049504950495,1.6351200111448614
1.0693069306930694,1.6306527410601332
1.0891089108910892,1.625139845308069
1.108910891089109,1.6185929809386352
1.1287128712871286,1.6110261303864855
1.1485148514851484,1.6024556308766462
1.1683168316831685,1.5929002092177638
1.188118811881188,1.5823810222767822
1.2079207920792079,1.5709217034566516
1.227722772277228,1.558548415519889
1.2475247524752475,1.5452899101113808
1.2673267326732673,1.5311775943305355
1.2871287128712872,1.5162456046817059
1.3069306930693068,1.5005308886859705
1.3267326732673268,1.4840732943598527
1.3465346534653466,1.4669156676481483
1.3663366336633662,1.4491039577269005
1.3861386138613863,1.4306873298547331
1.405940594059406,1.4117182851294985
1.4257425742574257,1.3922527860819132
1.4455445544554455,1.3723503864859836
1.4653465346534653,1.3520743630608218
1.4851485148514851,1.3314918458517941
1.504950495049505,1.3106739429816705
1.5247524752475248,1.2896958541272723
1.5445544554455446,1.2686369654820098
1.5643564356435644,1.2475809171009313
1.5841584158415842,1.2266156314017629
1.6039603960396038,1.2058332892557455
1.6237623762376237,1.1853302376330161
1.6435643564356437,1.1652068103184114
1.6633663366336633,1.1455670410137004
1.683168316831683,1.1265182465150738
1.7029702970297032,1.1081704570247286
1.7227722772277227,1.0906356715451917
1.7425742574257426,1.0740269192994616
1.7623762376237624,1.0584571138094623
1.782178217821782,1.0440376951364172
1.801980198019802,1.0308770680838006
1.8217821782178218,1.019078859715774
1.8415841584158414,1.0087400376018616
1.8613861386138615,0.9999489493208534
1.881188118811881,0.9927833618167946
1.900990099009901,0.9873085935622913
1.920792079207921,0.9835758403811584
1.9405940594059405,0.9816207948525573
1.9603960396039604,0.9814626481057922
1.98019801980198,0.9831035416569532
2.0,0.9865285075825154
2.01980198019802,0.9917059011379112
2.0396039603960396,0.998588295221906
2.0594059405940595,1.0071137752728172
2.0792079207920793,1.0172075499078213
2.099009900990099,1.028783779108589
2.118811881188119,1.0417475185402685
2.1386138613861387,1.055996684618046
2.1584158415841586,1.071423958026014
2.1782178217821784,1.087918560821847
2.1980198019801978,1.1053678613251219
2.217821782178218,1.123658779422367
2.237623762376238,1.142678981124571
2.257425742574257,1.1623178642821501
2.2772277227722775,1.182467347007489
2.297029702970297,1.2030224767396651
2.3168316831683167,1.2238818814540116
2.336633663366337,1.2449480858464725
2.3564356435643563,1.2661277150011983
2.376237623762376,1.2873316066194984
2.3960396039603964,1.3084748507964112
2.4158415841584158,1.3294767739239424
2.4356435643564356,1.3502608808269982
2.455445544554456,1.3707547668646387
2.4752475247524752,1.3908900095563839
2.495049504950495,1.4106020473717162
2.514851485148515,1.4298300516675113
2.5346534653465347,1.4485167963670302
2.5544554455445545,1.466608528825963
2.5742574257425743,1.4840548443997625
2.594059405940594,1.5008085664829274
2.6138613861386135,1.5168256332063885
2.633663366336634,1.5320649915275906
2.6534653465346536,1.5464884991043173
2.673267326732673,1.5600608340880764
2.6930693069306932,1.5727494127877257
2.712871287128713,1.5845243150244044
2.7326732673267324,1.5953582169128935
2.7524752475247527,1.6052263307520855
2.7722772277227725,1.6141063516809533
2.792079207920792,1.6219784107495647
2.811881188118812,1.6288250340628239
2.8316831683168315,1.6346311076735722
2.8514851485148514,1.6393838479289682
2.8712871287128716,1.6430727770069378
2.891089108910891,1.645689703416829
2.910891089108911,1.6472287072786607
2.9306930693069306,1.6476861302375714
2.9504950495049505,1.6470605699140612
2.9702970297029703,1.6453528788352405
2.99009900990099,1.6425661678379249
3.00990099009901,1.6387058139803505
3.0297029702970297,1.63377947304516
3.0495049504950495,1.627797096762657
3.0693069306930694,1.6207709549288367
3.089108910891089,1.6127156626374701
3.108910891089109,1.603648212889219
3.128712871287129,1.5935880148817134
3.148514851485148,1.5825569383221838
3.1683168316831685,1.5705793641369696
3.1881188118811883,1.5576822419772167
3.2079207920792077,1.5438951549350544
3.227722772277228,1.5292503918853826
3.2475247524752473,1.5137830278497586
3.267326732673267,1.4975310127350312
3.2871287128712874,1.4805352687212572
3.3069306930693068,1.462839796451353
3.3267326732673266,1.4444917899957082
3.346534653465347,1.4255417603127427
3.366336633663366,1.4060436665821456
3.386138613861386,1.386055054328081
3.4059405940594063,1.3656371986486546
3.4257425742574257,1.344855250094706
3.4455445544554455,1.3237783797628826
3.4653465346534653,1.302479918949726
3.485148514851485,1.28103748722371
3.504950495049505,1.2595331009831372
3.5247524752475248,1.238053252467345
3.5445544554455446,1.2166889467873077
3.564356435643564,1.1955356818857026
3.5841584158415842,1.1746933535286592
3.603960396039604,1.1542660646449374
3.6237623762376234,1.1343618158346953
3.6435643564356437,1.115092052051263
3.6633663366336635,1.096571039821636
3.683168316831683,1.078915050532627
3.702970297029703,1.062241328963066
3.722772277227723,1.0466668330737057
3.7425742574257423,1.0323067416257956
3.762376237623762,1.0192727407191966
3.7821782178217824,1.0076711185318121
3.801980198019802,0.9976007183939265
3.8217821782178216,0.9891508219986149
3.841584158415842,0.9823990543926201
3.8613861386138613,0.977409417239771
3.881188118811881,0.9742305635062719
3.9009900990099013,0.9728944226488073
3.9207920792079207,0.9734152694309732
3.9405940594059405,0.9757893023841598
3.96039603960396,0.9799947624199667
3.98019801980198,0.9859925825893107
4.0,0.9937275216793116
4.01980198019802,1.0031297022034107
4.03960396039604,1.0141164510947078
4.0594059405940595,1.0265943309000678
4.079207920792079,1.0404612503145303
4.099009900990099,1.0556085536223447
4.118811881188119,1.0719230060983531
4.138613861386139,1.089288613416196
4.158415841584159,1.107588234636398
4.178217821782178,1.1267049681182413
4.198019801980198,1.1465233062595057
4.217821782178218,1.1669300676597887
4.237623762376238,1.1878151240994743
4.257425742574258,1.209071945029337
4.2772277227722775,1.2305979847033097
4.297029702970297,1.2522949373590757
4.316831683168317,1.27406888462149
4.336633663366336,1.2958303571400058
4.356435643564357,1.3174943298213833
4.376237623762377,1.3389801672114328
4.3960396039603955,1.360211532838147
4.415841584158416,1.3811162737917646
4.435643564356436,1.4016262895594114
4.455445544554455,1.4216773921814863
4.475247524752476,1.4412091631529904
4.4950495049504955,1.4601648111348928
4.514851485148514,1.4784910334394743
4.534653465346535,1.4961378833750427
4.554455445544555,1.5130586448462668
4.574257425742574,1.5292097150739614
4.594059405940594,1.5445504958950826
4.613861386138614,1.5590432938037744
4.633663366336633,1.5726532286777242
4.653465346534653,1.585348150982363
4.673267326732674,1.5970985671448463
4.693069306930693,1.6078775727281387
4.712871287128713,1.6176607930040892
4.732673267326733,1.6264263305154676
4.752475247524752,1.634154719224732
4.772277227722772,1.6408288848679855
4.792079207920793,1.6464341111617014
4.811881188118812,1.6509580115460778
4.8316831683168315,1.6543905061892172
4.851485148514852,1.6567238040203136
4.871287128712871,1.657952389605895
4.891089108910891,1.658073014730997
4.910891089108912,1.6570846945956388
4.930693069306931,1.6549887085867465
4.9504950495049505,1.6517886056357909
4.97029702970297,1.6474902142231542
4.99009900990099,1.6421016571414835
5.00990099009901,1.63563337118189
5.02970297029703,1.6280981319583896
5.0495049504950495,1.6195110841376217
5.069306930693069,1.6098897773915912
5.089108910891089,1.5992542084405992
5.108910891089109,1.5876268696002844
5.128712871287129,1.5750328042893764
5.148514851485149,1.5614996699910635
5.1683168316831685,1.5470578091877638
5.188118811881188,1.5317403288028242
5.207920792079208,1.5155831886775655
5.227722772277227,1.498625299581518
5.247524752475248,1.4809086311887896
5.267326732673268,1.462478330342287
5.2871287128712865,1.443382849756538
5.306930693069307,1.4236740870600555
5.326732673267327,1.4034075337281418
5.346534653465346,1.3826424329794522
5.366336633663367,1.361441945072883
5.3861386138613865,1.3398733176079027
5.405940594059405,1.3180080573604112
5.425742574257426,1.2959220988321996
5.445544554455446,1.273695963011306
5.465346534653465,1.2514148977932715
5.485148514851486,1.2291689890735258
5.504950495049505,1.207053228688456
5.524752475247524,1.185167522198684
5.544554455445545,1.1636166160775034
5.564356435643565,1.1425099203864209
5.584158415841584,1.1219611998026668
5.603960396039604,1.1020881033716712
5.623762376237624,1.0830115022145508
5.643564356435643,1.0648546054077705
5.663366336633663,1.0477418282623674
5.683168316831684,1.0317973951676802
5.702970297029703,1.017143671774781
5.7227722772277225,1.0038992389219232
5.742574257425743,0.9921767430094324
5.762376237623762,0.9820805832180385
5.782178217821782,0.9737045226195375
5.801980198019803,0.9671293343801318
5.821782178217822,0.9624206117533723
5.841584158415841,0.9596268772868278
5.861386138613861,0.9587781195036007
5.881188118811881,0.9598848631003039
5.900990099009901,0.9629378428642074
5.920792079207921,0.9679083061451654
5.9405940594059405,0.974748919904572
5.96039603960396,0.9833952129258163
5.98019801980198,0.9937674478007936
6.0,1.00577279491244
6.01980198019802,1.0193076732746966
6.03960396039604,1.034260129622998
6.0594059405940595,1.0505121444706937
6.079207920792079,1.0679417778574087
6.099009900990099,1.0864250940707751
6.118811881188119,1.1058378302520067
6.138613861386139,1.1260567960806391
6.158415841584159,1.1469610093712739
6.178217821782178,1.1684325850573327
6.198019801980198,1.1903574030195125
6.217821782178218,1.2126255842783473
6.237623762376237,1.2351318061091143
6.257425742574258,1.2577754855429877
6.2772277227722775,1.2804608582694803
6.297029702970296,1.3030969767744316
6.316831683168317,1.3255976480961522
6.336633663366337,1.3478813281753748
6.356435643564356,1.3698709866074774
6.376237623762377,1.3914939527860624
6.396039603960396,1.4126817519955976
6.415841584158415,1.4333699379697165
6.435643564356436,1.4534979267539678
6.455445544554456,1.4730088353600217
6.475247524752475,1.4918493276273497
6.495049504950495,1.5099694688748544
6.514851485148515,1.5273225902871814
6.534653465346534,1.5438651635017084
6.554455445544554,1.5595566855105762
6.574257425742575,1.5743595737414313
6.594059405940594,1.5882390710075942
6.6138613861386135,1.601163159906612
6.633663366336634,1.6131024861798
6.653465346534653,1.624030290514208
6.673267326732673,1.6339223482627725
6.693069306930694,1.6427569165718796
6.712871287128713,1.6505146884323911
6.732673267326732,1.657178753206999
6.752475247524753,1.662734563229954
6.772277227722772,1.6671699061232181
6.792079207920792,1.6704748825240203
6.811881188118813,1.6726418889716033
6.8316831683168315,1.6736656057550843
6.851485148514851,1.6735429895795304
6.871287128712871,1.6722732709628352
6.891089108910891,1.6698579563323404
6.910891089108911,1.6663008348471282
6.930693069306931,1.661607990029474
6.9504950495049505,1.6557878163475594
6.97029702970297,1.6488510409509163
6.99009900990099,1.640810750820613
7.00990099009901,1.631682425657475
7.02970297029703,1.6214839768934743
7.0495049504950495,1.6102357932737108
7.069306930693069,1.5979607935173477
7.089108910891089,1.584684486625465
7.108910891089109,1.5704350404586138
7.128712871287128,1.555243359255497
7.148514851485149,1.5391431708018677
7.1683168316831685,1.52217112398059
7.188118811881187,1.5043668974327529
7.207920792079208,1.4857733200267105
7.227722772277228,1.4664365037539175
7.247524752475247,1.4464059895329686
7.267326732673268,1.4257349061848674
7.287128712871287,1.4044801425188165
7.306930693069306,1.3827025320062885
7.326732673267327,1.3604670488837824
7.346534653465347,1.337843013664512
7.366336633663366,1.314904304902936
7.3861386138613865,1.2917295725815696
7.405940594059406,1.2684024466136885
7.425742574257425,1.2450117316119667
7.445544554455446,1.2216515762094942
7.465346534653466,1.1984216018038472
7.485148514851485,1.1754269716406454
7.504950495049505,1.1527783767463349
7.524752475247524,1.1305919105554278
7.544554455445544,1.1089887995026748
7.564356435643565,1.0880949529107402
7.584158415841584,1.068040292978584
7.603960396039604,1.048957825589582
7.623762376237624,1.0309824162449097
7.643564356435643,1.014249244008992
7.663366336633663,0.9988919211200759
7.683168316831684,0.9850402875878846
7.702970297029703,0.9728179184891143
7.7227722772277225,0.9623394152555751
7.742574257425743,0.9537075878614547
7.762376237623762,0.947010667659991
7.782178217821782,0.9423197147850513
7.801980198019803,0.9396863935545462
7.821782178217822,0.9391412796392389
7.841584158415841,0.9406928322506707
7.861386138613862,0.9443271155194065
7.881188118811881,0.950008291769104
7.900990099009901,0.9576798445346525
7.92079207920792,0.9672664307020197
7.9405940594059405,0.9786762173522172
7.96039603960396,0.991803534793567
7.980198019801979,1.0065316738422143
8.0,1.022735669971247
8.01980198019802,1.0402849443415534
8.03960396039604,1.0590457058785163
8.05940594059406,1.0788830538354848
8.07920792079208,1.0996627523874707
8.099009900990099,1.1212526750990384
8.118811881188119,1.1435239365481733
8.138613861386139,1.1663517411066902
8.158415841584159,1.189615985779161
8.178217821782178,1.213201656339414
8.198019801980198,1.2369990550817496
8.217821782178218,1.2609038954915635
8.237623762376238,1.284817294982637
8.257425742574258,1.3086456922447587
8.277227722772277,1.332300711173658
8.297029702970297,1.3556989891087696
8.316831683168317,1.3787619833405944
8.336633663366337,1.4014157666278344
8.356435643564357,1.4235908197834162
8.376237623762377,1.4452218272087354
8.396039603960396,1.4662474795186358
8.415841584158416,1.4866102860428274
8.435643564356436,1.5062563989475262
8.455445544554456,1.5251354499369822
8.475247524752476,1.5432003999168074
8.495049504950495,1.5604074015850762
8.514851485148515,1.5767156746287172
8.534653465346535,1.5920873930102175
8.554455445544555,1.6064875837114774
8.574257425742575,1.6198840362376583
8.594059405940595,1.6322472221609068
8.613861386138613,1.6435502239894808
8.633663366336634,1.6537686726748468
8.653465346534654,1.6628806931099798
8.673267326732672,1.6708668570234175
8.693069306930694,1.6777101427298047
8.712871287128714,1.6833959012591464
8.732673267326732,1.6879118284492396
8.752475247524753,1.6912479426499867
8.772277227722773,1.693396567751985
8.792079207920791,1.6943523213166012
8.811881188118813,1.6941121076482417
8.831683168316832,1.6926751157141435
8.85148514851485,1.690042821881198
8.871287128712872,1.686218997504561
8.891089108910892,1.681209721468611
8.91089108910891,1.6750233978484785
8.930693069306932,1.667670778929246
8.950495049504951,1.6591649938914903
8.97029702970297,1.6495215835452819
8.990099009900991,1.6387585415711179
9.00990099009901,1.6268963628047186
9.029702970297029,1.613958099183361
9.04950495049505,1.5999694240534295
9.06930693069307,1.5849587056205547
9.089108910891088,1.568957090403435
9.10891089108911,1.551998597626679
9.12871287128713,1.5341202255521793
9.148514851485148,1.5153620707961903
9.16831683168317,1.4957674617019379
9.188118811881187,1.4753831068222056
9.207920792079207,1.4542592594980015
9.227722772277229,1.4324498993754522
9.247524752475247,1.410012931456546
9.267326732673267,1.3870104028938486
9.287128712871288,1.3635087371689283
9.306930693069306,1.3395789844830337
9.326732673267326,1.31529708606556
9.346534653465348,1.29074414858987
9.366336633663366,1.2660067228812266
9.386138613861386,1.2411770785049276
9.405940594059407,1.2163534625298407
9.425742574257425,1.1916403266826183
9.445544554455445,1.1671485021867138
9.465346534653467,1.1429952958356824
9.485148514851485,1.119304474422031
9.504950495049505,1.0962060978573391
9.524752475247526,1.073836154767453
9.544554455445544,1.0523359489623767
9.564356435643564,1.0318511822994132
9.584158415841586,1.0125306808220327
9.603960396039604,0.9945247187098943
9.623762376237623,0.977982910597374
9.643564356435645,0.9630516688549172
9.663366336633663,0.9498712590102378
9.683168316831683,0.9385725322474078
9.702970297029704,0.9292734649183675
9.722772277227723,0.9220756844780659
9.742574257425742,0.9170612002161467
9.762376237623764,0.9142895759418792
9.782178217821782,0.9137957724954714
9.801980198019802,0.9155888471599081
9.821782178217823,0.919651627655281
9.841584158415841,0.9259413899403812
9.861386138613861,0.9343914757858158
9.881188118811881,0.9449137035055261
9.900990099009901,0.9574013660957236
9.92079207920792,0.9717325823821781
9.94059405940594,0.9877737689234157
9.96039603960396,1.005383027900144
9.98019801980198,1.0244132901651168
10.0,1.0447151034104498
10.01980198019802,1.0661390048074668
10.03960396039604,1.0885374598295425
10.05940594059406,1.111766381406961
10.07920792079208,1.135686265543894
10.099009900990099,1.160162992093527
10.118811881188119,1.185068344407538
10.138613861386139,1.2102803011446728
10.158415841584159,1.235683149575545
10.178217821782178,1.2611674638353427
10.198019801980198,1.2866299849232985
10.217821782178218,1.3119734326149604
10.237623762376238,1.3371062733187524
10.257425742574258,1.3619424625181935
10.277227722772277,1.386401175881303
10.297029702970297,1.4104065393765055
10.316831683168317,1.4338873657393014
10.336633663366337,1.4567769022893666
10.356435643564357,1.479012593300139
10.376237623762377,1.5005358587724595
10.396039603960396,1.5212918904711101
10.415841584158416,1.5412294653715166
10.435643564356436,1.560300776169147
10.455445544554454,1.578461278174736
10.475247524752476,1.595669551712417
10.495049504950495,1.6118871790234024
10.514851485148514,1.6270786346293873
10.534653465346535,1.641211188108377
10.554455445544555,1.654254818266874
10.574257425742573,1.6661821377456274
10.594059405940595,1.6769683271630804
10.613861386138614,1.6865910779767226
10.633663366336632,1.695030543322267
10.653465346534654,1.7022692961727133
10.673267326732674,1.7082922942411354
