Time (s),Filtered Signal
0.0,0.03425928679861614
0.03337004405286344,0.09918736922223392
0.06674008810572687,0.22109991200808468
0.10011013215859031,0.42204870593791194
0.13348017621145375,0.6721815395870789
0.16685022026431717,0.9001540229896069
0.20022026431718062,1.0254248283623302
0.23359030837004408,0.9959871852778553
0.2669603524229075,0.8127662273322211
0.3003303964757709,0.529307285296636
0.33370044052863435,0.22825119412673522
0.3670704845814978,-0.012593595557611987
0.40044052863436125,-0.14791587356185878
0.43381057268722467,-0.1747011471317108
0.46718061674008815,-0.12292411106337948
0.5005506607929515,-0.03532177767909842
0.533920704845815,0.05199077644742489
0.5672907488986785,0.11951337777239425
0.6006607929515418,0.1634119108869191
0.6340308370044053,0.18822945096331678
0.6674008810572687,0.19978114013167697
0.7007709251101322,0.20212188195150246
0.7341409691629956,0.19789751929179375
0.767511013215859,0.1885125802805966
0.8008810572687225,0.17150067664158203
0.834251101321586,0.1363552529122396
0.8676211453744493,0.06353033027703543
0.9009911894273128,-0.0689670445530266
0.9343612334801763,-0.27169205741334396
0.9677312775330397,-0.5292291579377166
1.001101321585903,-0.7949587346749523
1.0344713656387665,-1.0020405548933502
1.06784140969163,-1.088875867687536
1.1012114537444935,-1.0278307941799691
1.134581497797357,-0.8418256782210956
1.1679515418502202,-0.5980123472269262
1.2013215859030837,-0.37943944112663225
1.2346916299559472,-0.24795334505517627
1.2680616740088106,-0.21720154261934124
1.3014317180616741,-0.24972842140012425
1.3348017621145374,-0.2792586603894826
1.3681718061674009,-0.24575654346974507
1.4015418502202643,-0.12452233133761978
1.4349118942731278,0.06516888693425447
1.4682819383259913,0.2744776399867605
1.5016519823788548,0.4526510798995529
1.535022026431718,0.5721209693525681
1.5683920704845815,0.6383496856602747
1.601762114537445,0.681196903162933
1.6351321585903085,0.734532062510362
1.668502202643172,0.8159272024250248
1.7018722466960352,0.9166391210679624
1.7352422907488987,1.005669660670142
1.7686123348017622,1.0444595923676356
1.8019823788546256,1.0042919123512832
1.8353524229074891,0.8782933785681448
1.8687224669603526,0.6833413682191877
1.9020925110132159,0.452134963098165
1.9354625550660793,0.21987134072028983
1.9688325991189428,0.011763740365712321
2.002202643171806,-0.16341323036461128
2.0355726872246698,-0.3117371579714063
2.068942731277533,-0.4462521917342054
2.1023127753303967,-0.5771764059356086
2.13568281938326,-0.7050286329648299
2.1690528634361232,-0.8196669804162753
2.202422907488987,-0.905127980704158
2.23579295154185,-0.947339035813884
2.269162995594714,-0.9405953032213097
2.302533039647577,-0.8896215352273165
2.3359030837004404,-0.8064829991904955
2.369273127753304,-0.7042686450221917
2.4026431718061674,-0.5910360060300622
2.436013215859031,-0.4672729259041357
2.4693832599118943,-0.32825386513790555
2.5027533039647576,-0.1700678854819563
2.5361233480176213,0.003937100115127867
2.5694933920704845,0.1799320874402041
2.6028634361233483,0.3357009457871339
2.6362334801762115,0.44746177159935574
2.6696035242290748,0.4984737883058132
2.7029735682819385,0.48571049741732203
2.7363436123348017,0.42191828717497354
2.7697136563876654,0.3324333526336392
2.8030837004405287,0.24804355096449973
2.8364537444933924,0.19622178222807768
2.8698237885462556,0.19318723686979597
2.903193832599119,0.23885822036997242
2.9365638766519826,0.31618659559795204
2.969933920704846,0.39560830090978555
3.0033039647577096,0.4441452613912231
3.036674008810573,0.4369557984957862
3.070044052863436,0.36737471644278147
3.1034140969162998,0.25085311731255405
3.136784140969163,0.11980344435564783
3.1701541850220267,0.010238022823082709
3.20352422907489,-0.05431663684172791
3.2368942731277532,-0.07356894982655758
3.270264317180617,-0.0695071675001429
3.30363436123348,-0.07326787424254155
3.337004405286344,-0.10645247878944487
3.370374449339207,-0.1674167836061198
3.4037444933920704,-0.23088219495331064
3.437114537444934,-0.2617952747033424
3.4704845814977974,-0.23597124919033902
3.503854625550661,-0.1557577419746452
3.5372246696035243,-0.05139524365078611
3.5705947136563876,0.03341081056884294
3.6039647577092513,0.06436050065018988
3.6373348017621145,0.03557450071944685
3.6707048458149782,-0.025901299367891352
3.7040748898678415,-0.07330320139061718
3.737444933920705,-0.0648712675547018
3.7708149779735685,0.012477179211546108
3.8041850220264317,0.1329609404484054
3.8375550660792954,0.24107155923952822
3.8709251101321587,0.2762572354879441
3.9042951541850224,0.20169109811613634
3.9376651982378856,0.023609142528367225
3.971035242290749,-0.20797306178573544
4.004405286343612,-0.4179136987067778
4.037775330396476,-0.5360827429016441
4.0711453744493395,-0.526050010606337
4.104515418502203,-0.40001175136698525
4.137885462555066,-0.21357833306994684
4.171255506607929,-0.04270594792464447
4.2046255506607935,0.047283184922452495
4.237995594713657,0.02732726304897877
4.27136563876652,-0.08581820728359567
4.304735682819383,-0.23946437969862158
4.3381057268722465,-0.36890448034055123
4.371475770925111,-0.4239043462822863
4.404845814977974,-0.3859121934285552
4.438215859030837,-0.2694570676477318
4.4715859030837,-0.10937106805204629
4.504955947136564,0.05784763007788471
4.538325991189428,0.20841084528552511
4.571696035242291,0.33492778988759825
4.605066079295154,0.4397481660399074
4.638436123348018,0.52417248590694
4.671806167400881,0.5814461580991724
4.705176211453745,0.5982783012061443
4.738546255506608,0.563719977019477
4.7719162995594715,0.4792978307196299
4.805286343612335,0.36334374375676654
4.838656387665198,0.24598792985833204
4.872026431718062,0.15700197380202494
4.905396475770925,0.11301949874788284
4.938766519823789,0.11105774549960687
4.972136563876652,0.13165908888914496
5.005506607929515,0.14965451912272137
5.038876651982379,0.14660748285317746
5.072246696035243,0.11849795209539213
5.105616740088106,0.075162403841512
5.138986784140969,0.03254223106137769
5.172356828193832,0.0023651632861973744
5.2057268722466965,-0.015233428534344234
5.23909691629956,-0.032513149088630164
5.272466960352423,-0.06804071068896803
5.305837004405286,-0.1365371360888116
5.3392070484581495,-0.2393206665791101
5.372577092511014,-0.36004255739875685
5.405947136563877,-0.46854523239119056
5.43931718061674,-0.5322404435841779
5.4726872246696034,-0.5305588504661235
5.506057268722468,-0.4656734623662914
5.539427312775331,-0.3635699440453272
5.572797356828194,-0.26381627314049133
5.606167400881057,-0.2021523933001808
5.639537444933921,-0.19413211206429873
5.672907488986785,-0.22801241572275754
5.706277533039648,-0.270661599568266
5.739647577092511,-0.28371064172768085
5.7730176211453745,-0.24200755414561959
5.806387665198238,-0.14540903707059336
5.839757709251102,-0.018519762031407944
5.873127753303965,0.1008757327232104
5.9064977973568284,0.17857198091518434
5.939867841409692,0.19786447968963
5.973237885462555,0.1647934668579415
6.006607929515419,0.10357667421640414
6.039977973568282,0.04563997486220175
6.073348017621146,0.017820002498835863
6.106718061674009,0.03447743689865847
6.140088105726872,0.09546860662627106
6.173458149779736,0.18903931846135125
6.2068281938325995,0.29720250624014743
6.240198237885463,0.40130672815027457
6.273568281938326,0.48644753987715783
6.306938325991189,0.5440681051376154
6.3403083700440535,0.5722453757756797
6.373678414096917,0.5733597404476829
6.40704845814978,0.5497694506777724
6.440418502202643,0.49956250571351707
6.4737885462555065,0.4152993645461059
6.507158590308371,0.28773531632092064
6.540528634361234,0.11377955938982444
6.573898678414097,-0.095183551786521
6.60726872246696,-0.30994401596946414
6.640638766519824,-0.48884631449697374
6.674008810572688,-0.5914468079961814
6.707378854625551,-0.5952435960653907
6.740748898678414,-0.5076440397304346
6.774118942731278,-0.3664960847188258
6.807488986784141,-0.22719452134718923
6.840859030837005,-0.1405529485421719
6.874229074889868,-0.13052160421819067
6.9075991189427315,-0.18206771853613576
6.940969162995595,-0.24610028829385674
6.974339207048458,-0.261101201449609
7.007709251101322,-0.1829522303112954
7.041079295154185,-0.009274089031226356
7.074449339207049,0.21432319652741422
7.107819383259912,0.41087329456000254
7.141189427312775,0.5051244497036057
7.174559471365639,0.45770764888708715
7.207929515418503,0.2836356274168337
7.241299559471366,0.04571570710724218
7.274669603524229,-0.17399492927310145
7.308039647577092,-0.3104532506497233
7.3414096916299565,-0.34170999196892676
7.37477973568282,-0.29267607860251543
7.408149779735683,-0.21645457729219875
7.441519823788546,-0.16467148236840626
7.47488986784141,-0.16297420303433416
7.508259911894274,-0.2034643826037986
7.541629955947137,-0.2553521845795834
7.575,-0.2850132592173055
7.608370044052863,-0.2727175244134751
7.641740088105728,-0.21732620595671806
7.675110132158591,-0.12908222214785361
7.708480176211454,-0.018354519250335675
7.741850220264317,0.11010229469764055
7.775220264317181,0.25301645785264587
7.808590308370045,0.39855603774065174
7.841960352422908,0.5197902191437793
7.875330396475771,0.5795921551762138
7.9087004405286345,0.5472253286463648
7.942070484581498,0.41804590945549763
7.975440528634362,0.22388392733156057
8.008810572687224,0.02569496118957815
8.042180616740088,-0.11009928988788577
8.075550660792953,-0.14041390681674348
8.108920704845815,-0.06460869539870792
8.142290748898679,0.07614015023806027
8.175660792951541,0.21870287502241031
8.209030837004406,0.30644958168355446
8.24240088105727,0.3117029315477341
8.275770925110132,0.24183228792098702
8.309140969162996,0.12821343864167506
8.342511013215859,0.006469413787696442
8.375881057268723,-0.09994389722177727
8.409251101321587,-0.18429667615464201
8.44262114537445,-0.24897060896220594
8.475991189427313,-0.29307418363814874
8.509361233480176,-0.30529503117680634
8.54273127753304,-0.26800529607034385
8.576101321585904,-0.17064731993245133
8.609471365638766,-0.023597468400057744
8.64284140969163,0.13745547795901467
8.676211453744493,0.26118432000048225
8.709581497797357,0.3003793636154641
8.742951541850221,0.23162232759126827
8.776321585903084,0.06472676102911513
8.809691629955948,-0.16225542409910543
8.84306167400881,-0.3987535599467445
8.876431718061674,-0.5993999702096142
8.909801762114538,-0.7354968817371774
8.9431718061674,-0.7969024516380931
8.976541850220265,-0.7868127072017187
9.009911894273127,-0.7149474071118727
9.043281938325991,-0.5935294889137305
9.076651982378856,-0.4367247093336525
9.110022026431718,-0.2609933462013049
9.143392070484582,-0.08343620021045582
9.176762114537445,0.08237004580125576
9.210132158590309,0.23058577407908068
9.243502202643173,0.36396100818107563
9.276872246696035,0.48991562995894333
9.3102422907489,0.6139203405808108
9.343612334801762,0.7344779436232729
9.376982378854626,0.8430701645544167
9.41035242290749,0.9288664609280038
9.443722466960352,0.9844515398778724
9.477092511013216,1.0080703574589016
9.510462555066079,1.0005755715478437
9.543832599118943,0.9594359868374567
9.577202643171807,0.8747553068352965
9.61057268722467,0.73134101321322
9.643942731277534,0.5169865515103683
9.677312775330396,0.23280827028694992
9.71068281938326,-0.10048031411553826
9.744052863436124,-0.4447368006752096
9.777422907488987,-0.7548863193913405
9.81079295154185,-0.9930267796443275
9.844162995594713,-1.1394493895877629
9.877533039647577,-1.1956641707921953
9.910903083700441,-1.1788818312060942
9.944273127753304,-1.1116891125587136
9.977643171806168,-1.0124938184731611
10.01101321585903,-0.8910251204512799
10.044383259911895,-0.749898807901142
10.077753303964759,-0.5899910257441566
10.111123348017621,-0.4157434902367462
10.144493392070485,-0.23712376895088325
10.177863436123348,-0.06724619632078176
10.211233480176212,0.08266914103248599
10.244603524229076,0.20771319796903034
10.277973568281938,0.31017125260662093
10.311343612334802,0.3961720081968312
10.344713656387665,0.47017167202069804
10.378083700440529,0.5309282127357338
10.411453744493393,0.5718679149218894
10.444823788546255,0.5859362299853288
10.47819383259912,0.5718757372938972
10.511563876651982,0.5375317645071058
10.544933920704846,0.49736654162986776
10.57830396475771,0.4650464184904393
10.611674008810573,0.4453949255612109
10.645044052863437,0.43082530675939706
10.678414096916299,0.4048881478639626
10.711784140969163,0.35130832790867567
10.745154185022027,0.26355099277082356
10.77852422907489,0.14960574132813803
10.811894273127754,0.029393998238648064
10.845264317180618,-0.07379335403111971
10.87863436123348,-0.14345815166072437
10.912004405286345,-0.1767792592341852
10.945374449339207,-0.18518118518967125
10.978744493392071,-0.18852803622272601
11.012114537444935,-0.20558825600039557
11.045484581497798,-0.24488535901487712
11.078854625550662,-0.2999207819265338
11.112224669603524,-0.35111443297046013
11.145594713656388,-0.37411496594206395
11.178964757709252,-0.3512693552946006
11.212334801762115,-0.28123888995228374
11.245704845814979,-0.18208852044000662
11.279074889867841,-0.0858476801221843
11.312444933920705,-0.02643765207914139
11.34581497797357,-0.026026158589837787
11.379185022026432,-0.08562512104629318
11.412555066079296,-0.1837398068263405
11.445925110132158,-0.2832823600132321
11.479295154185023,-0.3436912419764052
11.512665198237887,-0.3336997433329569
11.546035242290749,-0.24071900941870886
11.579405286343613,-0.07455395005069583
11.612775330396476,0.1349045125543278
11.64614537444934,0.34492527076932494
11.679515418502204,0.5101889112239917
11.712885462555066,0.5937034232683639
11.74625550660793,0.5759386275263354
11.779625550660793,0.4599606389493156
11.812995594713657,0.27102504009017836
11.846365638766521,0.05029739430538289
11.879735682819383,-0.15599911445329165
11.913105726872248,-0.30905980123225385
11.94647577092511,-0.38764502741257045
11.979845814977974,-0.3922658827238795
12.013215859030838,-0.34169183158866345
12.0465859030837,-0.2630534612550361
12.079955947136565,-0.1796433407870347
12.113325991189427,-0.10179601884273361
12.146696035242291,-0.025136363957051
12.180066079295155,0.06275888477580467
12.213436123348018,0.170369257527677
12.246806167400882,0.29109942475439265
12.280176211453744,0.39954742205279126
12.313546255506608,0.45866567412327075
12.346916299559473,0.43593643160233236
12.380286343612335,0.3214909294484496
12.413656387665199,0.13889559042609168
12.447026431718061,-0.05828269084468644
12.480396475770926,-0.2046887589581007
12.51376651982379,-0.2493216376749585
12.547136563876652,-0.1780680673906266
12.580506607929516,-0.021808239794341915
12.613876651982379,0.15456803985930145
12.647246696035243,0.2781391086118022
12.680616740088107,0.29775125961570603
12.71398678414097,0.20457240108253302
12.747356828193833,0.034553195949719694
12.780726872246696,-0.1477524599956161
12.81409691629956,-0.2761731944015109
12.847466960352424,-0.3084356363222514
12.880837004405286,-0.2395142199755551
12.91420704845815,-0.09872050679823208
12.947577092511013,0.06561408843118802
12.980947136563877,0.2050173181386378
13.014317180616741,0.28479996275344194
13.047687224669604,0.2891734884543274
13.081057268722468,0.21923179537643725
13.11442731277533,0.08834170087783513
13.147797356828194,-0.0815061330028209
13.181167400881058,-0.26209277681006987
13.21453744493392,-0.4223532561783234
13.247907488986785,-0.5346715621957842
13.281277533039647,-0.5831040271569234
13.314647577092511,-0.5694336433880883
13.348017621145376,-0.5124181101976331
13.381387665198238,-0.4387012410555885
13.414757709251102,-0.36901669399491754
13.448127753303964,-0.30713898899687714
13.481497797356829,-0.2385776365179746
13.514867841409693,-0.140889195978964
13.548237885462555,-0.00045933772458435593
13.58160792951542,0.1739807440521028
13.614977973568282,0.34984891354230024
13.648348017621146,0.48357379648098053
13.68171806167401,0.5419085090703432
13.715088105726872,0.5203902867356823
13.748458149779736,0.4483382969211857
13.781828193832599,0.3764220799861069
13.815198237885463,0.352010372223624
13.848568281938327,0.3943745827096229
13.88193832599119,0.48262500883426157
13.915308370044054,0.5633594095925979
13.948678414096916,0.5752754604318928
13.98204845814978,0.4793687145943441
14.015418502202644,0.28021176284461824
14.048788546255507,0.027769982406747322
14.08215859030837,-0.20175256982054485
14.115528634361233,-0.3378519644540199
14.148898678414097,-0.34640766768871556
14.182268722466961,-0.24549848483276676
14.215638766519824,-0.09904637554703896
14.249008810572688,0.00957773656369827
14.28237885462555,0.013166271189301271
14.315748898678414,-0.10962378009518946
14.349118942731279,-0.3235499417641711
14.382488986784141,-0.5502837590722961
14.415859030837005,-0.7009482896380583
14.449229074889868,-0.7140037619711758
14.482599118942732,-0.582051993265954
14.515969162995596,-0.3555818528170533
14.549339207048458,-0.12159479672979143
14.582709251101322,0.03380375788617976
14.616079295154185,0.06237759874253486
14.649449339207049,-0.0262465341540081
14.682819383259913,-0.17053861156015657
14.716189427312775,-0.28604822450539424
14.74955947136564,-0.30383184484385006
14.782929515418502,-0.20051095502309385
14.816299559471366,-0.006389686459048849
14.84966960352423,0.21133590955899156
14.883039647577093,0.3814542525512844
14.916409691629957,0.4615186587509937
14.94977973568282,0.4548219976495833
14.983149779735683,0.4038529113537636
15.016519823788547,0.36421764571486276
15.04988986784141,0.37275554196479554
15.083259911894274,0.4264936469333449
15.116629955947138,0.4835558145014759
15.15,0.4858323216598825
15.183370044052865,0.3918739682155653
15.216740088105727,0.20295461242077523
15.250110132158591,-0.031575056473900624
15.283480176211455,-0.23323103499518782
15.316850220264318,-0.329034335398884
15.350220264317182,-0.2853041546896361
15.383590308370044,-0.12435798812032789
15.416960352422908,0.08383415796706725
15.450330396475772,0.25098041986445785
15.483700440528635,0.30704326097325846
15.517070484581499,0.2276040316943073
15.550440528634361,0.04067788504853075
15.583810572687225,-0.18845026229304043
15.61718061674009,-0.3861549458297884
15.650550660792952,-0.49989814801611004
15.683920704845816,-0.5160554893698973
15.717290748898678,-0.4600637145651616
15.750660792951543,-0.3805301182368132
15.784030837004407,-0.32511169859730593
15.817400881057269,-0.31855148509144793
15.850770925110133,-0.35181232864618284
15.884140969162996,-0.3866151544758249
15.91751101321586,-0.37349438450827754
15.950881057268724,-0.2758015642653736
15.984251101321586,-0.08911356226599021
16.01762114537445,0.15313577115746277
16.050991189427315,0.39122571328539646
16.084361233480177,0.5633523023101694
16.11773127753304,0.6314571351549562
16.151101321585905,0.5963353605331744
16.184471365638768,0.49459315520157854
16.21784140969163,0.37897824418146464
16.251211453744492,0.2920152471728307
16.284581497797358,0.246267242179786
16.31795154185022,0.22104353745888755
16.351321585903083,0.1767759324633517
16.38469162995595,0.079110617896364
16.41806167400881,-0.08015574291501941
16.451431718061674,-0.2762537768067617
16.48480176211454,-0.4620066614571236
16.518171806167402,-0.5897491594122132
16.551541850220264,-0.6326622635983489
16.584911894273127,-0.5942708585921748
16.618281938325993,-0.5017032508892725
16.651651982378855,-0.3874696399218622
16.685022026431717,-0.2708070578841758
16.718392070484583,-0.1495164907985635
16.751762114537446,-0.006831832582860412
16.785132158590308,0.17104629294118737
16.818502202643174,0.3774253967031467
16.851872246696036,0.57846574544767
16.8852422907489,0.7223514568178869
16.91861233480176,0.7606363489003933
16.951982378854627,0.6714747835900624
16.98535242290749,0.4731443348165533
17.01872246696035,0.22075677143186215
17.052092511013218,-0.013032522962608878
17.08546255506608,-0.16501022494329837
17.118832599118942,-0.2042242402113076
17.152202643171808,-0.1408220644034196
17.18557268722467,-0.017738643398827136
17.218942731277533,0.1099838364439762
17.2523127753304,0.19815255432470388
17.28568281938326,0.22840035368460201
