Frequency (Hz),Amplitude
0.0,0.7787027519350156
0.04,0.7794871374985247
0.08,0.7818324842378226
0.12,0.7857156071878777
0.16,0.7910986622622607
0.19999999999999998,0.7979302794192129
0.24,0.8061470316339296
0.27999999999999997,0.8156751408288836
0.32,0.8264323160300086
0.36,0.8383296237985457
0.39999999999999997,0.8512733041113523
0.44,0.8651664632224114
0.48,0.8799105954736202
0.52,0.8954069058615901
0.5599999999999999,0.9115574225253116
0.6,0.9282659021571019
0.64,0.9454385413500442
0.6799999999999999,0.9629845133046722
0.72,0.9808163526710901
0.76,0.998850212279347
0.7999999999999999,1.017006014792449
0.84,1.0352075205058482
0.88,1.0533823301018181
0.9199999999999999,1.0714618385108277
0.96,1.0893811533866835
1.0,1.107078989227301
1.04,1.1244975459567637
1.0799999999999998,1.1415823788646067
1.1199999999999999,1.1582822651788311
1.1600000000000001,1.1745490712128794
1.2,1.1903376229452463
1.24,1.205605582030371
1.28,1.2203133285669119
1.3199999999999998,1.2344238514326424
1.3599999999999999,1.2479026466051175
1.4,1.2607176235990922
1.44,1.272839019944245
1.48,1.2842393234825418
1.52,1.294893202169306
1.5599999999999998,1.3047774410041724
1.5999999999999999,1.3138708856884973
1.64,1.322154392597306
1.68,1.329610784660733
1.72,1.3362248127681788
1.76,1.3419831223343928
1.7999999999999998,1.3468742246982928
1.8399999999999999,1.3508884730605464
1.88,1.3540180427035235
1.92,1.356256915276213
1.9599999999999997,1.357600866966525
2.0,1.3580474604235475
2.0399999999999996,1.3575960403326444
2.08,1.3562477325865443
2.12,1.3540054470357703
2.1599999999999997,1.3508738838418126
2.2,1.3468595434964352
2.2399999999999998,1.341970740610163
2.28,1.336217621612559
2.3200000000000003,1.3296121865457866
2.36,1.3221683151711632
2.4,1.3139017976452028
2.44,1.3048303700564035
2.48,1.2949737551455358
2.5199999999999996,1.2843537085590695
2.56,1.2729940710054346
2.6,1.2609208266943952
2.6399999999999997,1.2481621684372677
2.68,1.2347485697653442
2.7199999999999998,1.220712864379577
2.76,1.2060903331686494
2.8,1.190918798915256
2.84,1.1752387286395851
2.88,1.1590933432897992
2.92,1.1425287341635884
2.96,1.1255939850113137
2.9999999999999996,1.1083412982048813
3.04,1.090826122629215
3.08,1.0731072800346597
3.1199999999999997,1.0552470854479157
3.16,1.0373114558479786
3.1999999999999997,1.0193699996507537
3.2399999999999998,1.0014960776057478
3.28,0.9837668235086369
3.32,0.966263110731782
3.36,0.9490694480825888
3.4,0.9322737861028181
3.44,0.9159672128992521
3.4799999999999995,0.9002435173335326
3.52,0.8851985973928587
3.5599999999999996,0.8709296934027784
3.5999999999999996,0.8575344300604119
3.64,0.8451096586430213
3.6799999999999997,0.8337501015762183
3.7199999999999998,0.8235468158525526
3.76,0.8145855090396248
3.7999999999999994,0.8069447605567688
3.84,0.8006942195172616
3.88,0.7958928660819021
3.9199999999999995,0.7925874330207116
3.96,0.7908110853807806
4.0,0.7905824470974946
4.04,0.7919050438793446
4.079999999999999,0.794767203393262
4.12,0.7991424200321485
4.16,0.8049901568274519
4.199999999999999,0.8122570260478859
4.24,0.8208782666033654
4.28,0.8307794229383519
4.319999999999999,0.8418781272015996
4.36,0.854085892973458
4.4,0.8673098423728259
4.4399999999999995,0.8814543060659332
4.4799999999999995,0.89642225474578
4.5200000000000005,0.9121165387481451
4.56,0.928440928055094
4.6,0.9453009571974317
4.640000000000001,0.9626045883207208
4.68,0.9802627111891573
4.72,0.9981895016895593
4.76,1.016302661086698
4.8,1.0345235574840552
4.84,1.0527772891968725
4.88,1.070992687477768
4.92,1.0891022735695868
4.96,1.107042182616943
5.0,1.124752064686484
5.039999999999999,1.1421749711038802
5.08,1.1592572325451984
5.12,1.1759483338247527
5.159999999999999,1.1922007890848039
5.2,1.2079700200890329
5.24,1.2232142395212384
5.279999999999999,1.2378943405629443
5.319999999999999,1.2519737935389437
5.36,1.2654185500528128
5.3999999999999995,1.278196954761772
5.4399999999999995,1.290279664742877
5.48,1.3016395762644242
5.52,1.3122517586841063
5.56,1.3220933951386162
5.6,1.3311437296592636
5.64,1.3393840203382616
5.68,1.3467974981752833
5.72,1.3533693312496544
5.76,1.3590865938871468
5.8,1.3639382405192744
5.84,1.3679150839656848
5.879999999999999,1.3710097779052153
5.92,1.3732168033377756
5.96,1.3745324588765255
5.999999999999999,1.3749548547475186
6.04,1.3744839104118003
6.08,1.3731213557625919
6.119999999999999,1.3708707358874905
6.16,1.3677374194227296
6.2,1.3637286105627218
6.239999999999999,1.3588533648240328
6.279999999999999,1.3531226086974093
6.32,1.3465491633549418
6.359999999999999,1.3391477726107561
6.3999999999999995,1.3309351353622902
6.44,1.3219299427641802
6.4799999999999995,1.3121529204063598
6.52,1.301626875780639
6.56,1.290376751322806
6.6,1.2784296833073823
6.64,1.2658150668450512
6.68,1.2525646271832815
6.72,1.238712497432314
6.76,1.2242953027228771
6.8,1.2093522506390468
6.84,1.1939252275469003
6.88,1.1780589001428532
6.92,1.1618008211574078
6.959999999999999,1.1452015376511764
7.0,1.1283146997089222
7.04,1.1111971665511275
7.08,1.0939091061188326
7.119999999999999,1.0765140830264333
7.16,1.0590791284056342
7.199999999999999,1.0416747835807363
7.239999999999999,1.0243751077395098
7.28,1.007257637842781
7.32,0.9904032870386558
7.359999999999999,0.9738961659573643
7.3999999999999995,0.9578233096707092
7.4399999999999995,0.9422742920938705
7.4799999999999995,0.9273407095534711
7.52,0.9131155165785937
7.5600000000000005,0.899692200158221
7.599999999999999,0.887163784190504
7.64,0.8756216639468857
7.68,0.8651542811682255
7.719999999999999,0.8558456636074835
7.76,0.8477738676506376
7.800000000000001,0.8410093777521607
7.839999999999999,0.8356135299819752
7.88,0.8316370368582239
7.92,0.8291186947273791
7.959999999999999,0.8280843516201276
8.0,0.8285462020505876
8.040000000000001,0.8305024561759853
8.08,0.8339374059449826
8.12,0.8388218832562889
8.159999999999998,0.8451140781901315
8.2,0.8527606624005715
8.24,0.8616981463364103
8.28,0.8718543904673773
8.32,0.8831501901832748
8.36,0.8955008604141511
8.399999999999999,0.9088177574336661
8.44,0.9230096895965951
8.48,0.9379841838750818
8.52,0.9536485893415779
8.56,0.9699110110751626
8.6,0.9866810777517663
8.639999999999999,1.0038705532767842
8.68,1.0213938074129172
8.72,1.0391681628206342
8.76,1.057114136719872
8.8,1.0751555949564653
8.84,1.0932198350245328
8.879999999999999,1.1112376128922727
8.92,1.1291431265610083
8.959999999999999,1.1468739673391717
9.0,1.1643710479558627
9.040000000000001,1.1815785149450655
9.079999999999998,1.1984436512374759
9.12,1.2149167736128832
9.16,1.230951128586349
9.2,1.2465027894102434
9.24,1.2615305561508874
9.280000000000001,1.2759958602205752
9.32,1.289862674291011
9.36,1.3030974281619712
9.399999999999999,1.31566893089098
9.44,1.3275482992899312
9.48,1.338708892749227
9.52,1.349126254247934
9.559999999999999,1.3587780573401667
9.6,1.3676440588659573
9.639999999999999,1.3757060571130433
9.68,1.3829478551495642
9.72,1.3893552290525648
9.76,1.394915900770764
9.8,1.3996195153796518
9.84,1.4034576225110114
9.879999999999999,1.4064236617659969
9.92,1.4085129519498987
9.959999999999999,1.409722683997001
10.0,1.4100519174846047
10.04,1.4095015806662838
10.079999999999998,1.4080744739850493
10.12,1.4057752770569527
10.16,1.4026105591448152
10.2,1.398588793169183
10.24,1.393720373329428
10.280000000000001,1.3880176364312344
10.319999999999999,1.381494887036755
10.36,1.3741684265697898
10.4,1.3660565865188956
10.44,1.3571797658851439
10.48,1.3475604730158963
10.52,1.3372233719495061
10.559999999999999,1.3261953333645693
10.6,1.3145054901779334
10.639999999999999,1.302185297762965
10.68,1.2892685986581713
10.72,1.2757916914991718
10.76,1.261793403726114
10.799999999999999,1.2473151673847123
10.84,1.2324010970411372
10.879999999999999,1.2170980684575432
10.92,1.2014557962129035
10.96,1.1855269078904185
11.0,1.1693670117756914
11.04,1.1530347542090067
11.08,1.1365918618053519
11.12,1.120103162698951
11.16,1.1036365797991288
11.2,1.0872630877916978
11.24,1.0710566243380832
11.28,1.0550939446959906
11.319999999999999,1.0394544079293964
11.36,1.0242196821518104
11.4,1.009473356057711
11.44,0.9953004445834
11.48,0.9817867781651403
11.52,0.9690182679928345
11.559999999999999,0.957080044111892
11.6,0.9460554693274135
11.64,0.9360250395724927
11.68,0.9270651904460615
11.72,0.9192470394554877
11.759999999999998,0.9126351032691338
11.799999999999999,0.9072860378966358
11.84,0.9032474559292959
11.879999999999999,0.9005568775897498
11.92,0.8992408704245712
11.96,0.8993144255851558
11.999999999999998,0.9007806070007736
12.04,0.9036304942882674
12.08,0.9078434225184785
12.12,0.913387503906919
12.16,0.9202204001069241
12.200000000000001,0.9282903007626556
12.239999999999998,0.9375370554746455
12.28,0.9478934027902768
12.32,0.9592862410132532
12.36,0.9716378907338712
12.4,0.9848673068804495
12.44,0.9988912075387469
12.479999999999999,1.0136250966280187
12.52,1.0289841668306097
12.559999999999999,1.0448840773048385
12.6,1.0612416073138313
12.64,1.0779751918674985
12.68,1.095005348876672
12.719999999999999,1.1122550093502028
12.76,1.1296497630787652
12.799999999999999,1.1471180323081949
12.84,1.1645911853578377
12.88,1.1820036011993236
12.92,1.1992926948502853
12.959999999999999,1.2163989121864527
12.999999999999998,1.2332657015275912
13.04,1.2498394681696925
13.08,1.2660695169549714
13.12,1.2819079870114987
13.16,1.2973097819610917
13.2,1.312232498184841
13.239999999999998,1.3266363531413692
13.28,1.3404841152427855
13.32,1.3537410363944145
13.36,1.3663747879841284
13.4,1.3783554008536971
13.44,1.389655209586844
13.479999999999999,1.40024880129708
13.52,1.41011296898442
13.559999999999999,1.4192266694466453
13.6,1.4275709856716832
13.64,1.4351290935981316
13.68,1.441886233106515
13.719999999999999,1.4478296830914117
13.76,1.452948740461249
13.799999999999999,1.4572347029159525
13.84,1.4606808553613302
13.88,1.4632824598310439
13.919999999999998,1.4650367488016471
13.959999999999999,1.4659429218019697
14.0,1.466002145234471
14.04,1.4652175553422921
14.08,1.4635942642707758
14.120000000000001,1.4611393691855696
14.16,1.457861964420325
14.2,1.4537731566345753
14.239999999999998,1.4488860829657013
14.28,1.4432159321570293
14.32,1.4367799686355283
14.36,1.4295975594959764
14.399999999999999,1.4216902043220643
14.44,1.4130815677363688
14.479999999999999,1.4037975145183228
14.52,1.393866147058964
14.56,1.383317844830355
14.6,1.372185305432057
14.64,1.3605035866329296
14.68,1.3483101486488422
14.719999999999999,1.3356448956810278
14.76,1.3225502154803375
14.799999999999999,1.3090710153950076
14.84,1.295254752999101
14.879999999999999,1.2811514589827717
14.919999999999998,1.2668137495125658
14.959999999999999,1.2522968247425768
15.0,1.2376584495818708
15.04,1.2229589122132478
15.079999999999998,1.2082609552342662
15.120000000000001,1.193629673685029
15.159999999999998,1.1791323736825385
15.199999999999998,1.1648383849566732
15.24,1.1508188203514726
15.28,1.1371462754056598
15.319999999999999,1.123894461558391
15.36,1.1111377674467382
15.399999999999999,1.098950744273514
15.439999999999998,1.0874075134141026
15.48,1.0765810973494543
15.52,1.0665426786541095
15.559999999999999,1.0573607960492797
15.600000000000001,1.0491004912718247
15.639999999999999,1.041822425424553
15.679999999999998,1.035581988173583
15.72,1.030428427178653
15.76,1.026404027981121
15.799999999999999,1.0235433757611125
15.84,1.0218727295418177
15.879999999999999,1.0214095363756133
15.919999999999998,1.0221621078370189
15.96,1.0241294740741564
16.0,1.0273014222751125
16.04,1.0316587174102438
16.080000000000002,1.037173494319384
16.12,1.0438098023991058
16.16,1.051524277948345
16.200000000000003,1.0602669150748296
16.24,1.069981904118984
16.279999999999998,1.0806085067364892
16.319999999999997,1.0920819388080087
16.36,1.1043342357879773
16.4,1.1172950794724417
16.439999999999998,1.1308925699724943
16.48,1.145053931498247
16.52,1.1597061450532196
16.56,1.174776505080757
16.6,1.1901931003639818
16.64,1.2058852220170297
16.68,1.221783703242414
16.72,1.2378211967368666
16.759999999999998,1.2539323963007813
16.799999999999997,1.270054209448904
16.84,1.2861258877348205
16.88,1.3020891211823113
16.919999999999998,1.317888102742362
16.96,1.333469568130713
17.0,1.3487828157972066
17.04,1.3637797111723813
17.080000000000002,1.3784146787542182
17.12,1.3926446850558412
17.16,1.4064292149425581
17.2,1.419730243448584
17.24,1.4325122047804282
17.279999999999998,1.4447419598833484
17.32,1.4563887636658428
17.36,1.4674242327403098
17.4,1.4778223143407914
17.44,1.4875592569163454
17.48,1.4966135827659832
17.52,1.5049660629740715
17.56,1.512599694819556
17.6,1.5194996817644846
17.64,1.5256534160741881
17.68,1.5310504640800575
17.72,1.5356825540638337
17.759999999999998,1.5395435667175819
17.799999999999997,1.5426295281139655
17.84,1.544938605105717
17.88,1.5464711030597598
17.919999999999998,1.547229465818615
17.96,1.547218277768912
18.0,1.5464442678822474
18.04,1.5449163155764134
18.080000000000002,1.5426454582241378
18.12,1.5396449001103887
18.159999999999997,1.5359300226072408
18.2,1.5315183952956328
18.24,1.5264297877150095
18.279999999999998,1.5206861813633084
18.32,1.514311781499631
18.36,1.507333028218784
18.4,1.499778606169229
18.44,1.4916794521724945
18.48,1.4830687598716104
18.52,1.473981980387741
18.560000000000002,1.464456817797596
18.6,1.4545332180595056
18.64,1.444253349814765
18.679999999999996,1.4336615752752127
18.72,1.4228044091824763
18.759999999999998,1.4117304635946737
18.799999999999997,1.400490376031903
18.84,1.3891367183035597
18.88,1.3777238831639074
18.919999999999998,1.3663079458155771
18.96,1.3549464972262182
19.0,1.3436984462668127
19.04,1.3326237878496539
19.080000000000002,1.3217833345694163
19.119999999999997,1.3112384098614265
19.159999999999997,1.3010505014133011
19.2,1.2912808745188387
19.24,1.2819901462553216
19.279999999999998,1.273237822789913
19.32,1.265081803751585
19.36,1.2575778593915516
19.4,1.250779088122051
19.44,1.2447353638696015
19.48,1.2394927843816255
19.52,1.2350931330477775
19.560000000000002,1.231573367798434
19.6,1.2289651510926762
19.639999999999997,1.227294434803141
19.68,1.2265811128835018
19.72,1.226838753058597
19.759999999999998,1.2280744164617017
19.8,1.2302885712742442
19.84,1.233475103170144
19.88,1.2376214219388306
19.919999999999998,1.2427086602838906
19.96,1.2487119576885097
20.0,1.2556008195969648
20.04,1.2633395401279155
20.08,1.2718876751977561
20.119999999999997,1.2812005523149947
20.159999999999997,1.291229803375837
20.2,1.30192390746534
20.24,1.3132287318309064
20.279999999999998,1.325088060711691
20.32,1.3374441034400453
20.36,1.3502379750508855
20.4,1.3634101444302817
20.44,1.3769008467185073
20.48,1.390650458192049
20.52,1.4045998331458194
20.560000000000002,1.4186906033637325
20.599999999999998,1.432865441603362
20.639999999999997,1.44706829114142
20.68,1.4612445638536704
20.72,1.4753413095616061
20.759999999999998,1.4893073594980843
20.8,1.503093446752735
20.84,1.5166523064818074
20.88,1.5299387585294821
20.92,1.5429097749281633
20.96,1.5555245345404694
21.0,1.5677444668884526
21.04,1.579533286995955
21.08,1.5908570228553245
21.119999999999997,1.6016840369250045
21.159999999999997,1.6119850428731988
21.2,1.6217331186065522
21.24,1.6309037164624762
21.279999999999998,1.6394746712993242
21.32,1.6474262070892565
21.36,1.6547409425033714
21.4,1.6614038958762332
21.44,1.6674024898455313
21.48,1.6727265558809654
21.52,1.6773683388427716
21.56,1.681322501643064
21.599999999999998,1.6845861300207001
21.639999999999997,1.6871587373814207
21.68,1.6890422695977636
21.72,1.6902411096067336
21.759999999999998,1.6907620815857283
21.8,1.6906144544279107
21.84,1.6898099441756178
21.88,1.6883627150037943
21.92,1.686289378273426
21.96,1.6836089890974657
22.0,1.6803430397774004
22.04,1.6765154493776302
22.08,1.672152548607048
22.119999999999997,1.667283059072668
22.16,1.6619380658602236
22.2,1.6561509822821847
22.24,1.6499575055172553
22.28,1.6433955617497973
22.32,1.6365052393069777
22.36,1.62932870819071
22.4,1.6219101243172058
22.44,1.6142955167166557
22.48,1.6065326559183593
22.519999999999996,1.5986709017625356
22.56,1.5907610289506104
22.599999999999998,1.5828550287824938
22.639999999999997,1.5750058857446678
22.68,1.5672673279178493
22.72,1.5596935505775138
22.759999999999998,1.5523389128716265
22.8,1.5452576080802225
22.84,1.5385033086882955
22.88,1.53212878832705
22.92,1.5261855235407251
22.96,1.520723279290155
23.0,1.5157896830734365
23.04,1.511429793483993
23.08,1.5076856698848713
23.119999999999997,1.5045959505995887
23.16,1.5021954475473769
23.2,1.5005147655321274
23.24,1.499579954385895
23.28,1.4994122018403697
23.32,1.500027574341512
23.36,1.501436812044097
23.400000000000002,1.5036451829557642
23.44,1.5066523996982932
23.479999999999997,1.5104526006883703
23.519999999999996,1.5150343957953125
23.56,1.520380974799214
23.599999999999998,1.5264702753388033
23.639999999999997,1.533275205583758
23.68,1.5407639156576718
23.72,1.5489001109210114
23.759999999999998,1.5576433996237888
23.8,1.5669496671582903
23.84,1.5767714691667682
23.88,1.5870584360545545
23.92,1.5977576819809067
23.96,1.6088142120963478
23.999999999999996,1.6201713226119878
24.04,1.6317709891711247
24.08,1.643554239898786
24.119999999999997,1.6554615103904715
24.16,1.6674329787354143
24.2,1.6794088794288655
24.24,1.6913297956973101
24.28,1.7031369303324804
24.32,1.7147723556032564
24.36,1.7261792431924146
24.400000000000002,1.7373020753944628
24.439999999999998,1.7480868390211155
24.479999999999997,1.7584812036023938
24.52,1.768434685555211
24.56,1.7778988000281304
24.599999999999998,1.7868272021307539
24.64,1.7951758192283622
24.68,1.8029029759344057
24.72,1.8099695133724183
24.759999999999998,1.8163389042101183
24.8,1.8219773648964177
24.84,1.8268539664600254
24.88,1.8309407451586033
24.92,1.8342128142014633
24.959999999999997,1.8366484777071264
24.999999999999996,1.8382293479995915
25.04,1.8389404672928618
25.08,1.8387704347604856
25.119999999999997,1.837711539933106
25.16,1.8357599033090501
25.2,1.8329156249962608
25.24,1.8291829421233436
25.28,1.824570395656209
25.32,1.819091007126682
25.36,1.8127624656107322
25.4,1.8056073250746023
25.439999999999998,1.7976532119232893
25.479999999999997,1.7889330422208682
25.52,1.77948524758734
25.56,1.7693540081903791
25.599999999999998,1.7585894905193216
25.64,1.7472480867277504
25.68,1.7353926512352482
25.72,1.7230927289650395
25.76,1.7104247680444764
25.8,1.6974723080009442
25.84,1.6843261324539807
25.880000000000003,1.6710843730657412
25.919999999999998,1.6578525491295348
25.959999999999997,1.6447435247574873
25.999999999999996,1.6318773633357178
26.04,1.6193810569767522
26.08,1.6073881074139091
26.119999999999997,1.596037934521294
26.16,1.5854750898330028
26.2,1.5758482555290538
26.24,1.5673090147796875
26.28,1.5600103874166065
26.32,1.554105135753032
26.36,1.5497438588218935
26.4,1.5470729087601593
26.439999999999998,1.5462321794967053
26.479999999999997,1.547352833814873
26.52,1.5505550484369635
26.56,1.5559458660733299
26.599999999999998,1.563617246635176
26.64,1.5736444057992403
26.68,1.5860845174438665
26.72,1.6009758377847476
26.76,1.6183372849831574
26.8,1.6381684810472812
26.84,1.6604502358849123
26.88,1.6851454292180128
26.919999999999998,1.712200227043833
26.959999999999997,1.7415455568838099
27.0,1.7730987606767448
27.04,1.8067653453980654
27.08,1.8424407581646487
27.119999999999997,1.8800121231436118
27.16,1.9193598903432088
27.2,1.9603593597818716
27.24,2.002882057366529
27.28,2.0467969501969616
27.32,2.0919714984531432
27.36,2.138272548340096
27.4,2.185567075821856
27.439999999999998,2.233722794291944
27.479999999999997,2.28260864120518
27.52,2.332095159363462
27.56,2.382054788322185
27.599999999999998,2.432362080542881
27.64,2.4828938556919353
27.68,2.5335293050559633
27.72,2.5841500565454525
27.76,2.6346402092837544
27.8,2.684886345390041
27.839999999999996,2.7347775252985342
27.88,2.7842052718298054
27.919999999999998,2.8330635472480767
27.959999999999997,2.881248726696628
28.0,2.928659570692647
28.04,2.975197198770405
28.08,3.0207650658739995
