Frequency (Hz),Amplitude
0.0,0.4828840650966121
0.04,0.509550776140426
0.08,0.5821790370386819
0.12,0.6861015234107964
0.16,0.8090304393619777
0.19999999999999998,0.9431816750567318
0.24,1.0839702703468832
0.27999999999999997,1.2286590745277217
0.32,1.3755382019592355
0.36,1.5234789409312255
0.39999999999999997,1.671693176280273
0.44,1.8196003994927763
0.48,1.9667516162087595
0.52,2.112784226598736
0.5599999999999999,2.2573943529169904
0.6,2.4003193383785053
0.64,2.5413263713782595
0.6799999999999999,2.6802049105629413
0.72,2.8167615335619036
0.76,2.9508163698377277
0.7999999999999999,3.0822005922924154
0.84,3.210754630889609
0.88,3.3363268876646757
0.9199999999999999,3.4587728056323317
0.96,3.577954191156508
1.0,3.693738720217005
1.04,3.805999579627135
1.0799999999999998,3.914615208260063
1.1199999999999999,4.019469112999741
1.1600000000000001,4.1204497408892165
1.2,4.21745039373977
1.24,4.31036917490345
1.28,4.399108960409233
1.3199999999999998,4.483577388497115
1.3599999999999999,4.563686862945141
1.4,4.639354566603844
1.44,4.71050248232353
1.48,4.777057419048327
1.52,4.838951041303597
1.5599999999999998,4.8961199006551555
1.5999999999999999,4.948505467993894
1.64,4.996054165716785
1.68,5.038717399048442
1.72,5.076451585886555
1.76,5.109218184667466
1.7999999999999998,5.136983719840778
1.8399999999999999,5.159719804618848
1.88,5.177403160731638
1.92,5.190015634972693
1.9599999999999997,5.197544212370013
2.0,5.199981025858268
2.0399999999999996,5.1973233623675466
2.08,5.189573665279855
2.12,5.176739533239352
2.1599999999999997,5.158833715336448
2.2,5.135874102720814
2.2399999999999998,5.1078837167349604
2.28,5.0748906936994675
2.3200000000000003,5.036928266524747
2.36,4.994034743373559
2.4,4.9462534836556875
2.44,4.8936328717032085
2.48,4.8362262885546965
2.5199999999999996,4.774092082373216
2.56,4.707293538140827
2.6,4.635898847417671
2.6399999999999997,4.559981079134956
2.68,4.479618152618713
2.7199999999999998,4.394892814329917
2.76,4.305892620175397
2.8,4.212709925719742
2.84,4.115441887246681
2.88,4.014190477429632
2.92,3.90906252044426
2.96,3.8001697527898304
2.9999999999999996,3.687628918020209
3.04,3.5715619062219433
3.08,3.4520959527102635
3.1199999999999997,3.3293639154804318
3.16,3.203504658105064
3.1999999999999997,3.0746635750038753
3.2399999999999998,2.9429933108703086
3.28,2.8086547479438306
3.32,2.671818367651509
3.36,2.5326661432599953
3.4,2.3913941981861395
3.44,2.248216588636992
3.4799999999999995,2.1033707710279606
3.52,1.9571256512178108
3.5599999999999996,1.809793689447128
3.5999999999999996,1.6617495525378758
3.64,1.5134596560504237
3.6799999999999997,1.3655304131005321
3.7199999999999998,1.2187897212464378
3.76,1.0744294875331075
3.7999999999999994,0.9342632260536917
3.84,0.8012014787801262
3.88,0.680114271096519
3.9199999999999995,0.5791958458832016
3.96,0.5110576864336869
4.0,0.48990036617691074
4.04,0.5215706711544298
4.079999999999999,0.597638322951844
4.12,0.7036265218780776
4.16,0.827807187125985
4.199999999999999,0.9627881920582223
4.24,1.1041928893672404
4.28,1.2493877925571863
4.319999999999999,1.3967147064085788
4.36,1.545071229830917
4.4,1.6936828996176703
4.4399999999999995,1.8419763392926647
4.4799999999999995,1.989506215468782
4.5200000000000005,2.1359116846860986
4.56,2.280889553084973
4.6,2.4241772310637457
4.640000000000001,2.565541614027717
4.68,2.7047716553007115
4.72,2.8416733018016527
4.76,2.9760659789150674
4.8,3.107780113676842
4.84,3.236655367808322
4.88,3.362539364794918
4.92,3.4852867663846445
4.96,3.6047585998005465
5.0,3.720821767159509
5.039999999999999,3.833348688805758
5.08,3.942217046024752
5.12,4.047309598109152
5.159999999999999,4.148514055410409
5.2,4.245722994740257
5.24,4.338833806887382
5.279999999999999,4.427748668488009
5.319999999999999,4.512374532307639
5.36,4.592623131341922
5.3999999999999995,4.6684109931579245
5.4399999999999995,4.739659461663931
5.48,4.806294724082118
5.52,4.868247841349626
5.56,4.925454780524627
5.6,4.977856448048922
5.64,5.025398722935798
5.68,5.068032489125408
5.72,5.105713666389196
5.76,5.138403239278334
5.8,5.1660672837042725
5.84,5.18867699081688
5.879999999999999,5.206208687911007
5.92,5.218643856148212
5.96,5.225969144929207
5.999999999999999,5.228176382796168
6.04,5.225262584783653
6.08,5.217229956174337
6.119999999999999,5.204085892651604
6.16,5.185842976876972
6.2,5.1625189715570645
6.239999999999999,5.134136809103684
6.279999999999999,5.100724578032677
6.32,5.062315506294359
6.359999999999999,5.018947941781512
6.3999999999999995,4.970665330323027
6.44,4.91751619154417
6.4799999999999995,4.859554093061731
6.52,4.7968376235878925
6.56,4.729430365645914
6.6,4.657400868760379
6.64,4.580822624184048
6.68,4.4997740424740185
6.72,4.414338435548026
6.76,4.324604005258727
6.8,4.230663841049055
6.84,4.132615929934917
6.88,4.030563182958341
6.92,3.9246134834415836
6.959999999999999,3.8148797639599614
7.0,3.7014801210936428
7.04,3.584537979940604
7.08,3.4641823244023535
7.119999999999999,3.3405480148753717
7.16,3.213776222922396
7.199999999999999,3.0840150238662196
7.239999999999999,2.9514202047593887
7.28,2.816156369533518
7.32,2.6783984596470374
7.359999999999999,2.5383338642980573
7.3999999999999995,2.3961653810491224
7.4399999999999995,2.252115425664806
7.4799999999999995,2.10643211431283
7.52,1.9593982151954912
7.5600000000000005,1.8113446065147047
7.599999999999999,1.662671003619107
7.64,1.5138787579645163
7.68,1.3656243336585216
7.719999999999999,1.2188093402213647
7.76,1.0747371126083325
7.800000000000001,0.9353928077308472
7.839999999999999,0.8039505031524654
7.88,0.6856586726465108
7.92,0.589122331127865
7.959999999999999,0.5269439514590711
8.0,0.5121055363363346
8.040000000000001,0.5485511385210247
8.08,0.6273132944523396
8.12,0.7346856357897026
8.159999999999998,0.8597031314785383
8.2,0.9953640538332311
8.24,1.1374464691329498
8.28,1.2833673843095612
8.32,1.4314784738640018
8.36,1.5806726850186508
8.399999999999999,1.7301665255350829
8.44,1.8793770029378318
8.48,2.0278498847213515
8.52,2.175216489735864
8.56,2.3211668376049497
8.6,2.465432477524207
8.639999999999999,2.6077752203176625
8.68,2.7479795734395394
8.72,2.885847559415204
8.76,3.0211951048780583
8.8,3.1538494868775957
8.84,3.2836475047855154
8.879999999999999,3.410434158943535
8.92,3.534061688820099
8.959999999999999,3.654388869847441
9.0,3.771280498745128
9.040000000000001,3.884607017714309
9.079999999999998,3.99424424193414
9.12,4.100073164524891
9.16,4.201979819980836
9.2,4.299855191943132
9.24,4.3935951546895975
9.280000000000001,4.483100440273341
9.32,4.568276625124243
9.36,4.649034131327389
9.399999999999999,4.725288238844532
9.44,4.796959105741987
9.48,4.863971794098547
9.52,4.926256299737421
9.559999999999999,4.983747584292486
9.6,5.036385608406424
9.639999999999999,5.08411536508564
9.68,5.126886912418353
9.72,5.164655405008594
9.76,5.1973811235977365
9.8,5.225029502443281
9.84,5.247571154106166
9.879999999999999,5.264981891366887
9.92,5.277242746050059
9.959999999999999,5.284339984588957
10.0,5.286265120208167
10.04,5.283014921645177
10.079999999999998,5.274591418372214
10.12,5.261001902318852
10.16,5.24225892613532
10.2,5.2183802980773795
10.24,5.189389073636917
10.280000000000001,5.155313544090024
10.319999999999999,5.116187222187632
10.36,5.072048825274611
10.4,5.02294225619437
10.44,4.968916582420038
10.48,4.910026013954062
10.52,4.84632988066056
10.559999999999999,4.777892609844765
10.6,4.704783705079892
10.639999999999999,4.627077727513879
10.68,4.5448542811811325
10.72,4.4581980042159906
10.76,4.367198568340644
10.799999999999999,4.271950689614685
10.84,4.1725541542335485
10.879999999999999,4.06911386421349
10.92,3.9617399091923953
10.96,3.8505476724362984
11.0,3.7356579816538122
11.04,3.6171973186475874
11.08,3.4952981065581183
11.12,3.3700991000489084
11.16,3.2417459130958406
11.2,3.1103917323746204
11.24,2.976198283593216
11.28,2.8393371466424258
11.319999999999999,2.699991558178147
11.36,2.5583589054238844
11.4,2.414654216270422
11.44,2.269115111407426
11.48,2.1220089446966264
11.52,1.9736432903120367
11.559999999999999,1.8243816706966092
11.6,1.6746677033551713
11.64,1.525063144099826
11.68,1.3763095206359228
11.72,1.229430909508889
11.759999999999998,1.0859100368200576
11.799999999999999,0.9479957972750911
11.84,0.8192376137801466
11.879999999999999,0.7053498859054365
11.92,0.6152587705478145
11.96,0.5610278158777172
11.999999999999998,0.5535834029688421
12.04,0.5947612599255864
12.08,0.6756346833886702
12.12,0.7837921084358931
12.16,0.909240436955432
12.200000000000001,1.0454015082183319
12.239999999999998,1.1881806718783872
12.28,1.3350059166558623
12.32,1.4842027668141347
12.36,1.6346303588424274
12.4,1.7854734604340285
12.44,1.9361219283325877
12.479999999999999,2.0860990341536882
12.52,2.235017605862324
12.559999999999999,2.3825524189372334
12.6,2.5284223499925575
12.64,2.672378559257725
12.68,2.814196494500477
12.719999999999999,2.953670376499136
12.76,3.090609332186058
12.799999999999999,3.2248346442422338
12.84,3.3561777713179417
12.88,3.4844789091888204
12.92,3.6095859374384185
12.959999999999999,3.7313536447007483
12.999999999999998,3.849643157661535
13.04,3.9643215207342837
13.08,4.07526138822025
13.12,4.182340801123282
13.16,4.285443028097641
13.2,4.384456455225545
13.239999999999998,4.479274513092239
13.28,4.569795632382189
13.32,4.655923221254703
13.36,4.737565659274949
13.4,4.814636303818738
13.44,4.887053505737443
13.479999999999999,4.954740631734432
13.52,5.017626091418539
13.559999999999999,5.075643367400669
13.6,5.128731047114417
13.64,5.176832855291178
13.68,5.219897686219679
13.719999999999999,5.257879635080973
13.76,5.2907380277811535
13.799999999999999,5.318437448812446
13.84,5.34094776676374
13.88,5.358244157178384
13.919999999999998,5.370307122523342
13.959999999999999,5.377122509092075
14.0,5.378681520716127
14.04,5.374980729209112
14.08,5.366022081513167
14.120000000000001,5.351812903563477
14.16,5.332365900932939
14.2,5.307699156366974
14.239999999999998,5.277836124370982
14.28,5.242805623069947
14.32,5.202641823624877
14.36,5.157384237565325
14.399999999999999,5.107077702485092
14.44,5.051772366652272
14.479999999999999,4.991523673210511
14.52,4.926392344801096
14.56,4.856444369623605
14.6,4.781750990186016
14.64,4.702388696287058
14.68,4.6184392241418015
14.719999999999999,4.52998956402946
14.76,4.437131979442274
14.799999999999999,4.339964041489082
14.84,4.238588683315963
14.879999999999999,4.1331142806312196
14.919999999999998,4.02365476617667
14.959999999999999,3.9103297883329766
15.0,3.7932649272125545
15.04,3.6725919859094547
15.079999999999998,3.54844938052297
15.120000000000001,3.4209826608604423
15.159999999999998,3.2903452054174256
15.199999999999998,3.1566991509418236
15.24,3.0202166410949105
15.28,2.8810815143108726
15.319999999999999,2.739491604108608
15.36,2.595661905838143
15.399999999999999,2.4498289886740494
15.439999999999998,2.302257228405547
15.48,2.153247752938624
15.52,2.003151511941385
15.559999999999999,1.8523887535976082
15.600000000000001,1.7014786842386416
15.639999999999999,1.5510856908621011
15.679999999999998,1.4020931041012257
15.72,1.25572356989707
15.76,1.1137387795161515
15.799999999999999,0.9787713035797866
15.84,0.8548556386921792
15.879999999999999,0.7481648045611706
15.919999999999998,0.6675860595751493
15.96,0.6237596883597074
16.0,0.6247200507345202
16.04,0.6703353950135232
16.080000000000002,0.7524307819735069
16.12,0.860411050442848
16.16,0.9855009826095571
16.200000000000003,1.1216236402456192
16.24,1.2648082977562545
16.279999999999998,1.4124610617029223
16.319999999999997,1.5628428894596798
16.36,1.7147440500893487
16.4,1.8672882028467586
16.439999999999998,2.019814250266885
16.48,2.1718038775284776
16.52,2.3228361057448
16.56,2.472558105775613
16.6,2.62066601833815
16.64,2.7668920759277302
16.68,2.910995784700891
16.72,3.05275777911041
16.759999999999998,3.1919754719579183
16.799999999999997,3.328459933283032
16.84,3.4620336249075394
16.88,3.592528740256977
16.919999999999998,3.7197859785554592
16.96,3.843653634849482
17.0,3.9639869223958515
17.04,4.080647467822335
17.080000000000002,4.193502935957076
17.12,4.30242675276641
17.16,4.407297903027785
17.2,4.508000785241284
17.24,4.604425110549876
17.279999999999998,4.696465835569585
17.32,4.784023121351459
17.36,4.867002312434487
17.4,4.945313931260377
17.44,5.018873684220912
17.48,5.087602476376884
17.52,5.1514264324828085
17.56,5.2102769224168215
17.6,5.264090589481603
17.64,5.312809380333162
17.68,5.356380575527879
17.72,5.39475681986694
17.759999999999998,5.42789615187182
17.799999999999997,5.455762031852516
17.84,5.478323368137379
17.88,5.495554541125185
17.919999999999998,5.507435424899572
17.96,5.513951406216831
18.0,5.515093400742482
18.04,5.510857866472645
18.080000000000002,5.5012468143346736
18.12,5.486267816019986
18.159999999999997,5.465934009162151
18.2,5.440264100037253
18.24,5.409282364033298
18.279999999999998,5.373018644213402
18.32,5.331508348386667
18.36,5.284792445204235
18.4,5.232917459920473
18.44,5.1759354706054745
18.48,5.113904105772405
18.52,5.046886544599271
18.560000000000002,4.97495152119183
18.6,4.898173334665336
18.64,4.816631867238485
18.679999999999996,4.730412613056522
18.72,4.639606721126857
18.759999999999998,4.54431105660367
18.799999999999997,4.444628285759371
18.84,4.3406669914130225
18.88,4.232541827463917
18.919999999999998,4.120373723661444
18.96,4.004290155053816
19.0,3.8844254950153396
19.04,3.7609214768088988
19.080000000000002,3.633927796955373
19.119999999999997,3.503602905219852
19.159999999999997,3.370115042216987
19.2,3.233643608636095
19.24,3.094380983166494
19.279999999999998,2.952534954423736
19.32,2.808332003459153
19.36,2.6620217803649617
19.4,2.513883281346512
19.44,2.364233484550645
19.48,2.213439598658542
19.52,2.06193670897097
19.560000000000002,1.9102536234900274
19.6,1.75905137648055
19.639999999999997,1.6091815327176602
19.68,1.4617756975974328
19.72,1.318383943961467
19.759999999999998,1.1811873921122964
19.8,1.0533122458322177
19.84,0.939242915750231
19.88,0.8451968900571665
19.919999999999998,0.778971656707751
19.96,0.7483620245472435
20.0,0.7579023199579494
20.04,0.8062119086971052
20.08,0.8868816780423378
20.119999999999997,0.9918402073217413
20.159999999999997,1.113951383277471
20.2,1.2478339366588802
20.24,1.3896856034964482
20.279999999999998,1.5368604830937684
20.32,1.6874978250183035
20.36,1.8402580863472664
20.4,1.9941482987471988
20.44,2.148408959060248
20.48,2.3024407109697167
20.52,2.4557563024574027
20.560000000000002,2.6079486239241807
20.599999999999998,2.758669086412986
20.639999999999997,2.9076127476512843
20.68,3.054507914551379
20.72,3.199108765576776
20.759999999999998,3.3411900440795477
20.8,3.480543194379125
20.84,3.6169735179537588
20.88,3.750298060997303
20.92,3.880344033124688
20.96,4.006947616432979
21.0,4.12995306458859
21.04,4.249212019544273
21.08,4.3645829930253
21.119999999999997,4.475930973756182
21.159999999999997,4.583127131308356
21.2,4.686048594626014
21.24,4.784578288540737
21.279999999999998,4.878604815468635
21.32,4.968022372381772
21.36,5.052730695327734
21.4,5.132635025428628
21.44,5.207646091560236
21.48,5.277680105892155
21.52,5.342658769232669
21.56,5.40250928372064
21.599999999999998,5.457164370880069
21.639999999999997,5.506562293430452
21.68,5.550646879550134
21.72,5.58936754853655
21.759999999999998,5.622679337010382
21.8,5.650542924979328
21.84,5.672924661219949
21.88,5.689796587558544
21.92,5.701136461739633
21.96,5.706927778667286
22.0,5.707159789893945
22.04,5.701827521316509
22.08,5.6909317891231295
22.119999999999997,5.674479214119407
22.16,5.652482234651875
22.2,5.624959118443259
22.24,5.591933973760903
22.28,5.553436760461173
22.32,5.5095033015929715
22.36,5.460175296408386
22.4,5.405500335824919
22.44,5.345531921620383
22.48,5.280329490929585
22.519999999999996,5.2099584479656
22.56,5.134490205326179
22.599999999999998,5.054002237791836
22.639999999999997,4.9685781522080745
22.68,4.878307777912042
22.72,4.783287283269411
22.759999999999998,4.683619325306243
22.8,4.579413241254024
22.84,4.470785293214031
22.88,4.357858980280241
22.92,4.240765436604434
22.96,4.1196439394148285
23.0,3.994642558436797
23.04,3.8659189882615563
23.08,3.7336416190484263
23.119999999999997,3.5979909201038525
23.16,3.4591612376732175
23.2,3.3173631461544844
23.24,3.1728265460680234
23.28,3.025804780337623
23.32,2.8765801547494094
23.36,2.7254714173343824
23.400000000000002,2.572844003428217
23.44,2.4191242323602924
23.479999999999997,2.264819215242327
23.519999999999996,2.1105451001250377
23.56,1.9570675756972231
23.599999999999998,1.8053604258172025
23.639999999999997,1.6566904174795518
23.68,1.5127394401221783
23.72,1.3757753903082743
23.759999999999998,1.2488748152528362
23.8,1.1361650880706946
23.84,1.0429596486274815
23.88,0.9754901533208795
23.92,0.9398293822439235
23.96,0.9399802371738812
23.999999999999996,0.9761535421624352
24.04,1.044701085796123
24.08,1.1397615557983223
24.119999999999997,1.2551895013235697
24.16,1.3856868224463892
24.2,1.5271125847344529
24.24,1.676368864335502
24.28,1.8311665436167794
24.32,1.9898047597016846
24.36,2.151000003900468
24.400000000000002,2.313763404044139
24.439999999999998,2.477315229463818
24.479999999999997,2.6410258449579214
24.52,2.8043748441089704
24.56,2.9669225467993643
24.599999999999998,3.128289912772143
24.64,3.288144222603064
24.68,3.446188750024001
24.72,3.6021552278880553
24.759999999999998,3.7557982928443265
24.8,3.906891348319434
24.84,4.055223456019763
24.88,4.20059698166863
24.92,4.342825799725216
24.959999999999997,4.481733916514366
24.999999999999996,4.617154409453534
25.04,4.748928607122654
25.08,4.876905454267059
25.119999999999997,5.000941019794825
25.16,5.120898116020864
25.2,5.236646004913945
25.24,5.348060172678721
25.28,5.455022158183655
25.32,5.557419423904142
25.36,5.655145260455611
25.4,5.748098717638114
25.439999999999998,5.836184556341423
25.479999999999997,5.919313216771316
25.52,5.997400799329281
25.56,6.070369055165384
25.599999999999998,6.138145383970436
25.64,6.200662837010107
25.68,6.257860123754872
25.72,6.309681620743992
25.76,6.356077381553444
25.8,6.397003146927695
25.84,6.432420354292221
25.880000000000003,6.4622961459943955
25.919999999999998,6.486603375729894
25.959999999999997,6.505320612704787
25.999999999999996,6.518432143162819
26.04,6.525927968976208
26.08,6.527803803058638
26.119999999999997,6.524061061412912
26.16,6.51470685167446
26.2,6.499753958057002
26.24,6.4792208226494195
26.28,6.453131523054125
26.32,6.421515746398398
26.36,6.3844087597919765
26.4,6.341851377348091
26.439999999999998,6.293889923931973
26.479999999999997,6.240576195852506
26.52,6.181967418770116
26.56,6.118126203159784
26.599999999999998,6.049120497743943
26.64,5.975023541399365
26.68,5.895913814148125
26.72,5.8118749879703495
26.76,5.722995878331156
26.8,5.629370397503682
26.84,5.531097511004217
26.88,5.428281198746592
26.919999999999998,5.321030422888266
26.959999999999997,5.209459104801993
27.0,5.093686114194277
27.04,4.973835274145091
27.08,4.850035386816745
27.119999999999997,4.722420285847662
27.16,4.591128923111949
27.2,4.456305499730903
27.24,4.3180996541696235
27.28,4.176666724227438
27.32,4.032168105146739
27.36,3.8847717335212626
27.4,3.734652737064538
27.439999999999998,3.581994304919692
27.479999999999997,3.42698885404464
27.52,3.269839597346639
27.56,3.110762663422483
27.599999999999998,2.9499899835060406
27.64,2.7877732606199723
27.68,2.624389488726791
27.72,2.4601487286985404
27.76,2.295405228596566
27.8,2.1305735929997445
27.839999999999996,1.9661527242098047
27.88,1.8027619619439974
27.919999999999998,1.6411967239746312
27.959999999999997,1.4825157833185783
28.0,1.3281801714914854
28.04,1.1802751255200834
28.08,1.041857442677691
28.12,0.917456828871507
28.16,0.8136336454403809
28.2,0.7390629958588135
28.240000000000002,0.7028942585035507
28.28,0.7106280239194851
28.32,0.7604149116609864
28.359999999999996,0.8442567251527595
28.4,0.9525641541496476
28.439999999999998,1.077317149744055
28.479999999999997,1.2127719637226786
