Frequency (Hz),Amplitude
0.0,2.1464345109374845
0.019867549668874173,2.146015397281773
0.039735099337748346,2.1447592047926194
0.059602649006622516,2.1426693792141904
0.07947019867549669,2.139751664472914
0.09933774834437085,2.136014104155111
0.11920529801324503,2.13146704347119
0.13907284768211922,2.1261231315979603
0.15894039735099338,2.119997324255143
0.17880794701986755,2.113106886331594
0.1986754966887417,2.1054713943325734
0.2185430463576159,2.097112738368577
0.23841059602649006,2.0880551233495113
0.2582781456953642,2.078325068983235
0.27814569536423844,2.067951408105019
0.2980132450331126,2.0569652827822
0.31788079470198677,2.0454001375471527
0.33774834437086093,2.0332917090096507
0.3576158940397351,2.0206780109879783
0.3774834437086093,2.0075993141760042
0.3973509933774834,1.99409811923223
0.4172185430463576,1.9802191220373624
0.4370860927152318,1.9660091697221662
0.45695364238410596,1.9515172059196015
0.4768211920529801,1.93679420354949
0.49668874172185434,1.92189308330579
0.5165562913907285,1.9068686158933659
0.5364238410596026,1.8917773059616456
0.5562913907284769,1.8766772556185758
0.5761589403973509,1.8616280053912309
0.5960264900662252,1.8466903505448284
0.6158940397350993,1.831926130794334
0.6357615894039735,1.817397991659276
0.6556291390728477,1.803169116038128
0.6754966887417219,1.7893029250290209
0.695364238410596,1.7758627476085838
0.7152317880794702,1.7629114595093267
0.7350993377483444,1.7505110925050673
0.7549668874172186,1.7387224163170594
0.7748344370860927,1.7276044964682546
0.7947019867549668,1.717214232608861
0.8145695364238411,1.7076058830663863
0.8344370860927152,1.6988305825809205
0.8543046357615894,1.6909358613016425
0.8741721854304636,1.6839651740694443
0.8940397350993378,1.6779574497133782
0.9139072847682119,1.672946670473861
0.9337748344370861,1.668961491669353
0.9536423841059603,1.6660249113038639
0.9735099337748344,1.6641539984513123
0.9933774834437087,1.6633596879618895
1.0132450331125828,1.6636466473590272
1.033112582781457,1.6650132198076446
1.0529801324503312,1.6674514448355817
1.0728476821192052,1.6709471561983082
1.0927152317880795,1.6754801540192596
1.1125827814569538,1.681024446237098
1.1324503311258278,1.6875485525574172
1.1523178807947019,1.695015862626633
1.1721854304635762,1.7033850390793492
1.1920529801324504,1.7126104554836814
1.2119205298013245,1.7226426590180395
1.2317880794701985,1.7334288479255076
1.2516556291390728,1.7449133543543314
1.271523178807947,1.7570381240358406
1.2913907284768211,1.7697431852981884
1.3112582781456954,1.7829671010875037
1.3311258278145695,1.7966473988958422
1.3509933774834437,1.8107209747135946
1.370860927152318,1.8251244682820005
1.390728476821192,1.8397946079802516
1.410596026490066,1.8546685246159151
1.4304635761589404,1.869684034182484
1.4503311258278146,1.884779890300106
1.4701986754966887,1.8998960075682718
1.4900662251655628,1.9149736574415805
1.5099337748344372,1.929955638506159
1.5298013245033113,1.9447864231983176
1.5496688741721854,1.959412283087076
1.5695364238410596,1.9737813948523097
1.5894039735099337,1.9878439290467758
1.609271523178808,2.0015521236458667
1.6291390728476822,2.014860344275507
1.6490066225165563,2.0277251328766166
1.6688741721854303,2.0401052464212794
1.6887417218543048,2.0519616871481166
1.7086092715231789,2.0632577256380724
1.728476821192053,2.07395891790887
1.7483443708609272,2.0840331175712934
1.7682119205298013,2.093450483963929
1.7880794701986755,2.1021834870657288
1.8079470198675496,2.110206909879584
1.8278145695364238,2.117497848883429
1.847682119205298,2.1240357130588117
1.8675496688741722,2.129802221930033
1.8874172185430464,2.1347814029781484
1.9072847682119205,2.1389595887338966
1.9271523178807946,2.142325413799658
1.9470198675496688,2.144869812003519
1.9668874172185429,2.1465860138457664
1.9867549668874174,2.1474695443606295
2.0066225165562916,2.1475182214811985
2.0264900662251657,2.1467321549637512
2.0463576158940397,2.145113745897104
2.066225165562914,2.1426676867933607
2.086092715231788,2.139400962226864
2.1059602649006623,2.1353228499577863
2.1258278145695364,2.1304449224447906
2.1456953642384105,2.1247810486167484
2.165562913907285,2.118347395735238
2.185430463576159,2.1111624311376107
2.205298013245033,2.1032469236029407
2.2251655629139075,2.09462394402953
2.2450331125827816,2.085318865052753
2.2649006622516556,2.075359359163573
2.2847682119205297,2.064775394811981
2.3046357615894038,2.0535992298937886
2.324503311258278,2.0418654019242237
2.3443708609271523,2.029610714096711
2.364238410596027,2.0168742163107045
2.384105960264901,2.0036971801285506
2.403973509933775,1.9901230664894234
2.423841059602649,1.976197484870414
2.443708609271523,1.9619681424430109
2.463576158940397,1.947484781631999
2.4834437086092715,1.93279910434774
2.5033112582781456,1.917964681038463
2.52317880794702,1.9030368426050932
2.543046357615894,1.888072553146418
2.562913907284768,1.8731302614690757
2.5827814569536423,1.8582697293179342
2.6026490066225163,1.8435518343720796
2.622516556291391,1.8290383462257511
2.642384105960265,1.8147916738468957
2.662251655629139,1.8008745833937385
2.6821192052980134,1.78734988578336
2.7019867549668874,1.7742800940547947
2.7218543046357615,1.7617270513545153
2.741721854304636,1.749751531289454
2.76158940397351,1.7384128134270682
2.781456953642384,1.727768237847252
2.801324503311258,1.7178727438288037
2.821192052980132,1.708778398933653
2.8410596026490067,1.700533925873188
2.8609271523178808,1.6931842355334141
2.8807947019867552,1.6867699753250143
2.9006622516556293,1.6813271025381975
2.9205298013245033,1.6768864925554607
2.9403973509933774,1.6734735915581427
2.9602649006622515,1.6711081227262419
2.9801324503311255,1.669803853873716
3.0,1.6695684330107392
3.0198675496688745,1.670403296538374
3.0397350993377485,1.6723036527445907
3.0596026490066226,1.6752585410888252
3.0794701986754967,1.6792509655540855
3.0993377483443707,1.6842580982310202
3.119205298013245,1.6902515473895725
3.1390728476821192,1.6971976826866642
3.1589403973509933,1.7050580089218785
3.1788079470198674,1.7137895789296165
3.198675496688742,1.7233454357961795
3.218543046357616,1.7336750745961933
3.23841059602649,1.7447249142140782
3.2582781456953644,1.7564387704928413
3.2781456953642385,1.768758322864909
3.2980132450331126,1.7816235676936931
3.3178807947019866,1.79497325271724
3.3377483443708607,1.8087452881721227
3.3576158940397347,1.8228771313300267
3.3774834437086096,1.8373061422585155
3.3973509933774837,1.8519699095892506
3.4172185430463577,1.86680654592213
3.437086092715232,1.881754953203087
3.456953642384106,1.8967550589860305
3.47682119205298,1.911748024931408
3.4966887417218544,1.926676429216261
3.5165562913907285,1.9414844247465635
3.5364238410596025,1.9561178751876864
3.556291390728477,1.9705244708782854
3.576158940397351,1.9846538266816576
3.596026490066225,1.9984575637705548
3.615894039735099,2.011889377248881
3.6357615894039736,2.024905091396721
3.6556291390728477,2.0374627041934104
3.6754966887417218,2.0495224226332844
3.695364238410596,2.0610466902063496
3.7152317880794703,2.072000207775843
3.7350993377483444,2.082349948949393
3.754966887417219,2.092065170912541
3.774834437086093,2.1011174215743607
3.794701986754967,2.1094805437651325
3.814569536423841,2.117130677126434
3.834437086092715,2.124046258243499
3.854304635761589,2.1302080194892925
3.8741721854304636,2.1355989869772474
3.8940397350993377,2.1402044779558738
3.9139072847682117,2.144012097921333
3.9337748344370858,2.147011737673795
3.9536423841059607,2.1491955704983927
3.9735099337748347,2.150558049611278
3.993377483443709,2.151095905974798
4.013245033112583,2.150808146552218
4.033112582781457,2.149696053040861
4.052980132450331,2.1477631810923263
4.072847682119205,2.145015359998521
4.0927152317880795,2.1414606927921196
4.112582781456953,2.1371095566784826
4.132450331125828,2.131974603682753
4.152317880794702,2.1260707613594367
4.172185430463576,2.1194152333718863
4.19205298013245,2.112027499704623
4.211920529801325,2.103929316221713
4.231788079470199,2.095144713228454
4.251655629139073,2.0856999926309894
4.271523178807947,2.0756237232180106
4.291390728476821,2.0649467335102605
4.311258278145695,2.0537021015361674
4.33112582781457,2.041925140796098
4.3509933774834435,2.029653381572331
4.370860927152318,2.016926546628774
4.390728476821192,2.0037865202229486
4.410596026490066,1.9902773092261987
4.43046357615894,1.9764449950167937
4.450331125827815,1.962337674679681
4.470198675496689,1.948005389919018
4.490066225165563,1.933500041971736
4.509933774834438,1.9188752907089472
4.529801324503311,1.904186436035478
4.549668874172186,1.8894902796564828
4.569536423841059,1.8748449652853787
4.589403973509934,1.8603097954321182
4.6092715231788075,1.8459450230487722
4.629139072847682,1.8318116165348375
4.649006622516556,1.817970996930901
4.66887417218543,1.8044847465680214
4.688741721854305,1.79141428900099
4.708609271523179,1.7788205407398403
4.728476821192054,1.7667635361038843
4.748344370860927,1.755302027446281
4.768211920529802,1.744493064013996
4.788079470198675,1.734391553788215
4.80794701986755,1.7250498137519124
4.827814569536423,1.7165171151019112
4.847682119205298,1.7088392309023994
4.867549668874172,1.7020579944984027
4.887417218543046,1.6962108776045455
4.9072847682119205,1.6913305972930466
4.927152317880794,1.6874447610736676
4.947019867549669,1.6845755588509457
4.966887417218543,1.6827395097472755
4.986754966887418,1.6819472706064948
5.006622516556291,1.682203511480167
5.026490066225166,1.6835068616142475
5.04635761589404,1.6858499274833971
5.066225165562914,1.6892193823672093
5.086092715231788,1.6935961249365221
5.105960264900662,1.698955502426023
5.125827814569536,1.7052675923076663
5.14569536423841,1.712497535025637
5.1655629139072845,1.720605909360057
5.185430463576159,1.7295491413802608
5.205298013245033,1.739279937727889
5.225165562913908,1.7497477341103171
5.245033112582782,1.7608991503423628
5.264900662251656,1.7726784439892391
5.28476821192053,1.7850279555718278
5.304635761589404,1.797888539328023
5.324503311258278,1.8111999746179668
5.344370860927152,1.824901354158772
5.364238410596027,1.8389314463290367
5.3841059602649,1.8532290297590908
5.403973509933775,1.8677331992933686
5.4238410596026485,1.8823836431625358
5.443708609271523,1.897120891828203
5.463576158940397,1.9118865394638822
5.483443708609272,1.9266234394187223
5.503311258278146,1.941275875285892
5.52317880794702,1.9557897093788776
5.543046357615895,1.9701125105190838
5.562913907284768,1.984193663072221
5.582781456953643,1.997984459151786
5.602649006622516,2.0114381758476116
5.622516556291391,2.0245101392474885
5.642384105960264,2.037157776908936
5.662251655629139,2.04934066031435
5.682119205298013,2.06102053871248
5.701986754966887,2.0721613656171143
5.7218543046357615,2.082729319104105
5.741721854304636,2.0926928169227628
5.7615894039735105,2.1020225273198303
5.781456953642384,2.110691376364043
5.801324503311259,2.118674552457964
5.821192052980132,2.1259495086314946
5.841059602649007,2.132495963127695
5.860927152317881,2.1382958987164455
5.880794701986755,2.1433335611041757
5.900662251655629,2.147595456747674
5.920529801324503,2.1510703503267026
5.940397350993377,2.1537492620818504
5.960264900662251,2.1556254651814077
5.980132450331126,2.156694483241914
6.0,2.156954088091467
6.0198675496688745,2.1564042978316373
6.039735099337749,2.1550473752223787
6.059602649006623,2.152887826383535
6.079470198675497,2.149932399776206
6.099337748344371,2.146190085395837
6.119205298013245,2.1416721140763553
6.139072847682119,2.136391956769903
6.158940397350993,2.1303653236287587
6.178807947019867,2.1236101626747423
6.198675496688741,2.1161466577952783
6.218543046357616,2.1079972257542
6.23841059602649,2.0991865118483304
6.258278145695365,2.08974138377736
6.2781456953642385,2.0796909232237897
6.298013245033113,2.069066414561742
6.317880794701987,2.0579013300276334
6.337748344370861,2.046231310591992
6.357615894039735,2.0340941416710203
6.377483443708609,2.0215297227089177
6.397350993377484,2.0085800295489595
6.417218543046357,1.995289068395296
6.437086092715232,1.9817028200501976
6.456953642384105,1.9678691729974858
6.47682119205298,1.9538378437964308
6.496688741721854,1.9396602831572902
6.516556291390729,1.925389565997365
6.5364238410596025,1.9110802637331112
6.556291390728477,1.896788297059459
6.5761589403973515,1.8825707675126107
6.596026490066225,1.8684857662196708
6.6158940397351,1.8545921584184457
6.635761589403973,1.8409493425971069
6.655629139072848,1.8276169834654132
6.675496688741721,1.8146547184364654
6.695364238410596,1.8021218378751098
6.715231788079469,1.790076940056254
6.735099337748344,1.7785775625672728
6.754966887417219,1.767679792769536
6.774834437086093,1.7574378608813879
6.794701986754967,1.7479037202271428
6.814569536423841,1.7391266201716653
6.8344370860927155,1.7311526781782467
6.854304635761589,1.724024458233811
6.874172185430464,1.7177805635203118
6.894039735099337,1.7124552516187503
6.913907284768212,1.7080780806616191
6.933774834437086,1.7046735946617242
6.95364238410596,1.7022610557188287
6.973509933774834,1.700854229937565
6.993377483443709,1.7004612327026103
7.013245033112583,1.7010844374937977
7.033112582781457,1.7027204507495843
7.052980132450331,1.7053601534843466
7.072847682119205,1.7089888085250617
7.0927152317880795,1.7135862304514027
7.112582781456954,1.7191270136906034
7.132450331125828,1.7255808128131283
7.152317880794702,1.7329126679574436
7.172185430463576,1.7410833675217485
7.19205298013245,1.750049839812369
7.211920529801324,1.7597655652263784
7.231788079470198,1.7701810007436285
7.251655629139073,1.7812440089684076
7.271523178807947,1.7929002846412831
7.291390728476822,1.8050937723797358
7.311258278145695,1.8177670703434823
7.33112582781457,1.8308618155023364
7.3509933774834435,1.8443190471633524
7.370860927152318,1.8580795463499582
7.390728476821192,1.8720841494887261
7.410596026490066,1.886274035628569
7.430463576158941,1.9005909870804079
7.450331125827814,1.9149776239176803
7.470198675496689,1.9293776132211453
7.490066225165562,1.9437358542912238
7.509933774834438,1.9579986412965344
7.52980132450331,1.9721138049898892
7.549668874172186,1.9860308352144658
7.569536423841059,1.9997009859555515
7.589403973509934,2.0130773646786064
7.6092715231788075,2.0261150076433685
7.629139072847682,2.0387709428051566
7.649006622516557,2.0510042418175907
7.66887417218543,2.0627760625414604
7.6887417218543055,2.074049683348685
7.708609271523178,2.084790530392633
7.728476821192054,2.0949661988994923
7.748344370860927,2.1045464694228695
7.768211920529802,2.1135033198969744
7.788079470198675,2.121810934223518
7.80794701986755,2.1294457080350186
7.827814569536423,2.1363862521920853
7.847682119205298,2.1426133944950685
7.8675496688741715,2.1481101800205997
7.887417218543046,2.1528618704303413
7.907284768211921,2.156855942542841
7.927152317880795,2.160082086408352
7.9470198675496695,2.1625322030804703
7.966887417218543,2.1642004022369448
7.986754966887418,2.165082999763864
8.006622516556291,2.1651785153821166
8.026490066225167,2.1644876703619857
8.046357615894038,2.1630133853398634
8.066225165562914,2.160760778219813
8.086092715231787,2.157737162111728
8.105960264900663,2.153952043225566
8.125827814569536,2.1494171186078552
8.14569536423841,2.144146273570932
8.165562913907285,2.1381555786270363
8.185430463576159,2.131463285697258
8.205298013245034,2.1240898233194043
8.225165562913906,2.116057790527834
8.245033112582782,2.1073919490224178
8.264900662251655,2.0981192131816027
8.28476821192053,2.088268637406785
8.304635761589404,2.077871400210819
8.324503311258278,2.0669607843827182
8.344370860927151,2.0555721524741144
8.364238410596027,2.043742916760692
8.3841059602649,2.0315125027353833
8.403973509933774,2.018922305090567
8.42384105960265,2.006015635046389
8.443708609271523,1.9928376577843916
8.463576158940398,1.979435318653601
8.483443708609272,1.9658572567349426
8.503311258278146,1.9521537042847925
8.52317880794702,1.9383763705367072
8.543046357615895,1.924578308329382
8.562913907284768,1.9108137620577554
8.582781456953642,1.8971379955221426
8.602649006622515,1.8836070983874502
8.62251655629139,1.8702777701709803
8.642384105960264,1.857207080961564
8.66225165562914,1.8444522084437505
8.682119205298013,1.8320701512624513
8.701986754966887,1.8201174193185397
8.721854304635762,1.8086497022307821
8.741721854304636,1.7977215179257993
8.76158940397351,1.7873858441093622
8.781456953642383,1.7776937362065943
8.801324503311259,1.7686939362047778
8.821192052980132,1.7604324776524358
8.841059602649008,1.7529522928190795
8.86092715231788,1.7462928286537531
8.880794701986755,1.7404896786494675
8.90066225165563,1.7355742379795103
8.920529801324504,1.7315733892824554
8.940397350993377,1.7285092262077604
8.960264900662251,1.726398821280976
8.980132450331126,1.72525404381118
9.0,1.7250814324666888
9.019867549668875,1.725882125830037
9.039735099337747,1.7276518527674254
9.059602649006623,1.7303809828811791
9.079470198675496,1.73405463573346
9.099337748344372,1.7386528460138377
9.119205298013245,1.7441507804449476
9.139072847682119,1.7505190010426743
9.158940397350994,1.7577237684170555
9.178807947019868,1.7657273781475318
9.198675496688743,1.7744885229026015
9.218543046357615,1.7839626728918507
9.23841059602649,1.7941024674162762
9.258278145695364,1.8048581106846056
9.27814569536424,1.8161777656468363
9.298013245033111,1.8280079403132277
9.317880794701987,1.8402938618297366
9.33774834437086,1.8529798344243156
9.357615894039736,1.8660095781822683
9.37748344370861,1.8793265464198161
9.397350993377483,1.8928742201778033
9.417218543046358,1.90659637903289
9.437086092715232,1.9204373480116859
9.456953642384107,1.9343422208882814
9.47682119205298,1.948257060548169
9.496688741721854,1.962129077415508
9.516556291390728,1.9759067871735423
9.536423841059603,1.9895401491678841
9.556291390728477,2.0029806869797593
9.57615894039735,2.0161815927007303
9.596026490066224,2.029097816441897
9.6158940397351,2.041686142577866
9.635761589403973,2.053905254167563
9.655629139072847,2.0657157869167473
9.675496688741722,2.0770803739574863
9.695364238410596,2.0879636826228185
9.715231788079471,2.0983324442939617
9.735099337748345,2.108155478296737
9.754966887417218,2.117403710725186
9.774834437086092,2.12605018897534
9.794701986754967,2.1340700926826552
9.814569536423841,2.1414407416726435
9.834437086092716,2.14814160145673
9.854304635761588,2.154154286734011
9.874172185430464,2.1594625632944995
9.894039735099337,2.164052348660402
9.913907284768213,2.1679117117478324
9.933774834437086,2.171030871783013
9.95364238410596,2.1734021966621286
9.973509933774835,2.175020200903658
9.993377483443709,2.1758815433041057
10.013245033112582,2.1759850243734014
10.033112582781456,2.175331583592534
10.052980132450331,2.1739242965044636
10.072847682119205,2.1717683716175116
10.09271523178808,2.168871147069292
10.112582781456952,2.1652420869668085
10.132450331125828,2.1608927772851323
10.152317880794701,2.155836921171641
10.172185430463577,2.1500903334651187
10.192052980132452,2.1436709341982696
10.211920529801324,2.1365987408079725
10.2317880794702,2.1288958587292703
10.251655629139073,2.1205864699967845
10.271523178807948,2.111696819419546
10.29139072847682,2.1022551978336783
10.311258278145695,2.092291921869829
10.331125827814569,2.0818393096010026
10.350993377483444,2.070931651360298
10.370860927152318,2.05960517493868
10.390728476821192,2.047898004291193
10.410596026490065,2.035850110797807
10.43046357615894,2.0235032560436355
10.450331125827816,2.0109009250071983
10.470198675496688,1.9980882484761675
10.490066225165563,1.9851119134533295
10.509933774834437,1.972020060275933
10.529801324503312,1.9588621651548117
10.549668874172186,1.945688906852961
10.56953642384106,1.9325520162729228
10.589403973509933,1.9195041078170243
10.609271523178808,1.906598491531418
10.629139072847682,1.8938889652518245
10.649006622516556,1.8814295862418842
10.66887417218543,1.8692744221604112
10.688741721854305,1.8574772816128853
10.70860927152318,1.8460914250363227
10.728476821192054,1.8351692572297371
10.748344370860927,1.8247620034663399
