Time (s),Filtered Signal
0.0,-0.015051808080298544
0.03337028824833703,0.05529081987801771
0.06674057649667406,0.06383608800960638
0.10011086474501109,-0.032275950125801096
0.13348115299334812,-0.24420529939812732
0.16685144124168516,-0.548938437464169
0.20022172949002218,-0.8968155368687408
0.2335920177383592,-1.225807308163037
0.26696230598669624,-1.4779206986577746
0.3003325942350333,-1.6133836683056466
0.3337028824833703,-1.619363057292213
0.3670731707317073,-1.5113152256141231
0.40044345898004435,-1.3266391170220782
0.4338137472283814,-1.1122353166945183
0.4671840354767184,-0.9095753778541819
0.5005543237250555,-0.742131518349337
0.5339246119733925,-0.6096535862914271
0.5672949002217295,-0.4915401491650149
0.6006651884700666,-0.3580680493639239
0.6340354767184035,-0.18492222246559828
0.6674057649667406,0.035091548734810636
0.7007760532150776,0.28810216878728034
0.7341463414634146,0.5444259555848737
0.7675166297117517,0.7702535767230837
0.8008869179600887,0.9402694992400795
0.8342572062084257,1.0457331353514778
0.8676274944567628,1.0951071089516637
0.9009977827050998,1.107845971880564
0.9343680709534368,1.104637340215311
0.9677383592017739,1.0982018871087516
1.001108647450111,1.0878860469245288
1.0344789356984478,1.0596308335923954
1.067849223946785,0.9912807344231417
1.101219512195122,0.8618228608459103
1.134589800443459,0.6618597319066502
1.167960088691796,0.40153608720800515
1.2013303769401331,0.11200148387657555
1.23470066518847,-0.16179730425531638
1.268070953436807,-0.3755712968487369
1.3014412416851442,-0.5018662515672877
1.3348115299334813,-0.5403432548838855
1.3681818181818182,-0.5164176549977824
1.4015521064301553,-0.46811338221786797
1.4349223946784924,-0.42748438615532686
1.4682926829268292,-0.40638631267291164
1.5016629711751663,-0.3942689722077059
1.5350332594235034,-0.3688928739615003
1.5684035476718403,-0.31340125576741196
1.6017738359201774,-0.22955152576682525
1.6351441241685145,-0.1393289730649799
1.6685144124168514,-0.07409541391009968
1.7018847006651885,-0.05764526089556975
1.7352549889135256,-0.09283341144450839
1.7686252771618625,-0.15911906711475063
1.8019955654101996,-0.22212078945796476
1.8353658536585367,-0.24990293113327017
1.8687361419068735,-0.22770851291952207
1.9021064301552106,-0.16440354694681897
1.9354767184035477,-0.08851167019126602
1.9688470066518848,-0.03653680765377258
2.002217294900222,-0.03895175193546322
2.035587583148559,-0.10909614067284851
2.0689578713968957,-0.23815242353727245
2.102328159645233,-0.39682551840076846
2.13569844789357,-0.5424569859723786
2.1690687361419068,-0.6293993128542829
2.202439024390244,-0.620284276483715
2.235809312638581,-0.4959020419589147
2.269179600886918,-0.26156219570816874
2.302549889135255,0.051828981475744974
2.335920177383592,0.39289841305279
2.369290465631929,0.7006515049549628
2.4026607538802662,0.9188216000256695
2.436031042128603,1.0100732137345656
2.46940133037694,0.9659060589679974
2.5027716186252773,0.8089523723881799
2.536141906873614,0.5864812862324552
2.569512195121951,0.3567159527285208
2.6028824833702884,0.17206706466901348
2.6362527716186253,0.06461081439326297
2.6696230598669626,0.038502306450158674
2.7029933481152995,0.07163245799636686
2.7363636363636363,0.12557274991142203
2.7697339246119737,0.16000152508963175
2.8031042128603105,0.1464925289444118
2.8364745011086474,0.077176489901138
2.8698447893569847,-0.03409797034153218
2.9032150776053216,-0.15785340869208478
2.9365853658536585,-0.2598819421471544
2.969955654101996,-0.31329163691593304
3.0033259423503327,-0.30788775328192525
3.0366962305986696,-0.25386487908886674
3.070066518847007,-0.17836142690202197
3.1034368070953438,-0.11561108700126455
3.1368070953436806,-0.09381257842102926
3.170177383592018,-0.12361386103065633
3.203547671840355,-0.193209301915383
3.2369179600886917,-0.2728223426806352
3.270288248337029,-0.32730146541136695
3.303658536585366,-0.331520919172822
3.337028824833703,-0.2815271457759457
3.37039911308204,-0.1961750755184803
3.403769401330377,-0.10860875945096547
3.437139689578714,-0.05187561064552326
3.470509977827051,-0.04549156830849182
3.503880266075388,-0.08864093715132194
3.537250554323725,-0.16188059437585614
3.5706208425720622,-0.2351767770871254
3.603991130820399,-0.2780421798485613
3.637361419068736,-0.2680513268968408
3.6707317073170733,-0.195990188142281
3.70410199556541,-0.06764122990808256
3.737472283813747,0.09728537262372654
3.7708425720620844,0.26902789606196115
3.8042128603104213,0.4147397472405419
3.8375831485587586,0.5080568966555934
3.8709534368070955,0.5389240883783579
3.9043237250554323,0.5195682506158366
3.9376940133037697,0.4824354684926843
3.9710643015521065,0.4684657013644766
4.004434589800444,0.508641285688364
4.037804878048781,0.6061433845074489
4.071175166297118,0.7280189496438941
4.1045454545454545,0.8123957981673872
4.137915742793791,0.7906259732212968
4.171286031042128,0.6162117092666431
4.204656319290466,0.28788667273311785
4.238026607538803,-0.14439048245977967
4.27139689578714,-0.5945595366548916
4.304767184035477,-0.9709251652598366
4.3381374722838135,-1.208736931593838
4.371507760532151,-1.2905153587723872
4.404878048780488,-1.245650827304884
4.438248337028825,-1.130708883962498
4.471618625277162,-1.0007149125843309
4.504988913525499,-0.8851338152964622
4.538359201773836,-0.77898517668034
4.571729490022173,-0.6516735102350854
4.60509977827051,-0.467814564769699
4.638470066518847,-0.20947087166199604
4.671840354767184,0.11044258170851427
4.705210643015521,0.44904967605295776
4.738580931263858,0.7475677650686954
4.771951219512196,0.9519680736821534
4.8053215077605325,1.031550494454753
4.838691796008869,0.9883742083814013
4.872062084257206,0.854740978163261
4.905432372505543,0.6807428032429659
4.93880266075388,0.5172962669405909
4.972172949002218,0.40102579293187035
5.005543237250555,0.3458786457657465
5.0389135254988915,0.34333936300664686
5.072283813747228,0.3698150072697059
5.105654101995565,0.3973967064812687
5.139024390243902,0.4035680060204097
5.17239467849224,0.3766081593595944
5.205764966740577,0.31572823280949536
5.239135254988914,0.22723822246584363
5.2725055432372505,0.11929817527096558
5.305875831485587,-0.002266913601159908
5.339246119733925,-0.13562216983973716
5.372616407982262,-0.2818122562479483
5.405986696230599,-0.4415517441095927
5.439356984478936,-0.611071090229585
5.472727272727273,-0.7784832181174829
5.5060975609756095,-0.9224082792047258
5.539467849223947,-1.0145574611131714
5.572838137472284,-1.027077271673241
5.606208425720621,-0.9434229179542039
5.639578713968958,-0.7689537645407503
5.672949002217295,-0.5358074131028852
5.706319290465632,-0.2975132377426076
5.7396895787139695,-0.11275673204951246
5.773059866962306,-0.023303971604652866
5.806430155210643,-0.035407557369746066
5.83980044345898,-0.11415080810142617
5.873170731707317,-0.1951924105579337
5.906541019955654,-0.2101945400549371
5.939911308203992,-0.11497885129527012
5.9732815964523285,0.09268723838859567
6.006651884700665,0.3740992758529012
6.040022172949002,0.6684275800325398
6.073392461197339,0.9192210325708107
6.106762749445676,1.0948626450419938
6.140133037694014,1.193224174505264
6.173503325942351,1.230012796228475
6.2068736141906875,1.219397297668543
6.240243902439024,1.1592940104112657
6.273614190687361,1.030280153606891
6.306984478935698,0.8087315473455271
6.340354767184036,0.4863612643716521
6.373725055432373,0.08458025138096009
6.40709534368071,-0.3450645296093059
6.4404656319290465,-0.7355012304181415
6.473835920177383,-1.0268812594295367
6.507206208425721,-1.1864573675869021
6.540576496674058,-1.2164153490910683
6.573946784922395,-1.1469442300601456
6.607317073170732,-1.01927702753846
6.640687361419069,-0.867928812586
6.674057649667406,-0.7107287927470667
6.707427937915743,-0.5501514102188007
6.74079822616408,-0.3829457817317436
6.774168514412417,-0.2108146610913184
6.807538802660754,-0.04510714440264953
6.840909090909091,0.09727254273413397
6.874279379157428,0.20392881146684302
6.9076496674057655,0.27644586116485315
6.941019955654102,0.3328022847549209
6.974390243902439,0.4000436156105702
7.007760532150776,0.49990229487724963
7.041130820399113,0.6342383921195359
7.07450110864745,0.7780690037220848
7.107871396895788,0.8850485767364552
7.1412416851441245,0.9047377019361537
7.174611973392461,0.8051971915150126
7.207982261640798,0.5909980585874888
7.241352549889135,0.3075367345235501
7.274722838137472,0.02778486569156921
7.30809312638581,-0.17463664736550152
7.341463414634147,-0.2553493495062531
7.3748337028824835,-0.21892436811793223
7.40820399113082,-0.11880336143968286
7.441574279379157,-0.03613481121020251
7.474944567627494,-0.04565025209289414
7.508314855875832,-0.1829156932244574
7.541685144124169,-0.4273166336482694
7.575055432372506,-0.7087354827290018
7.6084257206208425,-0.9356922961589312
7.641796008869179,-1.0331497171689465
7.675166297117517,-0.9735468750501006
7.708536585365854,-0.787233322558916
7.741906873614191,-0.5474534560627113
7.775277161862528,-0.33652746662539695
7.808647450110865,-0.20865080052618246
7.842017738359202,-0.16655687026953492
7.875388026607539,-0.1630049050135575
7.908758314855876,-0.12636370054566973
7.942128603104213,0.0020255173840239404
7.97549889135255,0.23674336748565233
8.008869179600888,0.5383095393391168
8.042239467849225,0.8286784108960735
8.075609756097561,1.024212803079021
8.108980044345898,1.0703459446773884
8.142350332594235,0.9625707275746493
8.175720620842572,0.7460139681058185
8.209090909090909,0.4959896369026786
8.242461197339246,0.28934731962048604
8.275831485587583,0.17828371127696951
8.30920177383592,0.17511060398330133
8.342572062084257,0.25108577705150076
8.375942350332595,0.347719314432115
8.409312638580932,0.39630854517628633
8.442682926829269,0.3404308759793678
8.476053215077606,0.15571596992831885
8.509423503325943,-0.1388778352589986
8.54279379157428,-0.483022487043688
8.576164079822616,-0.7917064792229721
8.609534368070953,-0.9827818217924433
8.64290465631929,-1.0060642808543003
8.676274944567627,-0.8623027479522033
8.709645232815964,-0.6032547506555476
8.743015521064303,-0.31180890544058115
8.77638580931264,-0.07012341889783723
8.809756097560976,0.07053015969745871
8.843126385809313,0.10526515337911255
8.87649667405765,0.07044530996130863
8.909866962305987,0.021638117975534638
8.943237250554324,0.005897052521346672
8.97660753880266,0.041369262348148396
9.009977827050998,0.1127463902935148
9.043348115299334,0.18301489333678272
9.076718403547671,0.21444841520485244
9.110088691796008,0.18824003782820778
9.143458980044347,0.11378498551138898
9.176829268292684,0.02411099960604168
9.21019955654102,-0.03953204938493061
9.243569844789358,-0.04633900221526424
9.276940133037694,0.010534853248551138
9.310310421286031,0.11109222625523481
9.343680709534368,0.21669893800229578
9.377050997782705,0.28511516516183266
9.410421286031042,0.28575143640422834
9.443791574279379,0.20934196059862065
9.477161862527716,0.06936386510406013
9.510532150776053,-0.10381194276059423
9.543902439024391,-0.27267612570158195
9.577272727272728,-0.40258080718994943
9.610643015521065,-0.4695656089469037
9.644013303769402,-0.465073432865684
9.677383592017739,-0.3973158883358945
9.710753880266076,-0.2889551140113945
9.744124168514412,-0.17076302836743817
9.77749445676275,-0.07187573113390733
9.810864745011086,-0.009151950794281133
9.844235033259423,0.02015701183261513
9.87760532150776,0.03823824066488863
9.910975609756099,0.07738523688386882
9.944345898004435,0.16412793592871736
9.977716186252772,0.3034044003520036
10.01108647450111,0.4706200517926513
10.044456762749446,0.6168219396402077
10.077827050997783,0.6865265888540966
10.11119733924612,0.6415337773255853
10.144567627494457,0.48037999872835896
10.177937915742794,0.24396690022127365
10.21130820399113,0.0033540043687680207
10.244678492239467,-0.16641430558238454
10.278048780487804,-0.21580416050563475
10.311419068736143,-0.1407107941485392
10.34478935698448,0.01630408254022323
10.378159645232817,0.18415763178897393
10.411529933481154,0.29247420755146886
10.44490022172949,0.2985930066713926
10.478270509977827,0.20066997656236285
10.511640798226164,0.03249623907550089
10.545011086474501,-0.15537904908265732
10.578381374722838,-0.3177982066039614
10.611751662971175,-0.4300444109765253
10.645121951219512,-0.49061074308284536
10.67849223946785,-0.5133578385613148
10.711862527716187,-0.515373107056262
10.745232815964524,-0.5073370759524892
10.778603104212861,-0.49026340231877164
10.811973392461198,-0.4584694536472559
10.845343680709535,-0.40578667621263526
10.878713968957872,-0.33126676472672184
10.912084257206208,-0.24162238022124627
10.945454545454545,-0.1494560105069423
10.978824833702882,-0.06818818696755088
11.012195121951219,-0.005986474131160165
11.045565410199556,0.03844881408121658
11.078935698447895,0.07593873963026318
11.112305986696231,0.12206379129740333
11.145676274944568,0.18916668021236507
11.179046563192905,0.2785813342049803
11.212416851441242,0.3770713097560839
11.245787139689579,0.4600784878477385
11.279157427937916,0.5013937683387266
11.312527716186253,0.4854636369176474
11.34589800443459,0.4164506832928738
11.379268292682926,0.3187930258575726
11.412638580931263,0.22759170662577302
11.4460088691796,0.17230496763182668
11.479379157427939,0.16136995953550837
11.512749445676276,0.17601895779214813
11.546119733924613,0.1777885578141899
11.57949002217295,0.12749032898334048
11.612860310421286,0.007054890991219786
11.646230598669623,-0.16679424319264666
11.67960088691796,-0.3449126733413172
11.712971175166297,-0.46445485900702377
11.746341463414634,-0.47597390049006144
11.77971175166297,-0.3662955645639046
11.813082039911308,-0.16615821972735587
11.846452328159646,0.061203210792590695
11.879822616407983,0.24524231366987834
11.91319290465632,0.3354390443825184
11.946563192904657,0.31873912658471115
11.979933481152994,0.22037364936200776
12.01330376940133,0.08934911951918655
12.046674057649668,-0.023534926381598275
12.080044345898004,-0.08508385043464317
12.113414634146341,-0.08904300562269625
12.146784922394678,-0.053321704264396017
12.180155210643015,-0.008401725190665742
12.213525498891352,0.01685904064481536
12.24689578713969,0.006082689541119905
12.280266075388028,-0.04044747293730801
12.313636363636364,-0.10832082788646692
12.347006651884701,-0.17585140557498755
12.380376940133038,-0.22203818728663932
12.413747228381375,-0.23306862916159657
12.447117516629712,-0.20609724680741037
12.480487804878049,-0.15010365519859267
12.513858093126386,-0.08406234868344395
12.547228381374723,-0.032651168931499226
12.58059866962306,-0.01983954204656755
12.613968957871396,-0.061298598723360354
12.647339246119735,-0.157501800289681
12.680709534368072,-0.29003578780767897
12.714079822616409,-0.42338396195159156
12.747450110864746,-0.5130235112842684
12.780820399113082,-0.5183982596638712
12.81419068736142,-0.4170081828908504
12.847560975609756,-0.21455430981819978
12.880931263858093,0.05332250785166632
12.91430155210643,0.32948620251056177
12.947671840354767,0.5517995694736515
12.981042128603104,0.672096779655337
13.014412416851442,0.6708220419769185
13.04778270509978,0.5621988159105041
13.081152993348116,0.38860064567888025
13.114523281596453,0.20685124417380324
13.14789356984479,0.07161651945968377
13.181263858093127,0.021055566799153273
13.214634146341464,0.0680514302471591
13.2480044345898,0.19804932005383635
13.281374722838137,0.3729921247294833
13.314745011086474,0.540306460927494
13.348115299334811,0.6456808281394798
13.381485587583148,0.6476527107335694
13.414855875831487,0.5306681794288703
13.448226164079824,0.3121986751925003
13.48159645232816,0.04003394071107725
13.514966740576497,-0.2212929760503023
13.548337028824834,-0.411595948730537
13.581707317073171,-0.4963483405390252
13.615077605321508,-0.479654883753526
13.648447893569845,-0.40281941511454133
13.681818181818182,-0.3279840800762998
13.715188470066519,-0.3126128747464098
13.748558758314855,-0.3848750215381066
13.781929046563192,-0.5302457782711489
13.815299334811531,-0.6955293262519655
13.848669623059868,-0.8095042176798637
13.882039911308205,-0.8122812818855667
13.915410199556542,-0.6812732752631573
13.948780487804878,-0.4424428286066953
13.982150776053215,-0.16130087706192262
14.015521064301552,0.08319459897553665
14.048891352549889,0.23088881549276544
14.082261640798226,0.2647101368197405
14.115631929046563,0.2161595030682485
14.1490022172949,0.14964817213672907
14.182372505543238,0.1329289875279006
14.215742793791575,0.20696709674957497
14.249113082039912,0.3683713454639451
14.282483370288249,0.5713516793934627
14.315853658536586,0.7472896988197305
14.349223946784923,0.8326525416351015
14.38259423503326,0.7932920001498609
14.415964523281596,0.6358093365425851
14.449334811529933,0.4027987087188252
14.48270509977827,0.15533724068221794
14.516075388026607,-0.04959093210616243
14.549445676274944,-0.17814230656126914
14.582815964523283,-0.22868640268383505
14.61618625277162,-0.22842706748247982
14.649556541019956,-0.21950059955469783
14.682926829268293,-0.24008977787244715
14.71629711751663,-0.30787755824407126
14.749667405764967,-0.4123880532165051
14.783037694013304,-0.519376153038839
14.81640798226164,-0.5854706695719273
14.849778270509978,-0.57679164472306
14.883148558758315,-0.4834456249534326
14.916518847006651,-0.3237307341920908
14.949889135254988,-0.13668526175488802
14.983259423503327,0.03318004187002626
15.016629711751664,0.1521357128993092
15.05,0.20807842436901663
15.083370288248338,0.21266418891587094
15.116740576496674,0.1951931155524237
15.150110864745011,0.19135054011063463
15.183481152993348,0.2307736396117067
15.216851441241685,0.3269421140924725
15.250221729490022,0.47186866344443856
15.283592017738359,0.6369225410140092
15.316962305986696,0.7798327102596302
15.350332594235034,0.8563813432362682
15.383702882483371,0.8337280998456219
15.417073170731708,0.7012966171879661
15.450443458980045,0.4753754084116974
15.483813747228382,0.19531417672597784
15.517184035476719,-0.08798407961151891
15.550554323725056,-0.3276891683943634
15.583924611973393,-0.49542373152382696
15.61729490022173,-0.5891544376193264
15.650665188470066,-0.6314698509678773
15.684035476718403,-0.6585909396830252
15.71740576496674,-0.7040536687381556
15.750776053215079,-0.783284424092746
15.784146341463416,-0.885209283519346
15.817516629711752,-0.974486597140124
15.85088691796009,-1.0038884158939092
15.884257206208426,-0.9323946833899697
15.917627494456763,-0.7422654237502463
15.9509977827051,-0.4486087132833812
15.984368070953437,-0.09768440700526052
16.017738359201775,0.24563172109416567
16.05110864745011,0.5167560638841951
16.08447893569845,0.6699400292762382
16.117849223946784,0.6901599068106884
16.151219512195123,0.5949675475215935
16.184589800443458,0.4268491540859197
16.217960088691797,0.2397953801301985
16.251330376940132,0.08496854119902639
16.28470066518847,-0.0004690628604218935
16.31807095343681,0.000770782582476959
16.351441241685144,0.08571699142961418
16.384811529933483,0.23510417291942584
16.418181818181818,0.4198848189372059
16.451552106430157,0.6082845073628625
16.48492239467849,0.7715782541029257
16.51829268292683,0.8874214516403935
16.551662971175165,0.9406688385500642
16.585033259423504,0.9227434495927934
16.61840354767184,0.8310936776863346
16.651773835920178,0.6696805673531722
16.685144124168513,0.45009107643220314
16.71851441241685,0.19175720546715597
16.75188470066519,-0.08018435161595475
16.785254988913525,-0.3395157131001256
16.818625277161864,-0.5644346000095011
16.8519955654102,-0.7414663652438618
16.885365853658538,-0.8660502956821489
16.918736141906873,-0.9398936294266278
16.95210643015521,-0.9669191992842484
16.985476718403547,-0.9501869972988066
17.018847006651885,-0.891321841517397
17.05221729490022,-0.792377696612709
17.08558758314856,-0.6587013738807118
17.118957871396898,-0.5009221155116395
17.152328159645233,-0.33475907904243285
17.18569844789357,-0.1784321588690547
17.219068736141907,-0.048460534435066746
17.252439024390245,0.04482242675480926
17.28580931263858,0.10060079415200991
17.31917960088692,0.12847725977902366
