Frequency (Hz),Amplitude
0.0,5.234676841011481
0.020066889632107024,5.234629446696619
0.04013377926421405,5.23448745884494
0.060200668896321065,5.234251461993789
0.0802675585284281,5.233922427902909
0.10033444816053512,5.23350171185875
0.12040133779264213,5.232991047516314
0.14046822742474915,5.232392540294702
0.1605351170568562,5.231708659346652
0.1806020066889632,5.230942228127295
0.20066889632107024,5.230096413591743
0.22073578595317725,5.229174714055695
0.24080267558528426,5.2281809457579005
0.2608695652173913,5.227119228167835
0.2809364548494983,5.225993968086493
0.3010033444816054,5.224809842592698
0.3210702341137124,5.223571780891885
0.34113712374581934,5.222284945128642
0.3612040133779264,5.220954710228753
0.3812709030100334,5.2195866428406585
0.4013377926421405,5.218186479450479
0.42140468227424743,5.21676010374876
0.4414715719063545,5.215313523330963
0.4615384615384615,5.213852845817383
0.4816053511705685,5.212384254481689
0.5016722408026756,5.210913983480501
0.5217391304347826,5.209448292779325
0.5418060200668896,5.207993442872896
0.5618729096989966,5.2065556694001565
0.5819397993311036,5.2051411577561995
0.6020066889632107,5.203756017804862
0.6220735785953176,5.202406258796898
0.6421404682274248,5.2010977645991625
0.6622073578595318,5.1998362693405085
0.6822742474916387,5.198627333579707
0.7023411371237458,5.197476321099649
0.7224080267558528,5.1963883764309315
0.7424749163879598,5.19536840320565
0.7625418060200668,5.194421043439769
0.7826086956521738,5.193550657839358
0.802675585284281,5.192761307221959
0.8227424749163879,5.192056735140574
0.8428093645484949,5.191440351792351
0.862876254180602,5.190915219289085
0.882943143812709,5.190484038360635
0.903010033444816,5.190149136555908
0.923076923076923,5.1899124579994655
0.9431438127090299,5.189775554754467
0.963210702341137,5.189739579835066
0.983277591973244,5.189805281903778
1.0033444816053512,5.189973001680791
1.0234113712374582,5.190242670084445
1.0434782608695652,5.1906138081130475
1.0635451505016722,5.191085528470207
1.0836120401337792,5.191656538927055
1.1036789297658862,5.192325147406252
1.1237458193979932,5.193089268764281
1.1438127090301002,5.193946433240612
1.1638795986622072,5.1948937965337985
1.1839464882943145,5.195928151457383
1.2040133779264215,5.197045941120774
1.2240802675585283,5.198243273573384
1.2441471571906353,5.199515937843804
1.2642140468227423,5.200859421299488
1.2842809364548495,5.202268928246956
1.3043478260869565,5.203739399687296
1.3244147157190636,5.205265534137292
1.3444816053511706,5.206841809422319
1.3645484949832773,5.208462505343845
1.3846153846153846,5.210121727121341
1.4046822742474916,5.2118134295061544
1.4247491638795986,5.213531441463212
1.4448160535117056,5.215269491314874
1.4648829431438126,5.217021232241093
1.4849498327759196,5.218780268029252
1.5050167224080266,5.220540178967934
1.5250836120401337,5.222294547779274
1.5451505016722407,5.224036985485901
1.5652173913043477,5.225761157110222
1.5852842809364547,5.2274608071055555
1.605351170568562,5.229129784421306
1.625418060200669,5.230762067106744
1.6454849498327757,5.232351786361183
1.6655518394648827,5.233893249941435
1.6856187290969897,5.2353809648408545
1.705685618729097,5.236809659158034
1.725752508361204,5.238174303076995
1.745819397993311,5.2394701288847205
1.765886287625418,5.240692649955747
1.7859531772575248,5.241837678638211
1.806020066889632,5.242901342979419
1.826086956521739,5.243880102233947
1.846153846153846,5.244770761101203
1.866220735785953,5.245570482644174
1.8862876254180598,5.246276799845325
1.9063545150501673,5.246887625760335
1.926421404682274,5.247401262234696
1.9464882943143813,5.247816407152884
1.966555183946488,5.248132160194345
1.9866220735785953,5.248348027075077
2.0066889632107023,5.2484639222583
2.026755852842809,5.248480170122187
2.0468227424749164,5.24839750457747
2.0668896321070234,5.2482170671321136
2.0869565217391304,5.247940403405416
2.1070234113712374,5.247569458098034
2.1270903010033444,5.247106568429827
2.1471571906354514,5.246554456061678
2.1672240802675584,5.245916217522753
2.1872909698996654,5.245195313169189
2.2073578595317724,5.244395554705369
2.2274247491638794,5.243521091303782
2.2474916387959865,5.242576394364507
2.267558528428094,5.241566240960311
2.2876254180602005,5.240495696018468
2.3076923076923075,5.239370093295267
2.3277591973244145,5.238195015204375
2.3478260869565215,5.236976271564953
2.367892976588629,5.235719877340534
2.3879598662207355,5.234432029444382
2.408026755852843,5.233119082691774
2.4280936454849495,5.231787524984233
2.4481605351170566,5.230443951815229
2.468227424749164,5.229095040190897
2.4882943143812706,5.227747522063547
2.508361204013378,5.22640815737917
2.5284280936454846,5.225083706843756
2.548494983277592,5.223780904516149
2.568561872909699,5.222506430337887
2.5886287625418056,5.221266882712574
2.608695652173913,5.220068751249326
2.6287625418060196,5.218918389785728
2.648829431438127,5.217821989806853
2.668896321070234,5.216785554376658
2.688963210702341,5.215814872697953
2.709030100334448,5.2149154954157435
2.7290969899665547,5.214092710777393
2.749163879598662,5.213351521760308
2.769230769230769,5.212696624275136
2.789297658862876,5.21213238654857
2.809364548494983,5.211662829785582
2.82943143812709,5.211291610205937
2.849498327759197,5.211022002544098
2.869565217391304,5.210856885095483
2.8896321070234112,5.210798726385213
2.9096989966555182,5.210849573528079
2.9297658862876252,5.2110110423406715
2.9498327759197323,5.211284309258295
2.9698996655518393,5.211670105100652
2.9899665551839463,5.212168710721229
3.0100334448160533,5.212779954566133
3.0301003344481603,5.2135032121586224
3.0501672240802673,5.214337407516005
3.0702341137123748,5.215281016496023
3.0903010033444813,5.216332072060132
3.1103678929765888,5.217488171431688
3.1304347826086953,5.218746485117651
3.1505016722408024,5.220103767753308
3.1705685618729094,5.221556370720708
3.1906354515050164,5.2231002564830895
3.210702341137124,5.224731014569467
3.2307692307692304,5.226443879136035
3.250836120401338,5.228233748023886
3.270903010033445,5.230095203226216
3.2909698996655514,5.232022532671946
3.311036789297659,5.234009753227742
3.3311036789297654,5.236050634815302
3.351170568561873,5.238138725537124
3.3712374581939795,5.240267377700136
3.391304347826087,5.242429774624175
3.411371237458194,5.244618958119873
3.4314381270903005,5.246827856519057
3.451505016722408,5.2490493131399365
3.471571906354515,5.251276115068935
3.491638795986622,5.253501022141204
3.511705685618729,5.25571679600264
3.531772575250836,5.257916229137593
3.551839464882943,5.260092173747756
3.5719063545150496,5.26223757037038
3.591973244147157,5.264345476126036
3.612040133779264,5.266409092489087
3.632107023411371,5.268421792477457
3.652173913043478,5.2703771471613265
3.672240802675585,5.2722689513943894
3.692307692307692,5.2740912486750515
3.712374581939799,5.275838355049063
3.732441471571906,5.27750488196936
3.752508361204013,5.279085758033046
3.7725752508361197,5.280576249520275
3.7926421404682276,5.28197197966389
3.8127090301003346,5.2832689465836555
3.832775919732441,5.284463539823372
3.852842809364548,5.285552555433795
3.872909698996655,5.286533209549387
3.8929765886287626,5.287403150411123
3.9130434782608696,5.28816046879285
3.933110367892976,5.288803706793127
3.953177257525083,5.289331864959625
3.9732441471571907,5.289744407717665
3.9933110367892977,5.290041267079604
4.013377926421405,5.290222844616628
4.033444816053511,5.2902900116793
4.053511705685618,5.290244107858549
4.073578595317726,5.290086937683481
4.093645484949833,5.2898207655578116
4.113712374581939,5.289448308941713
4.133779264214047,5.288972729791357
4.153846153846153,5.288397624273601
4.173913043478261,5.287727010778895
4.193979933110368,5.286965316260937
4.214046822742475,5.286117360937351
4.234113712374581,5.28518834139122
4.254180602006689,5.28418381211942
4.274247491638796,5.2831096655792775
4.294314381270903,5.281972110791238
4.314381270903009,5.280777650561296
4.334448160535117,5.279533057392606
4.354515050167224,5.278245348162337
4.374581939799331,5.276921757645206
4.394648829431437,5.275569710971571
4.414715719063545,5.274196795113613
4.434782608695651,5.27281072949888
4.454849498327759,5.271419335856157
4.474916387959866,5.270030507403835
4.494983277591973,5.268652177496145
4.5150501672240795,5.267292287847339
4.535117056856188,5.265958756458317
4.555183946488294,5.264659445374131
4.575250836120401,5.2634021284043975
4.595317725752508,5.262194458941432
4.615384615384615,5.261043938013528
4.635451505016722,5.259957882712304
4.655518394648829,5.258943395134218
4.6755852842809364,5.258007331976738
4.695652173913043,5.257156274929024
4.71571906354515,5.2563965019959555
4.735785953177258,5.255733959892005
4.7558528428093645,5.255174237638833
4.775919732441471,5.254722541496484
4.795986622073578,5.254383671353503
4.816053511705686,5.25416199869574
4.8361204013377925,5.25406144626744
4.856187290969899,5.254085469530803
4.8762541806020065,5.254237040022538
4.896321070234113,5.25451863069713
4.916387959866221,5.254932203337161
4.936454849498328,5.255479198101208
4.956521739130435,5.256160525269235
4.976588628762541,5.256976559234497
4.996655518394649,5.2579271347794165
5.016722408026756,5.259011545661603
5.036789297658863,5.260228545523964
5.056856187290969,5.261576351131076
5.076923076923077,5.263052647921948
5.096989966555184,5.264654597857471
5.117056856187291,5.266378849529085
5.137123745819398,5.268221550483637
5.157190635451505,5.270178361708606
5.177257525083611,5.272244474210918
5.197324414715719,5.27441462761261
5.217391304347826,5.276683130677065
5.237458193979933,5.279043883670494
5.257525083612039,5.281490402455437
5.277591973244148,5.284015844205216
5.297658862876254,5.286613034622008
5.317725752508361,5.28927449653497
5.337792642140468,5.291992479750067
5.357859531772575,5.294758992018849
5.377926421404682,5.297565830990123
5.397993311036789,5.300404617005695
5.418060200668896,5.303266826599786
5.438127090301003,5.30614382656041
5.458193979933109,5.309026908410859
5.478260869565218,5.311907323169638
5.498327759197324,5.31477631624842
5.518394648829431,5.317625162348994
5.538461538461538,5.320445200222431
5.558528428093646,5.3232278671564535
5.578595317725752,5.325964733059972
5.598662207357859,5.328647534017381
5.618729096989966,5.33126820518916
5.638795986622073,5.333818912939304
5.65886287625418,5.336292086074828
5.678929765886288,5.3386804460871
5.698996655518394,5.340977036289607
5.719063545150501,5.34317524975188
5.739130434782608,5.34526885593417
5.759197324414716,5.3472520259329235
5.7792642140468224,5.349119356252034
5.799331103678929,5.350865891020316
5.8193979933110365,5.352487142580801
5.839464882943144,5.353979110382798
5.8595317725752505,5.3553382981128195
5.879598662207358,5.356561729005802
5.8996655518394645,5.357646959283356
5.919732441471571,5.3585920896708386
5.9397993311036785,5.359395774950419
5.959866220735786,5.360057231512571
5.9799331103678925,5.36057624287351
5.999999999999999,5.360953163131657
6.020066889632107,5.361188918341311
6.040133779264214,5.361285005787321
6.060200668896321,5.361243491149914
6.080267558528428,5.3610670035545045
6.100334448160535,5.360758728507058
6.120401337792642,5.360322398721346
6.1404682274247495,5.359762282850521
6.160535117056856,5.3590831721416015
6.180602006688963,5.358290365037765
6.200668896321069,5.357389649759885
6.2207357859531776,5.35638728490556
6.240802675585284,5.355289978110638
6.260869565217391,5.354104862825485
6.280936454849498,5.3528394732654485
6.301003344481605,5.351501717602408
6.321070234113712,5.350099849471915
6.341137123745819,5.348642437878168
6.361204013377926,5.3471383355867665
6.381270903010033,5.345596646103177
6.40133779264214,5.344026689342594
6.421404682274248,5.34243796610478
6.441471571906354,5.340840121475142
6.461538461538461,5.339242907280965
6.481605351170568,5.33765614373892
6.501672240802676,5.336089680437179
6.521739130434782,5.334553356802078
6.54180602006689,5.333056962205424
6.561872909698996,5.3316101958744255
6.581939799331103,5.330222626771111
6.60200668896321,5.32890365361259
6.622073578595318,5.327662465207151
6.642140468227424,5.3265080012837975
6.662207357859531,5.325448913994784
6.682274247491639,5.324493530271483
6.702341137123746,5.3236498152135585
6.722408026755852,5.322925336690297
6.742474916387959,5.322327231330137
6.762541806020066,5.321862172070994
6.782608695652174,5.321536337438828
6.80267558528428,5.32135538271601
6.822742474916388,5.321324413153432
6.842809364548494,5.321447959372075
6.862876254180601,5.321729955089851
6.882943143812709,5.3221737172989085
6.903010033444816,5.32278192900683
6.9230769230769225,5.3235566246423565
6.94314381270903,5.324499178212796
6.963210702341137,5.325610294285933
6.983277591973244,5.326890001854429
7.0033444816053505,5.328337651125138
7.023411371237458,5.329951913260233
7.0434782608695645,5.331730783080826
7.063545150501672,5.333671584727952
7.083612040133779,5.335770980259508
7.103678929765886,5.338024981146275
7.123745819397993,5.340428962614466
7.143812709030099,5.342977680767343
7.1638795986622075,5.345665292404179
7.183946488294314,5.348485377441028
7.204013377926421,5.3514309638249875
7.224080267558528,5.354494554821792
7.2441471571906355,5.35766815854541
7.264214046822742,5.360943319588632
7.2842809364548495,5.364311152604641
7.304347826086956,5.367762377681973
7.324414715719063,5.371287357348685
7.34448160535117,5.374876135036145
7.364548494983278,5.378518474828665
7.384615384615384,5.382203902321961
7.404682274247491,5.385921746411473
7.424749163879598,5.38966118183059
7.444816053511706,5.393411272258617
7.464882943143812,5.397161013819593
7.48494983277592,5.400899378794415
7.505016722408026,5.404615359371747
7.525083612040134,5.408298011266004
7.545150501672239,5.411936497035076
7.565217391304348,5.415520128934586
7.585284280936455,5.419038411150651
7.605351170568561,5.422481081258354
7.625418060200669,5.425838150758906
7.645484949832775,5.429099944554443
7.665551839464882,5.432257139225579
7.685618729096991,5.435300799982975
7.705685618729096,5.438222416170972
7.725752508361204,5.441013935207274
7.74581939799331,5.443667794849517
7.765886287625418,5.446176953685788
7.785953177257525,5.448534919752477
7.806020066889631,5.450735777189206
7.826086956521739,5.452774210846709
7.846153846153847,5.454645528769614
7.866220735785952,5.456345682482005
7.88628762541806,5.45787128500968
7.906354515050166,5.459219626578476
7.926421404682274,5.4603886879341985
7.946488294314381,5.461377151234934
7.966555183946488,5.462184408472376
7.986622073578595,5.462810567384435
8.006688963210701,5.463256454826895
8.02675585284281,5.463523617577813
8.046822742474916,5.463614320553937
8.066889632107022,5.463531542424558
8.08695652173913,5.463278968614141
8.107023411371236,5.462860981691539
8.127090301003344,5.462282649149923
8.147157190635452,5.4615497085885645
8.167224080267557,5.46066855031451
8.187290969899665,5.459646197389698
8.207357859531772,5.458490283156738
8.227424749163879,5.457209026284744
8.247491638795987,5.45581120338495
8.267558528428093,5.454306119254794
8.2876254180602,5.452703574818249
8.307692307692307,5.4510138328397995
8.327759197324415,5.449247581499245
8.347826086956522,5.4474158959248635
8.367892976588628,5.44553019779266
8.387959866220736,5.443602213110355
8.408026755852843,5.44164392831539
8.42809364548495,5.439667544827178
8.448160535117056,5.437685432204751
8.468227424749163,5.435710080071686
8.488294314381271,5.433754048980889
8.508361204013378,5.43182992040202
8.528428093645484,5.429950246024319
8.548494983277592,5.428127496576836
8.568561872909697,5.426374010376847
8.588628762541806,5.424701941824945
8.608695652173914,5.4231232100724025
8.628762541806019,5.4216494480920465
8.648829431438127,5.420291952388647
8.668896321070234,5.41906163358817
8.68896321070234,5.417968968147
8.709030100334449,5.4170239514226415
8.729096989966555,5.4162360523461635
8.749163879598662,5.415614169933553
8.769230769230768,5.415166591868412
8.789297658862875,5.414900955381891
8.809364548494983,5.414824210647353
8.82943143812709,5.414942586897131
8.849498327759196,5.415261561456721
8.869565217391303,5.415785831878262
8.889632107023411,5.416519291339722
8.909698996655518,5.417465007459676
8.929765886287624,5.418625204659175
8.949832775919733,5.420001250183074
8.96989966555184,5.421593643872693
8.989966555183946,5.42340201176038
9.010033444816054,5.425425103534802
9.030100334448159,5.427660793903277
9.050167224080267,5.4301060878550205
9.070234113712376,5.4327571298065545
9.09030100334448,5.435609216588313
9.110367892976589,5.438656814209467
9.130434782608695,5.441893578316878
9.150501672240802,5.445312378243769
9.17056856187291,5.448905324524185
9.190635451505017,5.452663799731488
9.210702341137123,5.456578492482056
9.23076923076923,5.46063943443028
9.250836120401337,5.464836040067102
9.270903010033445,5.469157149122186
9.290969899665551,5.473591071359566
9.311036789297658,5.4781256335476884
9.331103678929765,5.482748228377999
9.351170568561873,5.487445865100732
9.37123745819398,5.492205221643056
9.391304347826086,5.49701269797261
9.411371237458194,5.501854470468973
9.4314381270903,5.506716547066352
9.451505016722408,5.51158482293319
9.471571906354516,5.5164451364576435
9.49163879598662,5.5212833253123375
9.511705685618729,5.526085282377377
9.531772575250837,5.530837011306781
9.551839464882942,5.535524681530409
9.57190635451505,5.540134682491235
9.591973244147155,5.544653676925504
9.612040133779264,5.549068653002004
9.632107023411372,5.553366975144994
9.652173913043477,5.557536433374262
9.672240802675585,5.561565291004416
9.692307692307692,5.5654423305543785
9.712374581939798,5.569156897726606
9.732441471571907,5.572698943324045
9.752508361204013,5.5760590629812095
9.77257525083612,5.579228534593612
9.792642140468226,5.582199353337709
9.812709030100335,5.584964264180892
9.832775919732441,5.587516791788241
9.852842809364548,5.589851267739626
9.872909698996656,5.591962854977436
9.89297658862876,5.593847569411401
9.91304347826087,5.5955022986132645
9.933110367892976,5.596924817539825
9.953177257525082,5.5981138012288065
9.97324414715719,5.599068834417525
9.993311036789297,5.5997904180400475
10.013377926421404,5.6002799725641355
10.033444816053512,5.600539838134993
10.053511705685617,5.600573271498459
10.073578595317725,5.600384439682694
10.093645484949834,5.599978410423189
10.113712374581938,5.599361139322901
10.133779264214047,5.598539453746047
10.153846153846153,5.597521033451568
10.17391304347826,5.596314387980218
10.193979933110368,5.5949288308175635
10.214046822742475,5.593374450364327
10.234113712374581,5.591662077755109
10.254180602006688,5.589803251576858
10.274247491638796,5.587810179549626
10.294314381270903,5.585695697243472
10.31438127090301,5.583473223918241
10.334448160535118,5.581156715585664
10.354515050167223,5.578760615407026
10.37458193979933,5.576299801553918
10.394648829431437,5.573789532674432
10.414715719063544,5.571245391122316
10.434782608695652,5.5686832241222195
10.454849498327757,5.566119083059974
10.474916387959865,5.5635691611026505
10.494983277591974,5.561049729369048
10.515050167224079,5.558577071886562
10.535117056856187,5.556167419585889
10.555183946488295,5.553836883599126
10.5752508361204,5.551601388140602
10.595317725752508,5.549476603262403
10.615384615384615,5.547477877787789
10.635451505016722,5.54562017273544
10.65551839464883,5.543917995555523
10.675585284280936,5.542385335504914
10.695652173913043,5.5410356004924655
10.71571906354515,5.53988155572721
10.735785953177256,5.538935264501625
10.755852842809364,5.538208031438249
10.775919732441471,5.537710348522334
10.795986622073578,5.537451844233923
10.816053511705684,5.537441236081245
10.836120401337793,5.537686286822741
10.856187290969899,5.538193764647824
10.876254180602006,5.5389694075666025
10.896321070234114,5.540017892236463
10.916387959866219,5.541342807428698
10.936454849498327,5.5429466323116285
10.956521739130435,5.544830719698082
10.97658862876254,5.546995284375014
10.996655518394649,5.549439396601676
11.016722408026755,5.55216098083057
