Time (s),Filtered Signal
0.0,0.01218719687788221
0.0334075723830735,0.01622831608015003
0.066815144766147,0.020630345517602358
0.1002227171492205,0.025530693992194695
0.133630289532294,0.030719132171176597
0.1670378619153675,0.03563306577770093
0.200445434298441,0.03953173057831751
0.23385300668151449,0.041810392546528775
0.267260579064588,0.04231057210782553
0.3006681514476615,0.04143988317190202
0.334075723830735,0.03999259137112691
0.3674832962138085,0.03873214262731543
0.400890868596882,0.0379554700386232
0.4342984409799555,0.037295482238199014
0.46770601336302897,0.035897389049788515
0.5011135857461025,0.03289507221432965
0.534521158129176,0.02794202545870674
0.5679287305122495,0.021516690432146424
0.601336302895323,0.014836606021724331
0.6347438752783965,0.009408394038346798
0.66815144766147,0.006409091959282803
0.7015590200445435,0.006164237221518957
0.734966592427617,0.00794133456277618
0.7683741648106905,0.010145230375988627
0.801781737193764,0.01084089430522205
0.8351893095768375,0.00839943303585096
0.868596881959911,0.0020147782496931
0.9020044543429845,-0.008104410744851192
0.9354120267260579,-0.02091918507495713
0.9688195991091315,-0.035006292782738764
1.002227171492205,-0.049045585602567145
1.0356347438752784,-0.06213920294314351
1.069042316258352,-0.07386810165610158
1.1024498886414256,-0.0841381401656789
1.135857461024499,-0.09295761156224437
1.1692650334075725,-0.10027640261459071
1.202672605790646,-0.1059308769145668
1.2360801781737194,-0.10965216021554737
1.269487750556793,-0.11107263312061029
1.3028953229398665,-0.10971371873854882
1.33630289532294,-0.10500658056918821
1.3697104677060135,-0.09641761474752587
1.403118040089087,-0.08369030474955635
1.4365256124721606,-0.06710710104473085
1.469933184855234,-0.047600700589864056
1.5033407572383075,-0.026577086848747804
1.536748329621381,-0.005460106330408045
1.5701559020044544,0.014848759908964377
1.603563474387528,0.034302256505417336
1.6369710467706016,0.053605676001885115
1.670378619153675,0.0736738454475507
1.7037861915367485,0.09488861961206384
1.737193763919822,0.1165354341535225
1.7706013363028954,0.13673785211347744
1.804008908685969,0.15297867444966107
1.8374164810690425,0.16300968364238846
1.8708240534521159,0.16574969985867646
1.9042316258351895,0.16175224948835099
1.937639198218263,0.1530067952475981
1.9710467706013366,0.14214514979305784
2.00445434298441,0.13141411437026596
2.0378619153674835,0.12189658407320524
2.071269487750557,0.11333832786331274
2.1046770601336307,0.10461822751076227
2.138084632516704,0.09455842039403736
2.1714922048997773,0.08260795854155788
2.204899777282851,0.06904796702629865
2.2383073496659245,0.05468012849867169
2.271714922048998,0.04026570399662535
2.3051224944320716,0.026084317970884438
2.338530066815145,0.011834943184718241
2.3719376391982183,-0.003163429613572465
2.405345211581292,-0.01969337366643194
2.4387527839643655,-0.03847598939777256
2.472160356347439,-0.060126866592800726
2.5055679287305126,-0.08506130828039546
2.538975501113586,-0.11318859569009264
2.5723830734966593,-0.14344932969292593
2.605790645879733,-0.17351623857916076
2.6391982182628064,-0.20007053931140056
2.67260579064588,-0.21984479344024568
2.7060133630289536,-0.2311541032749521
2.739420935412027,-0.23517805868181954
2.7728285077951007,-0.23612231894249355
2.806236080178174,-0.23976786979896594
2.8396436525612474,-0.2507216945827561
2.873051224944321,-0.26954263566957265
2.9064587973273945,-0.29132400097982575
2.939866369710468,-0.30689910576168306
2.9732739420935417,-0.3066225218984101
3.006681514476615,-0.2851799068917871
3.0400890868596884,-0.24491075941414592
3.073496659242762,-0.19540279542014408
3.1069042316258355,-0.14878410906501705
3.140311804008909,-0.11255576255190015
3.1737193763919826,-0.08371924945793767
3.207126948775056,-0.04809264468070989
3.2405345211581293,0.013454854106133611
3.273942093541203,0.11388376730954995
3.3073496659242765,0.24954351124265417
3.34075723830735,0.3970959453741869
3.3741648106904236,0.5218843395850363
3.407572383073497,0.5960255107443141
3.4409799554565703,0.6180706214179206
3.474387527839644,0.6226684527949026
3.5077951002227175,0.6711387055724001
3.541202672605791,0.822386548953111
3.5746102449888646,1.094800991917525
3.608017817371938,1.4378594999103034
3.6414253897550113,1.7316669553001722
3.674832962138085,1.8218560886792214
3.7082405345211584,1.5800584073111916
3.7416481069042318,0.9649683244249649
3.7750556792873056,0.05475599082840908
3.808463251670379,-0.9677358665828476
3.8418708240534527,-1.8740631374533308
3.875278396436526,-2.469101363542307
3.9086859688195994,-2.655637119307434
3.942093541202673,-2.457794027636669
3.9755011135857465,-1.9966795358870342
4.00890868596882,-1.4336139072023604
4.042316258351893,-0.9088027799471684
4.075723830734967,-0.5012275519710667
4.109131403118041,-0.2218473228265896
4.142538975501114,-0.035300504706992135
4.1759465478841875,0.10623790934779805
4.209354120267261,0.23509226458776353
4.242761692650334,0.35708390928241734
4.276169265033408,0.457979159586485
4.309576837416482,0.5194515273879722
4.342984409799555,0.5338719089622863
4.3763919821826285,0.5102482574153875
4.409799554565702,0.46974502072364394
4.443207126948775,0.4348544169210007
4.476614699331849,0.4188462219343903
4.510022271714923,0.42094180793244473
4.543429844097996,0.4289737707391401
4.5768374164810695,0.4272949351752036
4.610244988864143,0.4053661458452621
4.643652561247216,0.3626747989014645
4.67706013363029,0.3079752430493849
4.710467706013364,0.2539016158548595
4.743875278396437,0.2101993144583359
4.77728285077951,0.17916089086033338
4.810690423162584,0.15536168457358543
4.844097995545657,0.12940367776414577
4.877505567928731,0.09337999216414149
4.910913140311805,0.04512711935188778
4.944320712694878,-0.010776969676515043
4.977728285077951,-0.06548279756656007
5.011135857461025,-0.11026088626100848
5.044543429844098,-0.14044772549616863
5.077951002227172,-0.15702455603869134
5.111358574610246,-0.16528530480204487
5.144766146993319,-0.17158270744710835
5.178173719376392,-0.1800281930831066
5.211581291759466,-0.1908522694260504
5.244988864142539,-0.20108392902837724
5.278396436525613,-0.2069106243504322
5.311804008908687,-0.20624529385809268
5.34521158129176,-0.20005172445769784
5.378619153674833,-0.19176651568018194
5.412026726057907,-0.18522009152232694
5.445434298440981,-0.18222804932983627
5.478841870824054,-0.1811394307157345
5.512249443207128,-0.17709668424181876
5.545657015590201,-0.1639035077728284
5.579064587973274,-0.13664959617941724
5.612472160356348,-0.0939380565729945
5.645879732739422,-0.038790782144760345
5.679287305122495,0.02208756494929054
5.712694877505569,0.08032144595255879
5.746102449888642,0.1283131348804753
5.779510022271715,0.1611967549950684
5.812917594654789,0.1776549135136472
5.846325167037863,0.1794742053819589
5.879732739420936,0.17023271845052024
5.91314031180401,0.1538071503328189
5.946547884187083,0.13334335704511324
5.979955456570156,0.11099630398881725
6.01336302895323,0.08830216409618241
6.046770601336304,0.0667345043715918
6.080178173719377,0.04797341378142854
6.1135857461024505,0.03366695729099463
6.146993318485524,0.024822023996855718
6.180400890868597,0.021214501566561836
6.213808463251671,0.021221917101331755
6.247216035634745,0.022262700634639455
6.280623608017818,0.021705244902491847
6.3140311804008915,0.017858296337512965
6.347438752783965,0.01059359181195426
6.380846325167038,0.0013040095780753169
6.414253897550112,-0.007806535912173853
6.447661469933186,-0.014799433282742672
6.481069042316259,-0.018958934185766087
6.5144766146993325,-0.021178887329864532
6.547884187082406,-0.023578329485143035
6.581291759465479,-0.02850899344827192
6.614699331848553,-0.03741378166734214
6.648106904231627,-0.050064775645212015
6.6815144766147,-0.06451075592709551
6.7149220489977735,-0.07770914765069907
6.748329621380847,-0.08650780949013427
6.78173719376392,-0.08854238345988347
6.815144766146994,-0.08274927184623561
6.848552338530068,-0.06944560112427438
6.881959910913141,-0.05012942743720838
6.915367483296214,-0.027199615964726555
6.948775055679288,-0.0036920682891614155
6.982182628062361,0.017024336990015078
7.015590200445435,0.03172943076339598
7.048997772828509,0.03808077710562028
7.082405345211582,0.03546291210482889
7.115812917594655,0.02561817698332176
7.149220489977729,0.01264732180968309
7.182628062360802,0.002130498019734832
7.216035634743876,-0.0005163171448628901
7.24944320712695,0.008066194940263845
7.282850779510023,0.027776343691767187
7.316258351893096,0.05476904310655421
7.34966592427617,0.0825135754716515
7.383073496659243,0.1038567011720334
7.416481069042317,0.1133225001280482
7.449888641425391,0.1087756763180444
7.4832962138084635,0.09185324857481357
7.516703786191537,0.06709542895463502
7.550111358574611,0.04022450559250284
7.583518930957685,0.0162925874354108
7.616926503340758,-0.0016480369199721638
7.650334075723832,-0.013015431941771084
7.683741648106905,-0.019343200151638443
7.717149220489978,-0.023381690375435908
7.750556792873052,-0.028003140422190927
7.783964365256126,-0.035206060988606326
7.817371937639199,-0.04544504791856896
7.850779510022273,-0.05747356022081904
7.884187082405346,-0.06883202981772192
7.917594654788419,-0.07695301282528409
7.951002227171493,-0.08056523461384964
7.984409799554567,-0.08077733692586571
8.01781737193764,-0.08113570244056831
8.051224944320714,-0.08626282121139148
8.084632516703786,-0.09936314262264606
8.118040089086861,-0.11962939786230362
8.151447661469934,-0.14094827390691858
8.184855233853007,-0.1529648285433223
8.218262806236082,-0.144553024785389
8.251670378619155,-0.10849677703513934
8.285077951002227,-0.04536634360154365
8.318485523385302,0.035310455329144105
8.351893095768375,0.11738800460835011
8.385300668151448,0.18318369524881697
8.418708240534523,0.2192706581421823
8.452115812917596,0.2206571930553152
8.485523385300668,0.19181538143689014
8.518930957683743,0.14443671479350695
8.552338530066816,0.09310026390263332
8.585746102449889,0.05065745175737382
8.619153674832964,0.024920452354487258
8.652561247216036,0.01746214953436338
8.68596881959911,0.02444945958714382
8.719376391982184,0.038807494871544494
8.752783964365257,0.052792493030861476
8.78619153674833,0.06017439433538079
8.819599109131405,0.05753825900264029
8.853006681514477,0.04456028903817545
8.88641425389755,0.02340813767836043
8.919821826280625,-0.002386013013081732
8.953229398663698,-0.0291459890490331
8.98663697104677,-0.053966959559151914
9.020044543429846,-0.07507158432837095
9.053452115812918,-0.09157537476685411
9.086859688195991,-0.10287285286246883
9.120267260579066,-0.10804024977756987
9.153674832962139,-0.10568344681985908
9.187082405345212,-0.09447535160059332
9.220489977728286,-0.07424953345832738
9.25389755011136,-0.04710629063100146
9.287305122494432,-0.01779339691861667
9.320712694877507,0.007159577180895226
9.35412026726058,0.0214732791472681
9.387527839643653,0.021543387095906714
9.420935412026727,0.008115504925568633
9.4543429844098,-0.013698589791501738
9.487750556792873,-0.036200836812039415
9.521158129175948,-0.05191874678245846
9.55456570155902,-0.05616723539473694
9.587973273942094,-0.04824670821606152
9.621380846325168,-0.030914083000481755
9.654788418708241,-0.008650080596417593
9.688195991091314,0.01423836889477957
9.721603563474389,0.034755313360437586
9.755011135857462,0.051277643279789516
9.788418708240535,0.06291966816870083
9.82182628062361,0.06892944613387382
9.855233853006682,0.06867596528025052
9.888641425389755,0.062249984494843806
9.92204899777283,0.0511702640194796
9.955456570155903,0.038513053816671326
9.988864142538976,0.028087050773483006
10.02227171492205,0.022880865582495878
10.055679287305123,0.02354608343317943
10.089086859688196,0.027802818843088717
10.12249443207127,0.03125432777657658
10.155902004454344,0.02936855082104374
10.189309576837417,0.019727334241185404
10.222717149220491,0.003433267525729385
10.256124721603564,-0.015069703366596287
10.289532293986637,-0.02974985863605041
10.322939866369712,-0.035549995480910715
10.356347438752785,-0.030615109474276293
10.389755011135858,-0.017201450190269803
10.423162583518932,-0.0008731862305347402
10.456570155902005,0.011672148098478136
10.489977728285078,0.015242760361073667
10.523385300668153,0.008169521971955265
10.556792873051226,-0.007123277481870529
10.590200445434299,-0.025218290099543413
10.623608017817373,-0.040002377087895995
10.657015590200446,-0.0471759318822638
10.69042316258352,-0.045894015943146245
10.723830734966594,-0.038835782218543495
10.757238307349667,-0.030695079594245524
10.790645879732741,-0.025798697390044242
10.824053452115814,-0.025967618939503764
10.857461024498887,-0.0296424021599225
10.890868596881962,-0.0327167170148815
10.924276169265035,-0.030709733330086086
10.957683741648108,-0.02123565708569334
10.991091314031182,-0.00553380774223521
11.024498886414255,0.011770084758806526
11.057906458797328,0.024658170232322002
11.091314031180403,0.028575351218195055
11.124721603563476,0.022770275034412812
11.158129175946549,0.010937349682850919
11.191536748329623,-0.00022784715843341663
11.224944320712696,-0.003925460606012665
11.25835189309577,0.003755827892950853
11.291759465478844,0.02214474604470686
11.325167037861917,0.04632067615237636
11.35857461024499,0.06919641720554687
11.391982182628064,0.08426997625078005
11.425389755011137,0.08777543632748205
11.45879732739421,0.07943128561360935
11.492204899777285,0.06178456308691809
11.525612472160358,0.03880259652056706
11.55902004454343,0.014536979479123626
11.592427616926505,-0.007631398759134043
11.625835189309578,-0.02517994137525411
11.659242761692651,-0.036441667763921534
11.692650334075726,-0.04077814386659103
11.726057906458799,-0.038963327886725685
11.759465478841872,-0.03343695399380926
11.792873051224946,-0.027966017033934417
11.82628062360802,-0.02651593188196303
11.859688195991092,-0.03163783451203341
11.893095768374167,-0.043102136179695216
11.92650334075724,-0.05755309141733972
11.959910913140313,-0.06954478334354959
11.993318485523387,-0.07364008647038545
12.02672605790646,-0.06667341406323474
12.060133630289533,-0.049124325237687366
12.093541202672608,-0.02493301942003296
12.12694877505568,0.00016676578910936686
12.160356347438753,0.020996177517669783
12.193763919821828,0.03483349365489673
12.227171492204901,0.04199051132564356
12.260579064587974,0.04487617511509686
12.293986636971049,0.04613501656090366
12.327394209354122,0.04690200124465755
12.360801781737194,0.04611996301391469
12.39420935412027,0.04128158881688373
12.427616926503342,0.030197264906276486
12.461024498886415,0.012846381000519635
12.49443207126949,-0.0076912799482305285
12.527839643652563,-0.025795495121440824
12.561247216035635,-0.035230541489452254
12.59465478841871,-0.03167383591948566
12.628062360801783,-0.014785238264281481
12.661469933184856,0.011104095247606532
12.69487750556793,0.03808503798217973
12.728285077951004,0.05724958993955746
12.761692650334076,0.06184319173478897
12.795100222717151,0.049787431056441206
12.828507795100224,0.02454917029595851
12.861915367483297,-0.0060507620062944046
12.895322939866372,-0.032668127927598205
12.928730512249444,-0.04779774509102647
12.962138084632517,-0.04833568083391517
12.995545657015592,-0.036361324335597134
13.028953229398665,-0.017927290451627807
13.062360801781738,-0.0004682603384031202
13.095768374164813,0.010051125905426273
13.129175946547885,0.01112861687130762
13.162583518930958,0.004188402134871306
13.195991091314033,-0.006489432147730247
13.229398663697106,-0.01579607660536096
13.262806236080179,-0.0198994446355513
13.296213808463254,-0.017602532596213916
13.329621380846326,-0.010482394203998935
13.3630289532294,-0.0018528375654071456
13.396436525612474,0.004916457852002129
13.429844097995547,0.00792614916736182
13.46325167037862,0.0074149009452836555
13.496659242761694,0.005303011730492282
13.530066815144767,0.003924595024029425
13.56347438752784,0.004669546321821815
13.596881959910915,0.007262212337661069
13.630289532293988,0.01000705400978227
13.66369710467706,0.010777647122775695
13.697104677060135,0.008145957911865254
13.730512249443208,0.002048044084585974
13.763919821826281,-0.0062826210136589684
13.797327394209356,-0.014950314016701861
13.830734966592429,-0.022170142695016635
13.864142538975502,-0.026773455989075535
13.897550111358576,-0.028288646143592572
13.93095768374165,-0.026721588418062787
13.964365256124722,-0.02229644295462694
13.997772828507797,-0.015355329961320892
14.03118040089087,-0.006436944819038736
14.064587973273943,0.003600367191718722
14.097995545657017,0.013579471134440914
14.13140311804009,0.022208343657696725
14.164810690423163,0.028426032303697436
14.198218262806238,0.031728472006995766
14.23162583518931,0.032304337092908905
14.265033407572384,0.030896397199711188
14.298440979955458,0.028437500833456097
14.331848552338531,0.025629978415455286
14.365256124721604,0.022686196813103767
14.398663697104679,0.01939238234347288
14.432071269487752,0.015502593536332421
14.465478841870825,0.011270105259032805
14.4988864142539,0.0077776397380662325
14.532293986636972,0.006738621772480999
14.565701559020045,0.009656012375459336
14.59910913140312,0.01658541918229875
14.632516703786193,0.025091986109644086
14.665924276169266,0.030111673913849595
14.69933184855234,0.025187634713377753
14.732739420935413,0.004973663117102861
14.766146993318486,-0.03180678858164194
14.79955456570156,-0.0802462559652836
14.832962138084634,-0.12924182378651075
14.866369710467707,-0.16415489049684323
14.899777282850781,-0.17156976792952378
14.933184855233854,-0.14447457627610327
14.966592427616927,-0.08569907077321193
15.0,-0.007933230658431057
