Time (s),Filtered Signal
0.0,0.03969983215082783
0.0334075723830735,0.10487451232468668
0.066815144766147,0.16666662520146558
0.1002227171492205,0.21961782553859216
0.133630289532294,0.25465750616858224
0.1670378619153675,0.26155403652577736
0.200445434298441,0.23365100419091495
0.23385300668151449,0.17255600656751563
0.267260579064588,0.09015063064976347
0.3006681514476615,0.006348017040854029
0.334075723830735,-0.05702800855115653
0.3674832962138085,-0.08395110282718041
0.400890868596882,-0.0702527520187988
0.4342984409799555,-0.0253340569243245
0.46770601336302897,0.03135554792779727
0.5011135857461025,0.0776778647050001
0.534521158129176,0.09691725180452916
0.5679287305122495,0.08323739528426062
0.601336302895323,0.042289565955189096
0.6347438752783965,-0.013011110656840312
0.66815144766147,-0.06931702211890287
0.7015590200445435,-0.11889415277956684
0.734966592427617,-0.16195239902432523
0.7683741648106905,-0.2042445681090158
0.801781737193764,-0.2513635407307421
0.8351893095768375,-0.30290607255335145
0.868596881959911,-0.34979509553865734
0.9020044543429845,-0.3764709124900016
0.9354120267260579,-0.36716696827631445
0.9688195991091315,-0.3133442936633472
1.002227171492205,-0.2186604893814874
1.0356347438752784,-0.09895135279956989
1.069042316258352,0.022948987670016862
1.1024498886414256,0.1253044099685024
1.135857461024499,0.1949362960944057
1.1692650334075725,0.23088736936771045
1.202672605790646,0.2429635835422149
1.2360801781737194,0.24616019311319795
1.269487750556793,0.2536983113347415
1.3028953229398665,0.2717620812552964
1.33630289532294,0.2979823239002432
1.3697104677060135,0.32386726813489153
1.403118040089087,0.3396450252673796
1.4365256124721606,0.33910026384299496
1.469933184855234,0.3222219571961914
1.5033407572383075,0.29459305179871126
1.536748329621381,0.26391793704831296
1.5701559020044544,0.23532791351759366
1.603563474387528,0.2076783746266547
1.6369710467706016,0.17272318545618323
1.670378619153675,0.11789565156481056
1.7037861915367485,0.03186071488369543
1.737193763919822,-0.08931403515030129
1.7706013363028954,-0.23797783993369942
1.804008908685969,-0.39466198383314216
1.8374164810690425,-0.5322418029963465
1.8708240534521159,-0.623240930684491
1.9042316258351895,-0.6478291343091829
1.937639198218263,-0.5998298772893194
1.9710467706013366,-0.4887960154027096
2.00445434298441,-0.33757594013159575
2.0378619153674835,-0.17624574551569108
2.071269487750557,-0.034337161480975015
2.1046770601336307,0.06634624824157549
2.138084632516704,0.1163979233107607
2.1714922048997773,0.11993180114402317
2.204899777282851,0.09220819832215298
2.2383073496659245,0.05470639380990791
2.271714922048998,0.029071874841393824
2.3051224944320716,0.03141745805591094
2.338530066815145,0.06822080849108006
2.3719376391982183,0.13469312840340097
2.405345211581292,0.2160339298295527
2.4387527839643655,0.29137785573780184
2.472160356347439,0.3394972992359588
2.5055679287305126,0.3446750586691231
2.538975501113586,0.3009628053759207
2.5723830734966593,0.2135192716309225
2.605790645879733,0.09675185562652444
2.6391982182628064,-0.029878999091983993
2.67260579064588,-0.14680772931850034
2.7060133630289536,-0.23846605924618802
2.739420935412027,-0.2955780562917397
2.7728285077951007,-0.315578384946077
2.806236080178174,-0.301728782258266
2.8396436525612474,-0.26159910573883804
2.873051224944321,-0.20522449510348562
2.9064587973273945,-0.14288930435748487
2.939866369710468,-0.08253930350364562
2.9732739420935417,-0.027325591632585813
3.006681514476615,0.02566357870100574
3.0400890868596884,0.08437982048685337
3.073496659242762,0.158151545605426
3.1069042316258355,0.2523542326481372
3.140311804008909,0.3635769493053938
3.1737193763919826,0.4777240731709604
3.207126948775056,0.5724996157964872
3.2405345211581293,0.6238271609493193
3.273942093541203,0.6138884531254872
3.3073496659242765,0.5375795483200647
3.34075723830735,0.40473457566246823
3.3741648106904236,0.23717901503631592
3.407572383073497,0.061755681154570294
3.4409799554565703,-0.09796387357346292
3.474387527839644,-0.22811354076240362
3.5077951002227175,-0.3267494431893927
3.541202672605791,-0.4012449850863216
3.5746102449888646,-0.462294845459832
3.608017817371938,-0.5174209307954297
3.6414253897550113,-0.5670588046873999
3.674832962138085,-0.6050132157893201
3.7082405345211584,-0.6228177755954201
3.7416481069042318,-0.6154033766042262
3.7750556792873056,-0.5846432967029027
3.808463251670379,-0.538410453976053
3.8418708240534527,-0.4853522824829993
3.875278396436526,-0.42830881250636726
3.9086859688195994,-0.36053040579612083
3.942093541202673,-0.2676506839966513
3.9755011135857465,-0.13520601800915655
4.00890868596882,0.04186855701036716
4.042316258351893,0.25284652514381933
4.075723830734967,0.4716374916494004
4.109131403118041,0.664235273348958
4.142538975501114,0.7997477374648528
4.1759465478841875,0.8598921043097887
4.209354120267261,0.8429814628163563
4.242761692650334,0.7615531055044142
4.276169265033408,0.6359657541361375
4.309576837416482,0.48773805867981124
4.342984409799555,0.33553276943453914
4.3763919821826285,0.1943464379942021
4.409799554565702,0.07625602512550325
4.443207126948775,-0.009624060156669915
4.476614699331849,-0.05916327413399263
4.510022271714923,-0.07624935156921211
4.543429844097996,-0.07425310318127601
4.5768374164810695,-0.07350207658796565
4.610244988864143,-0.09440022274510945
4.643652561247216,-0.14863338787007813
4.67706013363029,-0.23269366777954453
4.710467706013364,-0.32747240964684454
4.743875278396437,-0.4049494927385084
4.77728285077951,-0.439427950452883
4.810690423162584,-0.41828774151336895
4.844097995545657,-0.34727089992545485
4.877505567928731,-0.24789971436041597
4.910913140311805,-0.14840510194374468
4.944320712694878,-0.07252167911603287
4.977728285077951,-0.031209682175835633
5.011135857461025,-0.020595070710238417
5.044543429844098,-0.02626886024309835
5.077951002227172,-0.03122938708583842
5.111358574610246,-0.02350884874764698
5.144766146993319,-0.0002507123111121078
5.178173719376392,0.032935134951957844
5.211581291759466,0.06625593847641567
5.244988864142539,0.09114592078816508
5.278396436525613,0.10417295574922952
5.311804008908687,0.10785618905614518
5.34521158129176,0.10840410805437091
5.378619153674833,0.11177754920655278
5.412026726057907,0.12010261850892667
5.445434298440981,0.13012465719278984
5.478841870824054,0.1343503232673389
5.512249443207128,0.12428410121173938
5.545657015590201,0.09426977055915427
5.579064587973274,0.044253926106453775
5.612472160356348,-0.019655838198467668
5.645879732739422,-0.08694576534312566
5.679287305122495,-0.14588761488481014
5.712694877505569,-0.18680974455929036
5.746102449888642,-0.20428442264384428
5.779510022271715,-0.19772942760355172
5.812917594654789,-0.1706238868226324
5.846325167037863,-0.12893164751274533
5.879732739420936,-0.07933903248294542
5.91314031180401,-0.02772351151648807
5.946547884187083,0.021903012545436695
5.979955456570156,0.06780259198377701
6.01336302895323,0.11013849421543434
6.046770601336304,0.14982213214421
6.080178173719377,0.18685423051557296
6.1135857461024505,0.21877395836536503
6.146993318485524,0.2400605671558662
6.180400890868597,0.24324294508964406
6.213808463251671,0.22191242017990215
6.247216035634745,0.17485533203851344
6.280623608017818,0.10949922591105017
6.3140311804008915,0.04244117185607926
6.347438752783965,-0.004427282986951991
6.380846325167038,-0.011742022478045925
6.414253897550112,0.028362999041232715
6.447661469933186,0.10632881473439178
6.481069042316259,0.19581682495554098
6.5144766146993325,0.2616915790509769
6.547884187082406,0.2725212683984679
6.581291759465479,0.21233395689577886
6.614699331848553,0.08652359690800579
6.648106904231627,-0.08045453961931935
6.6815144766147,-0.2541310264288555
6.7149220489977735,-0.4015049813160443
6.748329621380847,-0.5001852101455402
6.78173719376392,-0.5422543656122977
6.815144766146994,-0.5327747428236472
6.848552338530068,-0.485084093553714
6.881959910913141,-0.41563287695625184
6.915367483296214,-0.3401801824820487
6.948775055679288,-0.2716314987692618
6.982182628062361,-0.2187515596197624
7.015590200445435,-0.1849714433076831
7.048997772828509,-0.16730001965882896
7.082405345211582,-0.1561979973300181
7.115812917594655,-0.13745288517977805
7.149220489977729,-0.09635568930278546
7.182628062360802,-0.023182409420794556
7.216035634743876,0.08212589780159156
7.24944320712695,0.20838869945547353
7.282850779510023,0.3360140346363635
7.316258351893096,0.44364320157881404
7.34966592427617,0.5161118185369634
7.383073496659243,0.5502543687580275
7.416481069042317,0.5556646021531991
7.449888641425391,0.5495773746499527
7.4832962138084635,0.5477407867822827
7.516703786191537,0.5552784697064964
7.550111358574611,0.5620044182280147
7.583518930957685,0.5450091907895465
7.616926503340758,0.47812088640869055
7.650334075723832,0.3444624572567255
7.683741648106905,0.1464751905638111
7.717149220489978,-0.0914253294999346
7.750556792873052,-0.3291315416487107
7.783964365256126,-0.5234730942088149
7.817371937639199,-0.6417343024969282
7.850779510022273,-0.6705761329840546
7.884187082405346,-0.6175921482566297
7.917594654788419,-0.5064397464347098
7.951002227171493,-0.368957617458401
7.984409799554567,-0.23767802499299048
8.01781737193764,-0.14023708744976768
8.051224944320714,-0.09519754144717267
8.084632516703786,-0.10834199980078614
8.118040089086861,-0.16976035867561975
8.151447661469934,-0.2537323027075553
8.184855233853007,-0.32373538964661197
8.218262806236082,-0.34304039802183356
8.251670378619155,-0.2880714219341022
8.285077951002227,-0.15904257412315
8.318485523385302,0.017657381877254418
8.351893095768375,0.19768599940188852
8.385300668151448,0.33492869541068965
8.418708240534523,0.3988434769131191
8.452115812917596,0.385241467912208
8.485523385300668,0.3157241163194289
8.518930957683743,0.22636546488860163
8.552338530066816,0.15126781892111388
8.585746102449889,0.10879966473987432
8.619153674832964,0.0966424179210395
8.652561247216036,0.09720285991572516
8.68596881959911,0.08986543669900245
8.719376391982184,0.06348453128658091
8.752783964365257,0.02285050471362803
8.78619153674833,-0.013771817181567616
8.819599109131405,-0.024402875027596048
8.853006681514477,0.004624047243973525
8.88641425389755,0.07016206311260324
8.919821826280625,0.15115110311021684
8.953229398663698,0.2153961041147361
8.98663697104677,0.23146396624046026
9.020044543429846,0.18109289853785018
9.053452115812918,0.0674633332977302
9.086859688195991,-0.08383471098149649
9.120267260579066,-0.23187674877843198
9.153674832962139,-0.3335412874077764
9.187082405345212,-0.35841856182964166
9.220489977728286,-0.30010171139323427
9.25389755011136,-0.17928261583849323
9.287305122494432,-0.03688224087066378
9.320712694877507,0.08064234148005052
9.35412026726058,0.1383089799927569
9.387527839643653,0.12522775285982665
9.420935412026727,0.05774123656595346
9.4543429844098,-0.028162407931558515
9.487750556792873,-0.09200653818667702
9.521158129175948,-0.1052915112198157
9.55456570155902,-0.06251765988850252
9.587973273942094,0.017645448297080445
9.621380846325168,0.10125843531755477
9.654788418708241,0.15401139044166787
9.688195991091314,0.15553175895872176
9.721603563474389,0.10689432457310612
9.755011135857462,0.028315247243704655
9.788418708240535,-0.05139817472447389
9.82182628062361,-0.10823082508768438
9.855233853006682,-0.1325854137845703
9.888641425389755,-0.13070789665777824
9.92204899777283,-0.11790065741563535
9.955456570155903,-0.10788533491337772
9.988864142538976,-0.10457962500652533
10.02227171492205,-0.10088791873611215
10.055679287305123,-0.08482081679830136
10.089086859688196,-0.04886568055673573
10.12249443207127,0.0033614589573062017
10.155902004454344,0.05742709186357666
10.189309576837417,0.09533520035803644
10.222717149220491,0.10550986273884115
10.256124721603564,0.0896658460382999
10.289532293986637,0.06255543800207562
10.322939866369712,0.044652889874300106
10.356347438752785,0.051713845987171186
10.389755011135858,0.08667483606387338
10.423162583518932,0.13788860847082218
10.456570155902005,0.1842824113876186
10.489977728285078,0.20464322476188235
10.523385300668153,0.1865561644900271
10.556792873051226,0.13111458372727303
10.590200445434299,0.05176740880724965
10.623608017817373,-0.03167148317773028
10.657015590200446,-0.10092423358766144
10.69042316258352,-0.14563135446832995
10.723830734966594,-0.16571112221055098
10.757238307349667,-0.1690707396009761
10.790645879732741,-0.166101731332694
10.824053452115814,-0.16377653961503455
10.857461024498887,-0.16224715619171964
10.890868596881962,-0.15554253526505232
10.924276169265035,-0.13585848574275816
10.957683741648108,-0.0990764044831985
10.991091314031182,-0.048498964288104074
11.024498886414255,0.005314064793521784
11.057906458797328,0.04877009206500139
11.091314031180403,0.07166417131954475
11.124721603563476,0.07278578800667122
11.158129175946549,0.061898506706588724
11.191536748329623,0.056699061722168195
11.224944320712696,0.07545677037621389
11.25835189309577,0.12803897591548088
11.291759465478844,0.2091546720028051
11.325167037861917,0.2972884544829803
11.35857461024499,0.3607970280145212
11.391982182628064,0.36955604697882566
11.425389755011137,0.307643399612107
11.45879732739421,0.1813599143039497
11.492204899777285,0.018402052126650574
11.525612472160358,-0.14211667716233456
11.55902004454343,-0.26462054651744865
11.592427616926505,-0.3301681175697795
11.625835189309578,-0.34166013024153474
11.659242761692651,-0.3191275307681418
11.692650334075726,-0.28808132452212115
11.726057906458799,-0.2671305777414139
11.759465478841872,-0.2608282502998239
11.792873051224946,-0.26039954937100585
11.82628062360802,-0.2507421959713339
11.859688195991092,-0.2192473111358915
11.893095768374167,-0.1618595407497226
11.92650334075724,-0.08401101010010692
11.959910913140313,0.0029320180848939744
11.993318485523387,0.08698932268339933
12.02672605790646,0.15968479948976072
12.060133630289533,0.21733317102364974
12.093541202672608,0.2597409654841783
12.12694877505568,0.2878533346890182
12.160356347438753,0.3020169439646934
12.193763919821828,0.3017198025362486
12.227171492204901,0.2865901365846548
12.260579064587974,0.2577489487034033
12.293986636971049,0.21857941762871244
12.327394209354122,0.17442448032800248
12.360801781737194,0.13128227512804436
12.39420935412027,0.09396960311033037
12.427616926503342,0.06440844359542669
12.461024498886415,0.04070934781006843
12.49443207126949,0.01758601211346076
12.527839643652563,-0.011721943211490685
12.561247216035635,-0.05242596620750648
12.59465478841871,-0.10511521790662436
12.628062360801783,-0.1640362008203963
12.661469933184856,-0.2178627239569253
12.69487750556793,-0.25314995272830093
12.728285077951004,-0.25939203741948
12.761692650334076,-0.2336300263981512
12.795100222717151,-0.18247162043047221
12.828507795100224,-0.12036783936637467
12.861915367483297,-0.06464988756880231
12.895322939866372,-0.02934794058517874
12.928730512249444,-0.020393831411914552
12.962138084632517,-0.034143844824081955
12.995545657015592,-0.059619246126321995
13.028953229398665,-0.08326103036135604
13.062360801781738,-0.09407933854169927
13.095768374164813,-0.08714765788230208
13.129175946547885,-0.06426237684000198
13.162583518930958,-0.03181100150333091
13.195991091314033,0.003005438289062138
13.229398663697106,0.035838160300730316
13.262806236080179,0.06707017572202266
13.296213808463254,0.10099586201032712
13.329621380846326,0.14255773884386794
13.3630289532294,0.1930322190463932
13.396436525612474,0.24668930335041037
13.429844097995547,0.29027830913493724
13.46325167037862,0.30619304343002934
13.496659242761694,0.27864770113073517
13.530066815144767,0.20071232008271214
13.56347438752784,0.07927075190029126
13.596881959910915,-0.06463218449976059
13.630289532293988,-0.20094217198712103
13.66369710467706,-0.29979455280263956
13.697104677060135,-0.3413146142911969
13.730512249443208,-0.32199311536587655
13.763919821826281,-0.2549319799090119
13.797327394209356,-0.16395936969553587
13.830734966592429,-0.07435419004790565
13.864142538975502,-0.004267191120557267
13.897550111358576,0.03977220385027692
13.93095768374165,0.062107806355985486
13.964365256124722,0.07327367517396702
13.997772828507797,0.08410579826123579
14.03118040089087,0.10125712689226701
14.064587973273943,0.12546543299173668
14.097995545657017,0.1524219642937385
14.13140311804009,0.17512606370115175
14.164810690423163,0.18647023495399026
14.198218262806238,0.1812552769068532
14.23162583518931,0.1574088307195488
14.265033407572384,0.11648632770041506
14.298440979955458,0.06350740189291783
14.331848552338531,0.006062092583772695
14.365256124721604,-0.04730802511748261
14.398663697104679,-0.089138704811115
14.432071269487752,-0.11484895142660681
14.465478841870825,-0.12366383579725801
14.4988864142539,-0.1183509479092418
14.532293986636972,-0.10400290409185883
14.565701559020045,-0.08646641901527857
14.59910913140312,-0.07100527982878488
14.632516703786193,-0.06146726135824818
14.665924276169266,-0.059884180312173886
14.69933184855234,-0.0663101325423916
14.732739420935413,-0.07881606338970186
14.766146993318486,-0.09373475624987027
14.79955456570156,-0.10629413513647147
14.832962138084634,-0.11163251352900645
14.866369710467707,-0.10596605821540829
14.899777282850781,-0.08754776354606342
14.933184855233854,-0.057117152021464335
14.966592427616927,-0.01774861050241995
15.0,0.025777673288760114
