Time (s),Filtered Signal
0.0,-0.019125114366597244
0.033370165745856356,0.15953877235141903
0.06674033149171271,0.2801416425233722
0.10011049723756907,0.3048663194145989
0.13348066298342542,0.22790993472719528
0.16685082872928178,0.07410358455531699
0.20022099447513814,-0.11325086010446077
0.2335911602209945,-0.2886254855656854
0.26696132596685085,-0.41749899878531604
0.30033149171270723,-0.4826389641232885
0.33370165745856356,-0.4836543290475797
0.3670718232044199,-0.43264166028081313
0.4004419889502763,-0.34886154160156674
0.43381215469613266,-0.2539111416437697
0.467182320441989,-0.1674616206822773
0.5005524861878453,-0.1033627314242386
0.5339226519337017,-0.06662880025127559
0.5672928176795581,-0.05252611170117124
0.6006629834254145,-0.04876959531067516
0.6340331491712707,-0.040586813796129446
0.6674033149171271,-0.016861951980375905
0.7007734806629835,0.02522786235566052
0.7341436464088398,0.07914000118141122
0.7675138121546962,0.13190370765788012
0.8008839779005525,0.16970356820498278
0.8342541436464089,0.1836508865690805
0.8676243093922653,0.17335411661828604
0.9009944751381216,0.1469745876430696
0.934364640883978,0.11796411444817217
0.9677348066298344,0.09996688814144651
1.0011049723756906,0.10195457625008536
1.0344751381215471,0.1254016962963335
1.0678453038674034,0.16437531632734745
1.1012154696132597,0.20821595868158424
1.1345856353591162,0.24551208805656297
1.1679558011049724,0.2677076003637019
1.201325966850829,0.27105421529662305
1.2346961325966852,0.2565118168257774
1.2680662983425415,0.228143980126526
1.301436464088398,0.191083649111852
1.3348066298342542,0.15004296536606138
1.3681767955801105,0.10876138871468495
1.401546961325967,0.07011921719323977
1.4349171270718233,0.036273172934009376
1.4682872928176796,0.008266212113372882
1.501657458563536,-0.014970754309418527
1.5350276243093923,-0.03774002831330189
1.5683977900552488,-0.06796090130172758
1.601767955801105,-0.115980338617709
1.6351381215469614,-0.1914627187525272
1.6685082872928179,-0.2988582743357474
1.7018784530386741,-0.43287898667443214
1.7352486187845306,-0.5760082587105384
1.768618784530387,-0.6999191965355849
1.8019889502762432,-0.7715666745894336
1.8353591160220997,-0.7628547014453068
1.868729281767956,-0.66084287286975
1.9020994475138122,-0.4744115098231545
1.9354696132596687,-0.2339678938014784
1.968839779005525,0.01672815106581633
2.0022099447513813,0.23408862225272314
2.0355801104972375,0.38829307832410737
2.0689502762430942,0.4712578980105894
2.1023204419889505,0.495727359307719
2.135690607734807,0.48644283589786547
2.169060773480663,0.46806394184433575
2.2024309392265193,0.45568608238689723
2.235801104972376,0.4518533869462384
2.2691712707182323,0.45015235652237334
2.3025414364640886,0.44203541770632526
2.335911602209945,0.42234278082150223
2.369281767955801,0.39053193136339254
2.402651933701658,0.347775774948969
2.436022099447514,0.29287987563174944
2.4693922651933704,0.22070838721578445
2.5027624309392267,0.12504655946521887
2.536132596685083,0.004614056321120275
2.5695027624309392,-0.13173907602401633
2.602872928176796,-0.2649679895529884
2.636243093922652,-0.37268080600415115
2.6696132596685085,-0.44043515766634805
2.7029834254143648,-0.4714489790695696
2.736353591160221,-0.4881345022578037
2.7697237569060777,-0.5222447530504521
2.803093922651934,-0.5964978999818783
2.8364640883977903,-0.7062781002620856
2.8698342541436466,-0.8119938448866695
2.903204419889503,-0.8490097186919173
2.936574585635359,-0.7537428588838864
2.969944751381216,-0.49538774735135815
3.003314917127072,-0.09783792921107433
3.0366850828729284,0.36081406991689957
3.0700552486187846,0.7737396298283802
3.103425414364641,1.045739676228237
3.1367955801104976,1.1301025157225386
3.170165745856354,1.044391904637941
3.20353591160221,0.857691912074529
3.2369060773480665,0.6560288875164274
3.2702762430939227,0.5034543435221585
3.3036464088397794,0.417838939312471
3.3370165745856357,0.37201068541535165
3.370386740331492,0.317164548439589
3.4037569060773483,0.2140840829280943
3.4371270718232045,0.0548404373027975
3.4704972375690613,-0.1355575936474283
3.5038674033149175,-0.3160441934145363
3.537237569060774,-0.4533236806809372
3.57060773480663,-0.5385014228383178
3.6039779005524863,-0.5880108755008011
3.6373480662983426,-0.630056401435503
3.6707182320441993,-0.68565807576665
3.7040883977900556,-0.7552669979623405
3.737458563535912,-0.8176174852481425
3.770828729281768,-0.8402279681155348
3.8041988950276244,-0.7950706314374213
3.837569060773481,-0.6712645030464252
3.8709392265193374,-0.4793386288603676
3.9043093922651937,-0.24648866038975956
3.93767955801105,-0.006426892540701154
3.9710497237569062,0.21101504507225188
4.0044198895027625,0.38656185442695606
4.037790055248619,0.5131137112540918
4.071160220994475,0.593380245617555
4.104530386740332,0.6357329825618032
4.1379005524861885,0.6502690494338925
4.171270718232044,0.6461382490992115
4.204640883977901,0.6302534040191966
4.238011049723757,0.6070163697956581
4.271381215469614,0.5786601059539793
4.30475138121547,0.5459640477641605
4.338121546961326,0.5091705304926122
4.371491712707183,0.46883655929789786
4.404861878453039,0.4262371777848153
4.438232044198895,0.38299668221107985
4.471602209944752,0.33993877233038966
4.504972375690608,0.29559230064143804
4.538342541436465,0.24512274166914366
4.5717127071823205,0.18047669638991737
4.605082872928177,0.09217314990072718
4.638453038674034,-0.027444198128690877
4.67182320441989,-0.1803542423942731
4.7051933701657465,-0.35974378531529183
4.738563535911602,-0.5490189843743339
4.771933701657459,-0.7238355333958179
4.805303867403316,-0.8570859258690797
4.8386740331491715,-0.9256762719867817
4.872044198895028,-0.9170957911121417
4.905414364640884,-0.8336039771549568
4.938784530386741,-0.6924863874795648
4.972154696132597,-0.5220939113179258
5.005524861878453,-0.3548181636931902
5.03889502762431,-0.21917676004433068
5.072265193370166,-0.13335755755308876
5.105635359116023,-0.10188498269156249
5.1390055248618784,-0.11593736312997573
5.172375690607735,-0.15682238537685328
5.205745856353592,-0.20153578218943763
5.239116022099448,-0.2291116231284628
5.272486187845304,-0.2263349017700525
5.30585635359116,-0.19121620254592372
5.339226519337017,-0.13271597630400628
5.372596685082874,-0.0660619382543986
5.4059668508287295,-0.004814633964881658
5.439337016574586,0.047017396671876
5.472707182320442,0.09839795081422498
5.506077348066299,0.1670566515882015
5.5394475138121555,0.2682965448439161
5.572817679558011,0.40219807913214917
5.606187845303868,0.5473711512503715
5.639558011049724,0.6676466295380701
5.672928176795581,0.7315291035798361
5.706298342541437,0.7357378541256
5.739668508287293,0.7187363229190172
5.77303867403315,0.7521428291106654
5.806408839779006,0.9080460791220751
5.839779005524862,1.2142921486210334
5.873149171270718,1.6201462271337992
5.906519337016575,1.9943371004303752
5.939889502762432,2.164329511693188
5.9732596685082875,1.9848934923180854
6.006629834254144,1.4062602526715284
6.04,0.5080486594798533
6.073370165745857,-0.5210077779935638
6.1067403314917135,-1.4514761730053143
6.140110497237569,-2.0991498711386445
6.173480662983426,-2.3886042040406603
6.206850828729282,-2.366115018823583
6.240220994475139,-2.1596803000743723
6.273591160220995,-1.9097725401690997
6.306961325966851,-1.706477247463745
6.340331491712708,-1.5616541207966042
6.373701657458564,-1.4241687060529256
6.40707182320442,-1.2241324605219341
6.440441988950277,-0.919882420096035
6.473812154696133,-0.5239655187680731
6.50718232044199,-0.09825846560633841
6.5405524861878455,0.27511821432977723
6.573922651933702,0.5298344471981674
6.607292817679559,0.6405360654016338
6.640662983425415,0.6273641729645478
6.674033149171271,0.5411794026581411
6.707403314917127,0.43944441786349336
6.740773480662984,0.36512364431110617
6.774143646408841,0.3370720233838298
6.8075138121546965,0.3530950736711261
6.840883977900553,0.4003594068484447
6.874254143646409,0.46539921756199865
6.907624309392266,0.5383170368342645
6.9409944751381225,0.6108544423830375
6.974364640883978,0.6723670630090915
7.007734806629835,0.7087193479934144
7.041104972375691,0.7064151150327943
7.074475138121548,0.6599671770050219
7.107845303867403,0.5775648748143603
7.14121546961326,0.4804936247216963
7.174585635359117,0.39527114036458694
7.207955801104973,0.3418928782183942
7.241325966850829,0.3241764318784105
7.274696132596685,0.3273697827932969
7.308066298342542,0.3244403939217278
7.341436464088399,0.28799704452821806
7.3748066298342545,0.20212434954330488
7.408176795580111,0.0688451362627062
7.441546961325967,-0.0930751488712738
7.474917127071824,-0.2555828820713302
7.5082872928176805,-0.39123348746943876
7.541657458563536,-0.48148543433885765
7.575027624309393,-0.5208861946341269
7.608397790055249,-0.51674478964941
7.641767955801106,-0.48540746314861405
7.675138121546962,-0.4467606251662943
7.708508287292818,-0.418394872175597
7.741878453038675,-0.4105932944650225
7.775248618784531,-0.42328181259035125
7.808618784530387,-0.44605889004137783
7.841988950276244,-0.46188215095676805
7.8753591160221,-0.4537184441059693
7.908729281767957,-0.4119271964694361
7.9420994475138125,-0.3392658458587015
7.975469613259669,-0.250924398881496
8.008839779005525,-0.1689334105779873
8.042209944751383,-0.11285248946553597
8.075580110497238,-0.09061244012010823
8.108950276243094,-0.09371921218620514
8.14232044198895,-0.09942135727203975
8.175690607734808,-0.07950269202662638
8.209060773480664,-0.012367590571046838
8.24243093922652,0.1065909768744511
8.275801104972377,0.26088639843317113
8.309171270718233,0.41715855366691085
8.342541436464089,0.5363216450270041
8.375911602209946,0.5873217552911201
8.409281767955802,0.5581033726726901
8.442651933701658,0.4596000958285328
8.476022099447514,0.32147166210900596
8.509392265193371,0.18155153411050484
8.542762430939227,0.07315901507355815
8.576132596685083,0.014825595668000171
8.60950276243094,0.005723862505886639
8.642872928176796,0.027908065649127154
8.676243093922652,0.05422731305256085
8.709613259668508,0.059071052369422714
8.742983425414366,0.028286077757118708
8.776353591160222,-0.035171746888034615
8.809723756906077,-0.11198636661751975
8.843093922651935,-0.17360361600167712
8.87646408839779,-0.19328365872555553
8.909834254143647,-0.15690817932294104
8.943204419889504,-0.06920112419784866
8.97657458563536,0.04727327704721481
9.009944751381216,0.15999890505771716
9.043314917127072,0.23803463150675935
9.07668508287293,0.262470756823721
9.110055248618785,0.23178151538952763
9.143425414364641,0.1604555961875395
9.176795580110499,0.07220595249612816
9.210165745856354,-0.008901844612476506
9.24353591160221,-0.065732961600432
9.276906077348068,-0.09141049602554574
9.310276243093924,-0.08842339018234681
9.34364640883978,-0.06506690365512517
9.377016574585635,-0.031491746016070285
9.410386740331493,0.0028865146528980114
9.443756906077349,0.030152629044829772
9.477127071823205,0.04359986277608057
9.510497237569062,0.03764101561620507
9.543867403314918,0.008723363589666038
9.577237569060774,-0.04299884393538383
9.610607734806631,-0.11239948373934831
9.643977900552487,-0.18981575922647498
9.677348066298343,-0.2636168646855776
9.710718232044199,-0.32395094356487886
9.744088397790057,-0.3657004328369236
9.777458563535912,-0.38883511937767284
9.810828729281768,-0.39579684953531064
9.844198895027626,-0.387493202173676
9.877569060773482,-0.3606364430596506
9.910939226519337,-0.30860230062676514
9.944309392265193,-0.22584844475369478
9.97767955801105,-0.1135042869087327
10.011049723756907,0.01736038097162688
10.044419889502763,0.14723195386354682
10.07779005524862,0.2542392347674134
10.111160220994476,0.3220666373746103
10.144530386740332,0.3459039910173349
10.17790055248619,0.33366324957452465
10.211270718232045,0.3020494441836778
10.244640883977901,0.26945171958830255
10.278011049723757,0.24890096456407668
10.311381215469615,0.24407724788936122
10.34475138121547,0.24980193494960246
10.378121546961326,0.25635050467941306
10.411491712707184,0.2551871411304709
10.44486187845304,0.24313356186134097
10.478232044198895,0.22286738048546048
10.511602209944753,0.19964222033652507
10.544972375690609,0.17626218604675492
10.578342541436465,0.1494764973439738
10.61171270718232,0.11036793213708172
10.645082872928178,0.04915834318157276
10.678453038674034,-0.03778822865022101
10.71182320441989,-0.1426468024217531
10.745193370165747,-0.24597935172175764
10.778563535911603,-0.32276576382235533
10.811933701657459,-0.3523130094360714
10.845303867403315,-0.32739591663197815
10.878674033149172,-0.25803247150257286
10.912044198895028,-0.16784186143254232
10.945414364640884,-0.08463839194389164
10.978784530386742,-0.029754057513573785
11.012154696132598,-0.01102942810136418
11.045524861878453,-0.022312327010223686
11.078895027624311,-0.04890894029458608
11.112265193370167,-0.07561459659894891
11.145635359116023,-0.09312027829661541
11.179005524861878,-0.09996970893393631
11.212375690607736,-0.09988116350903946
11.245745856353592,-0.096667030662766
11.279116022099448,-0.08999506301004072
11.312486187845305,-0.07448851834376406
11.345856353591161,-0.04269589749022328
11.379226519337017,0.00966546386854881
11.412596685082875,0.07903172553548543
11.44596685082873,0.15252218964906186
11.479337016574586,0.21081735756464126
11.512707182320442,0.2344670189927766
11.5460773480663,0.21107208602822192
11.579447513812156,0.14032395754567387
11.612817679558011,0.03479399142598515
11.646187845303869,-0.08379900408072068
11.679558011049725,-0.19120960080094784
11.71292817679558,-0.26743953011191546
11.746298342541436,-0.30111902938075374
11.779668508287294,-0.2902923920952667
11.81303867403315,-0.2401824952817692
11.846408839779006,-0.15978326501737936
11.879779005524863,-0.05923930989607974
11.91314917127072,0.05106912734626292
11.946519337016575,0.16029564930934323
11.979889502762433,0.2572178283356205
12.013259668508288,0.3317934449964463
12.046629834254144,0.3779589066043898
12.08,0.3959960961755029
12.113370165745858,0.3924060839574146
12.146740331491714,0.3764053388695094
12.18011049723757,0.3543258314223312
12.213480662983427,0.3249821304332556
12.246850828729283,0.2791576313386287
12.280220994475139,0.2044060737062688
12.313591160220996,0.09331048726022147
12.346961325966852,-0.04903504047901893
12.380331491712708,-0.2027087345132395
12.413701657458564,-0.3378206098369808
12.447071823204421,-0.42487024424477515
12.480441988950277,-0.4459846809570779
12.513812154696133,-0.4018820356686514
12.54718232044199,-0.31152672756275035
12.580552486187846,-0.2049633866205379
12.613922651933702,-0.1127972919847546
12.64729281767956,-0.05677872849779591
12.680662983425416,-0.04475161662748109
12.714033149171271,-0.07083167339234381
12.747403314917127,-0.1195036527496294
12.780773480662985,-0.17134207183300543
12.81414364640884,-0.20834704541261262
12.847513812154697,-0.21782093100683664
12.880883977900554,-0.19453116923183525
12.91425414364641,-0.14122937585850923
12.947624309392266,-0.06756530222252784
12.980994475138122,0.012545156991441013
13.01436464088398,0.08468889407861588
13.047734806629835,0.13788182509132418
13.081104972375691,0.1673133231025402
13.114475138121549,0.17484273102100023
13.147845303867404,0.16713056111556301
13.18121546961326,0.1524519001109501
13.214585635359118,0.13789782284367272
13.247955801104974,0.12831508766335878
13.28132596685083,0.1270843719229128
13.314696132596685,0.13746845837323826
13.348066298342543,0.1627515057089378
13.381436464088399,0.20422446809872724
13.414806629834255,0.25780864327978137
13.448176795580112,0.31159083408792315
13.481546961325968,0.34666397606696725
13.514917127071824,0.34215982224417957
13.548287292817681,0.2830224773477569
13.581657458563537,0.167267369268406
13.615027624309393,0.009273153116290272
13.648397790055249,-0.16278863190593082
13.681767955801106,-0.3147762628059767
13.715138121546962,-0.416823625972748
13.748508287292818,-0.45222521964390766
13.781878453038676,-0.4217934711476648
13.815248618784532,-0.34233665854362666
13.848618784530387,-0.24013285342490817
13.881988950276245,-0.14205072887051845
13.9153591160221,-0.0676412796213924
13.948729281767957,-0.024873522182539735
13.982099447513813,-0.010516904496807
14.01546961325967,-0.014221463220834464
14.048839779005526,-0.02397839348938304
14.082209944751382,-0.03044575143539042
14.11558011049724,-0.028614534866782677
14.148950276243095,-0.01690258309809258
14.182320441988951,0.004876549518796684
14.215690607734807,0.0368446169364247
14.249060773480664,0.07863890787370405
14.28243093922652,0.12760398060503517
14.315801104972376,0.1771041404428278
14.349171270718234,0.2166141824408668
14.38254143646409,0.2342915185768522
14.415911602209945,0.22124597416617017
14.449281767955803,0.1755843985083714
14.482651933701659,0.10418681477950094
14.516022099447515,0.0211592315950851
14.54939226519337,-0.05651930494439301
14.582762430939228,-0.1143113768174882
14.616132596685084,-0.1441477017569638
14.64950276243094,-0.1456130701794064
14.682872928176797,-0.12417451727749393
14.716243093922653,-0.08778307921781427
14.749613259668509,-0.04388603462636989
14.782983425414367,0.001569227426205111
14.816353591160222,0.04298048201951665
14.849723756906078,0.07321512874884903
14.883093922651934,0.08318638338365754
14.916464088397792,0.06433216899027346
14.949834254143648,0.013514155426977335
14.983204419889503,-0.06219025259421502
15.016574585635361,-0.14413209554760936
15.049944751381217,-0.2063068798355586
15.083314917127073,-0.22449852141470095
15.116685082872928,-0.18677705637641578
15.150055248618786,-0.1003761583186102
15.183425414364642,0.008927498853151812
15.216795580110498,0.10555690800629101
15.250165745856355,0.15774440986879426
15.283535911602211,0.150221564933007
15.316906077348067,0.09039134549642425
15.350276243093925,0.0052926589843524515
15.38364640883978,-0.06914471983363782
15.417016574585636,-0.10171502784408144
15.450386740331492,-0.07672695867199235
15.48375690607735,0.0018499221275114636
15.517127071823205,0.11334099038622303
15.550497237569061,0.22795321054737488
15.583867403314919,0.3154324093148513
15.617237569060775,0.3520931344127991
15.65060773480663,0.325260059172735
15.683977900552488,0.23540119212513563
15.717348066298344,0.09632048441065413
15.7507182320442,-0.06684687504875417
15.784088397790056,-0.22238167089157307
15.817458563535913,-0.33927529534513867
15.85082872928177,-0.39539853983344764
15.884198895027625,-0.38371850573595306
15.917569060773483,-0.3139080145936466
15.950939226519338,-0.20836271552491348
15.984309392265194,-0.09404196399683136
16.01767955801105,0.006553526948408302
16.051049723756908,0.08156498867327709
16.084419889502765,0.13079046244188242
16.11779005524862,0.16169566142502526
16.151160220994477,0.18294648494888574
16.18453038674033,0.19898612827541295
16.21790055248619,0.2083001269399225
16.251270718232046,0.20579249535269878
16.2846408839779,0.187420025933428
16.318011049723758,0.1541571162154356
16.351381215469615,0.11297914350475649
16.38475138121547,0.07435472605087944
16.418121546961327,0.04762289758414174
16.451491712707185,0.03659500300904513
16.48486187845304,0.03740120413422728
16.518232044198896,0.039379486903235915
16.551602209944754,0.02846691454020078
16.584972375690608,-0.00823522745241835
16.618342541436466,-0.07811314160803348
16.651712707182323,-0.1799426804320512
16.685082872928177,-0.3027296967588483
16.718453038674035,-0.42698388069276527
16.751823204419892,-0.528627048884161
16.785193370165747,-0.5850092929201809
16.818563535911604,-0.5814177781483868
16.851933701657458,-0.5156507615244833
16.885303867403316,-0.39849686008632307
16.918674033149173,-0.24957612599663945
16.952044198895027,-0.09028492088699663
16.985414364640885,0.06280141710793653
17.018784530386743,0.2009089220993927
17.052154696132597,0.32134397668482156
17.085524861878454,0.4227720878644839
17.118895027624312,0.5009669790321235
17.152265193370166,0.5480932755278662
17.185635359116024,0.5562068700737217
17.21900552486188,0.5227876776306336
17.252375690607735,0.4545897438782373
17.285745856353593,0.36692034006630914
