Time (s),Filtered Signal
0.0,0.06429437978329375
0.03337004405286344,-0.43809115769780493
0.06674008810572687,-0.9048744042116665
0.10011013215859031,-1.2961113777760014
0.13348017621145375,-1.5708969943089364
0.16685022026431717,-1.6959519467982274
0.20022026431718062,-1.6573564379341341
0.23359030837004408,-1.4689023999029267
0.2669603524229075,-1.1712242699936177
0.3003303964757709,-0.8203065922816223
0.33370044052863435,-0.4697419522280518
0.3670704845814978,-0.15484877247038076
0.40044052863436125,0.1138496447730226
0.43381057268722467,0.3450339453498042
0.46718061674008815,0.5524180439055705
0.5005506607929515,0.7398823664229881
0.533920704845815,0.8938882690673855
0.5672907488986785,0.9870542857079945
0.6006607929515418,0.9908027154052041
0.6340308370044053,0.8903519626310842
0.6674008810572687,0.6943954933812954
0.7007709251101322,0.4348557997270942
0.7341409691629956,0.15727186682510855
0.767511013215859,-0.09321841795705242
0.8008810572687225,-0.28394386941275596
0.834251101321586,-0.40041433583945923
0.8676211453744493,-0.44502998515556663
0.9009911894273128,-0.43135697457659206
0.9343612334801763,-0.37766371084661915
0.9677312775330397,-0.30234273853151933
1.001101321585903,-0.22171586190300888
1.0344713656387665,-0.1490077620661378
1.06784140969163,-0.0929412886547146
1.1012114537444935,-0.055487931740498875
1.134581497797357,-0.029962584075436637
1.1679515418502202,-0.0016496413024356732
1.2013215859030837,0.047427851815646585
1.2346916299559472,0.13011198771413893
1.2680616740088106,0.24520315861042033
1.3014317180616741,0.37262941219880685
1.3348017621145374,0.4764161757337203
1.3681718061674009,0.5159679049323019
1.4015418502202643,0.4619779652917766
1.4349118942731278,0.3102924006707083
1.4682819383259913,0.08712680785184293
1.5016519823788548,-0.1574643212020863
1.535022026431718,-0.3656154415887397
1.5683920704845815,-0.490503376890199
1.601762114537445,-0.5102502467845499
1.6351321585903085,-0.43183140999183967
1.668502202643172,-0.28483639736989735
1.7018722466960352,-0.10921774509387201
1.7352422907488987,0.057240475996704766
1.7686123348017622,0.18733350364422202
1.8019823788546256,0.26718642892268957
1.8353524229074891,0.2943899042762577
1.8687224669603526,0.2738203060396908
1.9020925110132159,0.21337519435016855
1.9354625550660793,0.12108109923477324
1.9688325991189428,0.004155795408515252
2.002202643171806,-0.13009695604905838
2.0355726872246698,-0.2722379685957543
2.068942731277533,-0.40865609837340705
2.1023127753303967,-0.5210360673570242
2.13568281938326,-0.5886333426022664
2.1690528634361232,-0.5936168635191995
2.202422907488987,-0.5279733233191168
2.23579295154185,-0.39883198297813266
2.269162995594714,-0.2288091820536045
2.302533039647577,-0.04982343547188023
2.3359030837004404,0.10778456490742541
2.369273127753304,0.22595171456552554
2.4026431718061674,0.30393504177978775
2.436013215859031,0.3548813049236754
2.4693832599118943,0.3957567610966031
2.5027533039647576,0.43632927182829606
2.5361233480176213,0.4734596679095155
2.5694933920704845,0.49375523411687233
2.6028634361233483,0.482637517374495
2.6362334801762115,0.4341928706620643
2.6696035242290748,0.3559797484675082
2.7029735682819385,0.2661596636268046
2.7363436123348017,0.1847950690706972
2.7697136563876654,0.12429500046817697
2.8030837004405287,0.08420076318068456
2.8364537444933924,0.05293683607325266
2.8698237885462556,0.015358976342970315
2.903193832599119,-0.038072770125435515
2.9365638766519826,-0.10540217022480544
2.969933920704846,-0.17363754769851822
3.0033039647577096,-0.22522615128050286
3.036674008810573,-0.24701851088391363
3.070044052863436,-0.23694415309374395
3.1034140969162998,-0.20496940067382988
3.136784140969163,-0.1680851653108062
3.1701541850220267,-0.14226246836619
3.20352422907489,-0.1357268403844284
3.2368942731277532,-0.14684003618762165
3.270264317180617,-0.1671009580458987
3.30363436123348,-0.18697427929249924
3.337004405286344,-0.20098538544032615
3.370374449339207,-0.20934301990135137
3.4037444933920704,-0.21561661635602103
3.437114537444934,-0.2223234649095169
3.4704845814977974,-0.22736985328890225
3.503854625550661,-0.22360846799312012
3.5372246696035243,-0.20180954494242712
3.5705947136563876,-0.15529824581364823
3.6039647577092513,-0.08359301128429536
3.6373348017621145,0.0069168946695406545
3.6707048458149782,0.10539116901441539
3.7040748898678415,0.20039766445067422
3.737444933920705,0.28287106238700255
3.7708149779735685,0.3466357350720878
3.8041850220264317,0.38672996166067963
3.8375550660792954,0.3974080866044157
3.8709251101321587,0.3721250748916208
3.9042951541850224,0.30659227968595587
3.9376651982378856,0.20371366058158047
3.971035242290749,0.07728325955246274
4.004405286343612,-0.04880677522879415
4.037775330396476,-0.1469925310155106
4.0711453744493395,-0.19595752696396643
4.104515418502203,-0.18942826617608677
4.137885462555066,-0.13919543599544498
4.171255506607929,-0.07029748663330287
4.2046255506607935,-0.010146473132805802
4.237995594713657,0.023561725087764523
4.27136563876652,0.030567111985964564
4.304735682819383,0.027691000897078828
4.3381057268722465,0.04028208078001375
4.371475770925111,0.08900497851786333
4.404845814977974,0.17770784191016423
4.438215859030837,0.28791620224052855
4.4715859030837,0.38296472497619133
4.504955947136564,0.420846937025866
4.538325991189428,0.3710661943615674
4.571696035242291,0.22868481165528315
4.605066079295154,0.01941219740080226
4.638436123348018,-0.20708248282046612
4.671806167400881,-0.3936413310501289
4.705176211453745,-0.49567146829164505
4.738546255506608,-0.4969162998729178
4.7719162995594715,-0.4147652468391468
4.805286343612335,-0.29316129919670186
4.838656387665198,-0.1860088184224128
4.872026431718062,-0.1373904646172492
4.905396475770925,-0.16570028136083373
4.938766519823789,-0.25704502076619434
4.972136563876652,-0.3699405752668533
5.005506607929515,-0.4497009310765434
5.038876651982379,-0.4479718108135066
5.072246696035243,-0.34114636490524924
5.105616740088106,-0.14124006597853403
5.138986784140969,0.10547685915809368
5.172356828193832,0.33306606598201977
5.2057268722466965,0.47966177197021886
5.23909691629956,0.5117852987310855
5.272466960352423,0.43906237281693045
5.305837004405286,0.3120292485561966
5.3392070484581495,0.2024201347490141
5.372577092511014,0.17311296540532706
5.405947136563877,0.2501163075877131
5.43931718061674,0.40891501467643726
5.4726872246696034,0.5818276320102982
5.506057268722468,0.6840806295908074
5.539427312775331,0.6480641812102269
5.572797356828194,0.45152614251325895
5.606167400881057,0.12805562339525658
5.639537444933921,-0.2441194469373114
5.672907488986785,-0.5698627894655428
5.706277533039648,-0.7697907740256215
5.739647577092511,-0.8051614082947651
5.7730176211453745,-0.6865196086005865
5.806387665198238,-0.4648315962679659
5.839757709251102,-0.21063598056739438
5.873127753303965,0.00965428055872514
5.9064977973568284,0.15176356084745804
5.939867841409692,0.20116289774249402
5.973237885462555,0.17032901533172
6.006607929515419,0.08915594696591546
6.039977973568282,-0.006928610718186986
6.073348017621146,-0.08748965993591962
6.106718061674009,-0.1341303547799937
6.140088105726872,-0.14306819862946313
6.173458149779736,-0.1229791147659234
6.2068281938325995,-0.0888206708736352
6.240198237885463,-0.05386634558634956
6.273568281938326,-0.02349656320745285
6.306938325991189,0.005952594217122101
6.3403083700440535,0.04242862036668896
6.373678414096917,0.09025128934606749
6.40704845814978,0.14427518218387028
6.440418502202643,0.19065023888839297
6.4737885462555065,0.21476291789495378
6.507158590308371,0.2119665888044199
6.540528634361234,0.19393291656853923
6.573898678414097,0.18503742572236181
6.60726872246696,0.20869917879273814
6.640638766519824,0.27005829660737696
6.674008810572688,0.3449371494913314
6.707378854625551,0.38319594175672805
6.740748898678414,0.3277833448791821
6.774118942731278,0.1423051487304095
6.807488986784141,-0.16567420662320162
6.840859030837005,-0.5378048038789377
6.874229074889868,-0.8798752529553244
6.9075991189427315,-1.0937172435431228
6.940969162995595,-1.1131474222661357
6.974339207048458,-0.9287822295398337
7.007709251101322,-0.5913458481256205
7.041079295154185,-0.19248794965454896
7.074449339207049,0.16836355628921143
7.107819383259912,0.41730338535233175
7.141189427312775,0.5266332633794739
7.174559471365639,0.5165199476558273
7.207929515418503,0.43950482065457797
7.241299559471366,0.35610551110777183
7.274669603524229,0.3118172986722007
7.308039647577092,0.3235566980178682
7.3414096916299565,0.378774260038561
7.37477973568282,0.4454460151258035
7.408149779735683,0.4877175094881099
7.441519823788546,0.4808564502540863
7.47488986784141,0.4202034091607851
7.508259911894274,0.3213486026423146
7.541629955947137,0.21199359196098824
7.575,0.11898467089948836
7.608370044052863,0.055887641532387206
7.641740088105728,0.016440162946001015
7.675110132158591,-0.02294338572333195
7.708480176211454,-0.09209395166560712
7.741850220264317,-0.21168534781450304
7.775220264317181,-0.3800413511126672
7.808590308370045,-0.5683678826385171
7.841960352422908,-0.7275876864770483
7.875330396475771,-0.8052129977972232
7.9087004405286345,-0.7660921767729658
7.942070484581498,-0.6084525478325391
7.975440528634362,-0.3678394424954851
8.008810572687224,-0.10628420148152587
8.042180616740088,0.10950092488894972
8.075550660792953,0.23193737294522662
8.108920704845815,0.2483125746481716
8.142290748898679,0.182034968660808
8.175660792951541,0.07972784608625401
8.209030837004406,-0.009248357851990035
8.24240088105727,-0.05152153635537071
8.275770925110132,-0.03920246486474822
8.309140969162996,0.01231101542804289
8.342511013215859,0.07530061177876558
8.375881057268723,0.12336121707514015
8.409251101321587,0.14165042839299988
8.44262114537445,0.13031344942346623
8.475991189427313,0.10113596531677944
8.509361233480176,0.07020449787847577
8.54273127753304,0.05039479749169899
8.576101321585904,0.04682851582908731
8.609471365638766,0.056648131598149874
8.64284140969163,0.07244550057911248
8.676211453744493,0.08724784179304812
8.709581497797357,0.09857915119330318
8.742951541850221,0.10977526209714993
8.776321585903084,0.12804909291917707
8.809691629955948,0.1602159859692546
8.84306167400881,0.20798114197852763
8.876431718061674,0.26493072922586924
8.909801762114538,0.3167703069075985
8.9431718061674,0.3451045830431152
8.976541850220265,0.3335871651387049
9.009911894273127,0.27416318817333546
9.043281938325991,0.17088753373198817
9.076651982378856,0.03962140705926905
9.110022026431718,-0.09648122845984726
9.143392070484582,-0.21406605409199247
9.176762114537445,-0.29656247102821803
9.210132158590309,-0.33845037653955645
9.243502202643173,-0.3453473393661298
9.276872246696035,-0.3301429881452074
9.3102422907489,-0.30692732261111655
9.343612334801762,-0.28520724626004607
9.376982378854626,-0.2666172185882605
9.41035242290749,-0.24520202071256822
9.443722466960352,-0.21094775646597436
9.477092511013216,-0.15516525106916873
9.510462555066079,-0.07587065671251683
9.543832599118943,0.018650574678267487
9.577202643171807,0.1095909638837928
9.61057268722467,0.17157367929084946
9.643942731277534,0.1805935669293394
9.677312775330396,0.12404849537935743
9.71068281938326,0.00924052516170379
9.744052863436124,-0.13396547970016295
9.777422907488987,-0.2593147207245924
9.81079295154185,-0.3187500287084255
9.844162995594713,-0.2807649114980483
9.877533039647577,-0.14497132741749638
9.910903083700441,0.054303182159820065
9.944273127753304,0.2584607311397253
9.977643171806168,0.4058936312892112
10.01101321585903,0.45540390830490185
10.044383259911895,0.4015383705766693
10.077753303964759,0.2749830625477066
10.111123348017621,0.12800198407224608
10.144493392070485,0.011780662446344115
10.177863436123348,-0.04398174406933702
10.211233480176212,-0.04039686142099133
10.244603524229076,-0.004347191095463874
10.277973568281938,0.027434545299708932
10.311343612334802,0.026934411432302463
10.344713656387665,-0.01279053918821966
10.378083700440529,-0.07677008755839058
10.411453744493393,-0.13818258272387024
10.444823788546255,-0.17340506229726202
10.47819383259912,-0.17397352612780284
10.511563876651982,-0.14933365583053265
10.544933920704846,-0.11928709821112642
10.57830396475771,-0.1005725267651614
10.611674008810573,-0.09523602821572323
10.645044052863437,-0.08762243992768226
10.678414096916299,-0.052263507911807984
10.711784140969163,0.031047671562497017
10.745154185022027,0.16291781955834692
10.77852422907489,0.31871469819537157
10.811894273127754,0.4553033039781371
10.845264317180618,0.5274879385635812
10.87863436123348,0.5065493047797643
10.912004405286345,0.3923355068926573
10.945374449339207,0.21371768650981046
10.978744493392071,0.017790070964082406
11.012114537444935,-0.14702089134061544
11.045484581497798,-0.24692981141773143
11.078854625550662,-0.2722240648304893
11.112224669603524,-0.23779775777599393
11.145594713656388,-0.17574112101860778
11.178964757709252,-0.12308984578821397
11.212334801762115,-0.10866859780494666
11.245704845814979,-0.14290334100555602
11.279074889867841,-0.2138293985229647
11.312444933920705,-0.29112841328152206
11.34581497797357,-0.33762656545380043
11.379185022026432,-0.32462289072643186
11.412555066079296,-0.24498498417993345
11.445925110132158,-0.11784964441998945
11.479295154185023,0.01813545459171584
11.512665198237887,0.12077561002755144
11.546035242290749,0.16236684819634492
11.579405286343613,0.14110194646437224
11.612775330396476,0.0800966403780383
11.64614537444934,0.01445102283971844
11.679515418502204,-0.027083761778155458
11.712885462555066,-0.03641077600201712
11.74625550660793,-0.0289470661285843
11.779625550660793,-0.03348698191133855
11.812995594713657,-0.07425318644370553
11.846365638766521,-0.1544890912846765
11.879735682819383,-0.25040079201725496
11.913105726872248,-0.3191944172700384
11.94647577092511,-0.31785011750048636
11.979845814977974,-0.2236986425428737
12.013215859030838,-0.04671350191258641
12.0465859030837,0.17262771683519712
12.079955947136565,0.37902259081808404
12.113325991189427,0.5241747658086902
12.146696035242291,0.5846987526856311
12.180066079295155,0.5682975825850541
12.213436123348018,0.5062434619853383
12.246806167400882,0.4365644257194956
12.280176211453744,0.38625945593259214
12.313546255506608,0.3607094221645862
12.346916299559473,0.344548694933744
12.380286343612335,0.3125996090152827
12.413656387665199,0.24475057292733995
12.447026431718061,0.13708654227870892
12.480396475770926,0.0038727336946668134
12.51376651982379,-0.13001876486966862
12.547136563876652,-0.24155570984195412
12.580506607929516,-0.31974153298790653
12.613876651982379,-0.36803819319371917
12.647246696035243,-0.3982356531753121
12.680616740088107,-0.42008858489722173
12.71398678414097,-0.4334758032540259
12.747356828193833,-0.4281748851225258
12.780726872246696,-0.39160141063719345
12.81409691629956,-0.3198682603831341
12.847466960352424,-0.22522830060942617
12.880837004405286,-0.13474020376834756
12.91420704845815,-0.0798574345168362
12.947577092511013,-0.08183353259466007
12.980947136563877,-0.14042705513321255
13.014317180616741,-0.23192110487828071
13.047687224669604,-0.31776410453262144
13.081057268722468,-0.3597754187900382
13.11442731277533,-0.33471043091530417
13.147797356828194,-0.2416184976749659
13.181167400881058,-0.09934545081333497
13.21453744493392,0.06347835333404563
13.247907488986785,0.2202162234058254
13.281277533039647,0.35387991988431394
13.314647577092511,0.45775733029938087
13.348017621145376,0.5303891934759076
13.381387665198238,0.5693637700977531
13.414757709251102,0.5685904050772569
13.448127753303964,0.5210399001041237
13.481497797356829,0.42514432486056764
13.514867841409693,0.2905148791893814
13.548237885462555,0.1389135411799624
13.58160792951542,-0.0007580347899136236
13.614977973568282,-0.10119544908131772
13.648348017621146,-0.14496361730643953
13.68171806167401,-0.1287941128950378
13.715088105726872,-0.06293675269090478
13.748458149779736,0.03289627715518434
13.781828193832599,0.13455643742303228
13.815198237885463,0.21791165452207673
13.848568281938327,0.26268178122981
13.88193832599119,0.25621824369724117
13.915308370044054,0.19694893917975936
13.948678414096916,0.09579911337640072
13.98204845814978,-0.02646998550452084
14.015418502202644,-0.14642631849989607
14.048788546255507,-0.24710017445448454
14.08215859030837,-0.32435180781832723
14.115528634361233,-0.38631239817970964
14.148898678414097,-0.4453645469432288
14.182268722466961,-0.5068452491350104
14.215638766519824,-0.5613773027305597
14.249008810572688,-0.586342922154406
14.28237885462555,-0.5569137281918946
14.315748898678414,-0.46112065078468456
14.349118942731279,-0.3103303133434848
14.382488986784141,-0.1383286742182717
14.415859030837005,0.011788737106715536
14.449229074889868,0.10690396856502454
14.482599118942732,0.13961470444036866
14.515969162995596,0.13222241327834872
14.549339207048458,0.12664086773999
14.582709251101322,0.16487367599868302
14.616079295154185,0.2691913017869286
14.649449339207049,0.4310735784577525
14.682819383259913,0.6136913598337208
14.716189427312775,0.7664239601663643
14.74955947136564,0.8445955360810995
14.782929515418502,0.8255718007283105
14.816299559471366,0.7143477946422713
14.84966960352423,0.5368047338078351
14.883039647577093,0.3246818185337187
14.916409691629957,0.1003484093646404
14.94977973568282,-0.13036401082420865
14.983149779735683,-0.3731360005062293
15.016519823788547,-0.6305193705305525
15.04988986784141,-0.8861675598352098
15.083259911894274,-1.098078474230724
15.116629955947138,-1.2069706105684292
15.15,-1.157984773681192
15.183370044052865,-0.9262923425595873
15.216740088105727,-0.5342047692680622
15.250110132158591,-0.050842878477139315
15.283480176211455,0.42644345093648645
15.316850220264318,0.8012716641092733
15.350220264317182,1.0060304867732208
15.383590308370044,1.0178898349062122
15.416960352422908,0.8587730339240075
15.450330396475772,0.5821539619639943
15.483700440528635,0.25408985691404445
15.517070484581499,-0.06370413614105888
15.550440528634361,-0.3239655192527878
15.583810572687225,-0.49668675156091163
15.61718061674009,-0.5673496970006194
15.650550660792952,-0.5342097624688146
15.683920704845816,-0.40689762996331363
15.717290748898678,-0.2063157230937993
15.750660792951543,0.03585511436974017
15.784030837004407,0.27986841985090416
15.817400881057269,0.48352143956260935
15.850770925110133,0.609820456003385
15.884140969162996,0.6348268007870613
15.91751101321586,0.5535319138929136
15.950881057268724,0.38193870486883397
15.984251101321586,0.1543003332557028
16.01762114537445,-0.08433561329621746
16.050991189427315,-0.288650071544416
16.084361233480177,-0.42376461768543616
16.11773127753304,-0.4729448974179336
16.151101321585905,-0.44005986059983365
16.184471365638768,-0.3464363700286958
16.21784140969163,-0.22363872773300328
16.251211453744492,-0.10477104617825246
16.284581497797358,-0.016846731713863895
16.31795154185022,0.024127458061397145
16.351321585903083,0.014875379024941746
16.38469162995595,-0.036172091116108925
16.41806167400881,-0.11178923285476797
16.451431718061674,-0.18993331759837334
16.48480176211454,-0.2481757277588383
16.518171806167402,-0.26807052568227585
16.551541850220264,-0.23883596134310422
16.584911894273127,-0.15958576896907412
16.618281938325993,-0.039475016663791856
16.651651982378855,0.1043389454814588
16.685022026431717,0.2502826631278255
16.718392070484583,0.3763865657049408
16.751762114537446,0.4637680097934716
16.785132158590308,0.49926186815222945
16.818502202643174,0.4774832079599343
16.851872246696036,0.40255620358493305
16.8852422907489,0.288976447066092
16.91861233480176,0.1602485444891053
16.951982378854627,0.044025622768460705
16.98535242290749,-0.036040022680286346
17.01872246696035,-0.06920974004063755
17.052092511013218,-0.0631166669832298
17.08546255506608,-0.04194618368388099
17.118832599118942,-0.03642210587748299
17.152202643171808,-0.06898287746750069
17.18557268722467,-0.14098249641793104
17.218942731277533,-0.22912395202036104
