Time (s),Filtered Signal
0.0,0.009567067708986328
0.03337008452774715,0.09614894361933202
0.0667401690554943,0.13986800575839758
0.10011025358324147,0.11031751900664993
0.1334803381109886,-0.00046151851073744356
0.16685042263873576,-0.17406268448998222
0.20022050716648293,-0.37087255386187373
0.23359059169423008,-0.5441253954362852
0.2669606762219772,-0.6576497007101116
0.30033076074972437,-0.6988308185849591
0.3337008452774715,-0.679896036293491
0.36707092980521866,-0.6269023850537463
0.40044101433296586,-0.5630510255044261
0.433811098860713,-0.4963832110375148
0.46718118338846015,-0.41906955976380733
0.5005512679162073,-0.31804238015949254
0.5339213524439544,-0.1893931842662224
0.5672914369717016,-0.04649741033245934
0.6006615214994487,0.0841592926804382
0.6340316060271959,0.17754517164044784
0.667401690554943,0.226283806250807
0.7007717750826902,0.24823046577784783
0.7341418596104373,0.27986684688230173
0.7675119441381845,0.35799198024707557
0.8008820286659317,0.49880417826528417
0.8342521131936789,0.6849933795386609
0.867622197721426,0.8673942398851178
0.9009922822491732,0.9807476924314454
0.9343623667769203,0.9670296318480752
0.9677324513046675,0.7972673216112973
1.0011025358324146,0.48407052273977635
1.0344726203601617,0.08081581138501104
1.0678427048879089,-0.33220607487071285
1.101212789415656,-0.6704696454092524
1.1345828739434032,-0.8697141531393391
1.1679529584711503,-0.9042606180129354
1.2013230429988975,-0.7927334257749526
1.2346931275266446,-0.5890383792390436
1.2680632120543918,-0.3620216016184799
1.301433296582139,-0.17162472087832334
1.334803381109886,-0.05042188290646938
1.3681734656376332,0.003212120291065968
1.4015435501653803,0.018899205824010588
1.4349136346931275,0.03841473373455379
1.4682837192208746,0.09661831509433791
1.5016538037486218,0.2061645525386571
1.535023888276369,0.35136482283040466
1.568393972804116,0.4933491846009473
1.6017640573318634,0.5847358162237213
1.6351341418596106,0.5884458101023319
1.6685042263873577,0.4933502422732746
1.7018743109151049,0.3201511239462099
1.735244395442852,0.11450502888477497
1.7686144799705992,-0.07022490726734164
1.8019845644983463,-0.1933987914711499
1.8353546490260935,-0.24178219705729453
1.8687247335538406,-0.23202188887986122
1.9020948180815878,-0.2000982231479376
1.935464902609335,-0.18302557453956078
1.968834987137082,-0.20164945634740272
2.002205071664829,-0.25271739185087166
2.0355751561925763,-0.31373201941247325
2.0689452407203235,-0.357601802413733
2.1023153252480706,-0.3690032717147562
2.1356854097758178,-0.3534126461301152
2.169055494303565,-0.3336942246902979
2.202425578831312,-0.33600690707673847
2.235795663359059,-0.3728496257602555
2.2691657478868064,-0.43284270721793944
2.3025358324145535,-0.4832662192030507
2.3359059169423007,-0.48447873398749824
2.369276001470048,-0.40901186760115765
2.402646085997795,-0.2557635441283148
2.436016170525542,-0.05227285457584728
2.4693862550532892,0.1561405322760408
2.5027563395810364,0.32559101913652727
2.5361264241087835,0.43283769343236533
2.5694965086365307,0.48612656302936813
2.602866593164278,0.5225442073306105
2.636236677692025,0.5920027027621826
2.669606762219772,0.7334651259004784
2.7029768467475193,0.9527972847920476
2.7363469312752664,1.21198957424166
2.7697170158030135,1.4357869094081313
2.8030871003307607,1.5350618091734443
2.836457184858508,1.4391816533071473
2.869827269386255,1.1252048883489407
2.903197353914002,0.6320388872973691
2.9365674384417493,0.05283526625894725
2.9699375229694964,-0.49292154288240675
3.0033076074972436,-0.8980440678381687
3.0366776920249907,-1.1026369565408503
3.070047776552738,-1.1119966986932732
3.103417861080485,-0.9905490170447611
3.136787945608232,-0.834614474996057
3.1701580301359793,-0.7352010661217595
3.203528114663727,-0.7453928940962691
3.236898199191474,-0.864024670672167
3.270268283719221,-1.04008123918596
3.3036383682469683,-1.1942930691533178
3.3370084527747155,-1.248988177574898
3.3703785373024626,-1.1557690588263534
3.4037486218302098,-0.9124003739217997
3.437118706357957,-0.563980759820641
3.470488790885704,-0.18794744305029598
3.503858875413451,0.13280014003182222
3.5372289599411983,0.34007716127676435
3.5705990444689455,0.42295005261206553
3.6039691289966926,0.42303606899183116
3.63733921352444,0.4186351626588188
3.670709298052187,0.49213844771087656
3.704079382579934,0.6927696247826062
3.7374494671076812,1.0099466175000507
3.7708195516354284,1.3695066943863825
3.8041896361631755,1.6564864194016713
3.8375597206909227,1.757249190990086
3.87092980521867,1.604924336106432
3.904299889746417,1.209390632666452
3.937669974274164,0.6582647808419259
3.9710400588019112,0.08699970942525614
4.004410143329658,-0.37051366808492
4.0377802278574055,-0.630580750307277
4.071150312385153,-0.6872683013083334
4.1045203969129,-0.6077146754418545
4.137890481440647,-0.4981861381230258
4.171260565968394,-0.4565361735991835
4.204630650496141,-0.5319998616851739
4.238000735023888,-0.7089015457364172
4.2713708195516356,-0.9192537519718628
4.304740904079383,-1.076112038424342
4.33811098860713,-1.111101659338585
4.371481073134877,-0.9993558687104441
4.404851157662624,-0.7626530545429816
4.438221242190371,-0.4526324688589843
4.471591326718118,-0.12502512265778065
4.504961411245866,0.1813618068399257
4.538331495773613,0.451487459260814
4.57170158030136,0.6859961263718988
4.605071664829107,0.8856488766723869
4.638441749356854,1.039130867749235
4.671811833884601,1.1222676368889053
4.7051819184123485,1.1095034710140559
4.738552002940096,0.9910401268224972
4.771922087467843,0.7853097007538132
4.80529217199559,0.5383996623741791
4.838662256523337,0.30868382619381185
4.872032341051084,0.1428838410034547
4.905402425578831,0.054968203283077756
4.9387725101065785,0.01881836954339709
4.972142594634326,-0.020627244223148374
5.005512679162073,-0.1220607708172778
5.03888276368982,-0.31986395744430846
5.072252848217567,-0.6066703296325535
5.105622932745314,-0.9345469451631631
5.138993017273061,-1.2338380286942485
5.1723631018008085,-1.4403082458295944
5.205733186328556,-1.5177975686663958
5.239103270856303,-1.4666829320329184
5.27247335538405,-1.3160612042222155
5.305843439911797,-1.1055168487453542
5.339213524439544,-0.8665829197621471
5.372583608967291,-0.6127970877715082
5.4059536934950385,-0.3418214546254761
5.439323778022786,-0.04665726593914017
5.472693862550533,0.27118729329818964
5.50606394707828,0.59399238904973
5.539434031606027,0.8898457090051143
5.572804116133774,1.1238703878563698
5.606174200661521,1.273744752542335
5.6395442851892685,1.3420751394387753
5.672914369717016,1.3585067555881907
5.706284454244763,1.3680462770211144
5.73965453877251,1.4083266975660107
5.773024623300257,1.4852454993957434
5.806394707828004,1.5599583907288426
5.839764792355751,1.5573955783010933
5.873134876883499,1.3969381221838222
5.906504961411246,1.0335528253491872
5.939875045938993,0.489381615540246
5.97324513046674,-0.14254186134301797
6.006615214994487,-0.7282671861471033
6.039985299522234,-1.1448801433040179
6.073355384049981,-1.3299479921335235
6.106725468577729,-1.3039263372300414
6.140095553105476,-1.15452508400786
6.173465637633223,-0.9917982236797973
6.20683572216097,-0.897496059587566
6.240205806688717,-0.8938026627639196
6.273575891216464,-0.9447394627224474
6.3069459757442115,-0.9856849509707006
6.340316060271959,-0.9627786176777465
6.373686144799706,-0.8612037729546572
6.407056229327454,-0.7095236336021533
6.440426313855201,-0.5606933699174524
6.473796398382948,-0.4616646316643456
6.507166482910695,-0.4276067519453335
6.540536567438442,-0.43298522377682225
6.5739066519661895,-0.42297137409442215
6.607276736493937,-0.3392826656441872
6.640646821021684,-0.14839561630260079
6.674016905549431,0.14071492042627173
6.707386990077178,0.47746089130920094
6.740757074604925,0.7890178833636351
6.774127159132672,1.009655662449993
6.8074972436604195,1.10681588053809
6.840867328188167,1.092210089664405
6.874237412715914,1.013275184101744
6.907607497243661,0.9294848464314408
6.940977581771408,0.8847529564882995
6.974347666299155,0.8884077677261542
7.007717750826902,0.9127686240675711
7.0410878353546495,0.9076113533021355
7.074457919882397,0.8243417703723959
7.107828004410144,0.6387150038253856
7.141198088937891,0.3620874060205608
7.174568173465638,0.03689263308287693
7.207938257993385,-0.2804156217895884
7.241308342521132,-0.5400619616637042
7.27467842704888,-0.7135338496372373
7.308048511576627,-0.7965334280766381
7.341418596104374,-0.8015394764870817
7.374788680632121,-0.7465557312253889
7.408158765159868,-0.647586077001693
7.441528849687615,-0.5187477525362132
7.4748989342153624,-0.3781689682536138
7.50826901874311,-0.2534738563040604
7.541639103270857,-0.18033737940072772
7.575009187798604,-0.19157326013961212
7.608379272326351,-0.30036607732109544
7.641749356854098,-0.48614028685258265
7.675119441381845,-0.6921783814184336
7.7084895259095925,-0.8395133542257587
7.74185961043734,-0.8536800512606908
7.775229694965087,-0.6936235959310976
7.808599779492834,-0.3696037224792422
7.841969864020581,0.05879600370946333
7.875339948548328,0.5042113671915419
7.908710033076075,0.8827700147795436
7.9420801176038225,1.1406419083551596
7.97545020213157,1.2642201499888472
8.008820286659317,1.2710766164220093
8.042190371187063,1.1888971323190234
8.075560455714811,1.0355116674257066
8.108930540242557,0.8117445251474213
8.142300624770305,0.5109237366436552
8.175670709298052,0.13880791013978983
8.2090407938258,-0.2690657542389167
8.242410878353546,-0.645175232448042
8.275780962881294,-0.9077956592726886
8.30915104740904,-0.9925277094026149
8.342521131936788,-0.8828390948544446
8.375891216464534,-0.6237652708396235
8.409261300992283,-0.31005835438871454
8.442631385520029,-0.0520163000512524
8.476001470047777,0.0669160702470349
8.509371554575523,0.02217833909204482
8.542741639103271,-0.14474886187377425
8.57611172363102,-0.3475425419956116
8.609481808158765,-0.4949437092825371
8.642851892686513,-0.5306055895201596
8.67622197721426,-0.45377639324986396
8.709592061742008,-0.31103375590098314
8.742962146269754,-0.16417576189132332
8.776332230797502,-0.0521978684804467
8.809702315325248,0.031212177087173765
8.843072399852996,0.13159060902820288
8.876442484380743,0.3020014377555091
8.90981256890849,0.5635323709323499
8.943182653436237,0.880852384661034
8.976552737963985,1.167924290861755
9.009922822491731,1.3226374653329993
9.04329290701948,1.2733778667676197
9.076662991547225,1.014008939289051
9.110033076074973,0.6096694472203265
9.14340316060272,0.170620659135104
9.176773245130468,-0.19293074136351704
9.210143329658214,-0.4134735978641739
9.243513414185962,-0.4869974139135023
9.276883498713708,-0.464052313507712
9.310253583241456,-0.4176526951139261
9.343623667769203,-0.40511322369818875
9.37699375229695,-0.44258823096224875
9.410363836824697,-0.5035489935105377
9.443733921352445,-0.5397551334976314
9.477104005880191,-0.5119842148493774
9.51047409040794,-0.4135982235403924
9.543844174935685,-0.2749094880354592
9.577214259463434,-0.14736925326115696
9.61058434399118,-0.07758988503747175
9.643954428518928,-0.0859985897394919
9.677324513046674,-0.16107460641668153
9.710694597574422,-0.2703495479900396
9.744064682102168,-0.37974875036136246
9.777434766629916,-0.46904648384179554
9.810804851157663,-0.5349524129686453
9.84417493568541,-0.5817525401602497
9.877545020213157,-0.6071077636267695
9.910915104740905,-0.5931151046303104
9.944285189268651,-0.5090485242330361
9.9776552737964,-0.32495787458117525
10.011025358324146,-0.028912039389860835
10.044395442851894,0.36136496048246863
10.07776552737964,0.7986174900757895
10.111135611907388,1.217960565355917
10.144505696435134,1.5549527454278869
10.177875780962882,1.7619854672335393
10.211245865490628,1.816968556770676
10.244615950018376,1.722652708584752
10.277986034546123,1.4992350827589414
10.31135611907387,1.1751000085742873
10.344726203601617,0.7800703695061835
10.378096288129365,0.3431822448660765
10.411466372657111,-0.1058193534125582
10.44483645718486,-0.5340400960676169
10.478206541712606,-0.9052430970518884
10.511576626240354,-1.1838844433070104
10.5449467107681,-1.3430344140988464
10.578316795295848,-1.3733676840462785
10.611686879823594,-1.2889541845354353
10.645056964351342,-1.126077924584975
10.678427048879088,-0.9339024936475219
10.711797133406836,-0.7595524643189757
10.745167217934583,-0.633284284723642
10.77853730246233,-0.560036956124844
10.811907386990077,-0.5210435091033327
10.845277471517825,-0.48444821913553954
10.878647556045571,-0.41956864414841394
10.91201764057332,-0.3080736065741238
10.945387725101066,-0.1476966388640846
10.978757809628814,0.05136728936390147
11.01212789415656,0.27336924221747577
11.045497978684308,0.5022696287815793
11.078868063212054,0.7226684116452414
11.112238147739802,0.9174091220401056
11.145608232267548,1.0654801478251938
11.178978316795297,1.1437313146655912
11.212348401323043,1.1332749270587577
11.24571848585079,1.028010383075983
11.279088570378537,0.8406707915257455
11.312458654906285,0.6023914349132339
11.345828739434031,0.3547229669078928
11.37919882396178,0.13669277520924517
11.412568908489526,-0.0279021452458824
11.445938993017274,-0.13754541211806892
11.47930907754502,-0.21120699275936428
11.512679162072768,-0.27828234660641193
11.546049246600514,-0.364480338583408
11.579419331128262,-0.4797171964362546
11.612789415656009,-0.6132115431849511
11.646159500183757,-0.7377424957004337
11.679529584711503,-0.8209067188305227
11.71289966923925,-0.8381338407214811
11.746269753766997,-0.7816577967261801
11.779639838294745,-0.6618504729073543
11.813009922822491,-0.5011944448387846
11.84638000735024,-0.32472617116055313
11.879750091877986,-0.15213156825147398
11.913120176405734,0.0049370120622796295
11.94649026093348,0.14037633991144763
11.979860345461228,0.24938760415276226
12.013230429988974,0.32673288188798927
12.046600514516722,0.36948554638799264
12.079970599044469,0.3824053790929809
12.113340683572217,0.38131835445673196
12.146710768099963,0.3902891006867865
12.180080852627711,0.4319382345709966
12.213450937155457,0.5148742478941479
12.246821021683205,0.6249649392983464
12.280191106210951,0.7261587896042117
12.3135611907387,0.7721041005159683
12.346931275266446,0.7242875484618639
12.380301359794194,0.5688305053749215
12.41367144432194,0.3243310633484389
12.447041528849688,0.037043813846870215
12.480411613377434,-0.2347372105794248
12.513781697905182,-0.44064201912982787
12.547151782432929,-0.5544980133090468
12.580521866960677,-0.5807806291390167
12.613891951488423,-0.5494053751259308
12.647262036016171,-0.5017062862912417
12.680632120543917,-0.47358317271353356
12.714002205071665,-0.4823302402414486
12.747372289599411,-0.5216682559490892
12.78074237412716,-0.5660347105912115
12.814112458654908,-0.5817381281575523
12.847482543182654,-0.5404689519401129
12.880852627710402,-0.4304561605254264
12.914222712238148,-0.2619101502959567
12.947592796765896,-0.06537512030148915
12.980962881293642,0.11655645807480138
13.01433296582139,0.2422248042328109
13.047703050349137,0.2852825054929227
13.081073134876885,0.2460085950612834
13.114443219404631,0.1548021595922739
13.147813303932379,0.06466843942396373
13.181183388460125,0.03330180910833513
13.214553472987873,0.10032980799626001
13.24792355751562,0.2689548879926014
13.281293642043368,0.5009493370916435
13.314663726571114,0.7287524052653669
13.348033811098862,0.8803188761946921
13.381403895626608,0.9057644529958878
13.414773980154356,0.7938328840957567
13.448144064682102,0.5716417642126307
13.48151414920985,0.28986455929328414
13.514884233737597,0.0023209909974301634
13.548254318265345,-0.24980555019683065
13.581624402793091,-0.4432404992886312
13.614994487320839,-0.5682287296760109
13.648364571848585,-0.6204452020467198
13.681734656376333,-0.5961773206548243
13.71510474090408,-0.49465346705688495
13.748474825431828,-0.3261891167136404
13.781844909959574,-0.12034842377131845
13.815214994487322,0.07299987526198358
13.848585079015068,0.19405239341219765
13.881955163542816,0.19332591473599609
13.915325248070562,0.05412777504497667
13.94869533259831,-0.19351362535086852
13.982065417126057,-0.47609280340113885
14.015435501653805,-0.6986551248328227
14.048805586181551,-0.7782996941112198
14.082175670709299,-0.6755238690422833
14.115545755237045,-0.40965896199778606
14.148915839764793,-0.051275299727759745
14.18228592429254,0.3052743592265224
14.215656008820288,0.577135333164584
14.249026093348034,0.7208757535306107
14.282396177875782,0.7417879482816192
14.315766262403528,0.6821616938795731
14.349136346931276,0.5956582617109628
14.382506431459023,0.5207513687295908
14.41587651598677,0.4658010520358402
14.449246600514517,0.4120117812120787
14.482616685042265,0.33133088987575987
14.515986769570011,0.208715086983533
14.54935685409776,0.05597141699357065
14.582726938625505,-0.09112819974846809
14.616097023153253,-0.1916348765384673
14.649467107681,-0.224181237482555
14.682837192208748,-0.2036265293114513
14.716207276736494,-0.17889513194798248
14.749577361264242,-0.21090582118362253
14.782947445791988,-0.34045550439784594
14.816317530319736,-0.5623459572099833
14.849687614847483,-0.8200928837431255
14.88305769937523,-1.0257611619221514
14.916427783902977,-1.0967036776384536
14.949797868430725,-0.991967125456267
14.983167952958471,-0.7307659173108202
15.01653803748622,-0.38406270116213814
15.049908122013965,-0.04351136987984785
15.083278206541713,0.21699976921435327
15.11664829106946,0.368814146117196
15.150018375597208,0.43271851885568713
15.183388460124954,0.4596662590430557
15.216758544652702,0.49939239307708244
15.250128629180448,0.5736099755514126
15.283498713708196,0.6670499094144097
15.316868798235943,0.7395860122895335
15.35023888276369,0.7515369234971414
15.383608967291437,0.6878101933134336
15.416979051819185,0.5680005668521251
15.450349136346931,0.43768596131389426
15.48371922087468,0.3462409321994521
15.517089305402425,0.3230251842479295
15.550459389930174,0.3637043861767822
15.58382947445792,0.43249962152627797
15.617199558985668,0.4780753765021951
15.650569643513414,0.4548193185731646
15.683939728041162,0.3399486758725474
15.717309812568908,0.1400507778295281
15.750679897096656,-0.1138946931188474
15.784049981624403,-0.37912075098865916
15.81742006615215,-0.6152106658664429
15.850790150679897,-0.7945126818380254
15.884160235207645,-0.9063384784267919
15.917530319735391,-0.9553658566575897
15.95090040426314,-0.9563860474066044
15.984270488790886,-0.9277731170201193
16.017640573318634,-0.8854339081746151
16.05101065784638,-0.8383507748192998
16.084380742374126,-0.7865024837687906
16.117750826901876,-0.7216862030960889
16.151120911429622,-0.6311730242018957
16.18449099595737,-0.5032088893277339
16.217861080485115,-0.332571057975946
16.251231165012864,-0.1241991576770604
16.28460124954061,0.10652310376700645
16.317971334068357,0.33717957511987307
16.351341418596103,0.5445019406512586
16.384711503123853,0.7112443837688471
16.4180815876516,0.8310235099474985
16.451451672179346,0.908723569604068
16.484821756707092,0.9557054575343674
16.51819184123484,0.9816667269599885
16.551561925762588,0.9873313991011251
16.584932010290334,0.9625371061580635
16.61830209481808,0.8918301960906513
16.65167217934583,0.7652922787098432
16.685042263873576,0.5885940400090963
16.718412348401323,0.3858567720524875
16.75178243292907,0.19251365658127817
16.78515251745682,0.04102461106512304
16.818522601984565,-0.05343819567414335
16.85189268651231,-0.09995957120372823
16.885262771040058,-0.12796339694291725
16.918632855567807,-0.1744352714157709
16.952002940095554,-0.26844188371781313
16.9853730246233,-0.4197256251752128
17.018743109151046,-0.6153900173850724
17.052113193678796,-0.8245460004228765
17.085483278206542,-1.007741563045229
17.11885336273429,-1.1273959386077288
17.15222344726204,-1.156774699361762
17.185593531789785,-1.0865273243338676
17.21896361631753,-0.9280760824135299
17.252333700845277,-0.7123852972982406
17.285703785373027,-0.4824419348193129
17.319073869900773,-0.2796205046736279
17.35244395442852,-0.1277427545142539
17.385814038956266,-0.021814064511983915
17.419184123484015,0.07168434171584338
