Time (s),Filtered Signal
0.0,-0.03514879566406925
0.0334075723830735,1.3964313297709505
0.066815144766147,2.4845234993523797
0.1002227171492205,3.0031169756473504
0.133630289532294,2.912930619112539
0.1670378619153675,2.3561433303556205
0.200445434298441,1.5844816488297806
0.23385300668151449,0.8563829685137335
0.267260579064588,0.3483554356023416
0.3006681514476615,0.11377774711940872
0.334075723830735,0.09710947597111882
0.3674832962138085,0.18633751410238975
0.400890868596882,0.27327288420409657
0.4342984409799555,0.29439260550403384
0.46770601336302897,0.23995857609899732
0.5011135857461025,0.13659151894420346
0.534521158129176,0.019358599890471236
0.5679287305122495,-0.09007197396577028
0.601336302895323,-0.19025529182265696
0.6347438752783965,-0.29269628436714157
0.66815144766147,-0.408135033097913
0.7015590200445435,-0.535280240845041
0.734966592427617,-0.6575847023373362
0.7683741648106905,-0.7486127201866666
0.801781737193764,-0.7824721796091769
0.8351893095768375,-0.7441535079641439
0.868596881959911,-0.6354665871533262
0.9020044543429845,-0.4746380243989064
0.9354120267260579,-0.2902733397315116
0.9688195991091315,-0.11232249376512227
1.002227171492205,0.036552281542678734
1.0356347438752784,0.14623667816065822
1.069042316258352,0.2194491152302748
1.1024498886414256,0.2673272736653802
1.135857461024499,0.30239798294878184
1.1692650334075725,0.3320449773543848
1.202672605790646,0.35531227867340054
1.2360801781737194,0.3642876327134494
1.269487750556793,0.3490981432233298
1.3028953229398665,0.303843820190922
1.33630289532294,0.23051369011458173
1.3697104677060135,0.13920593606848186
1.403118040089087,0.04502518231813079
1.4365256124721606,-0.03639616783028379
1.469933184855234,-0.0926415672977159
1.5033407572383075,-0.11661278951790897
1.536748329621381,-0.1076154995343429
1.5701559020044544,-0.07258192525393703
1.603563474387528,-0.027539045688953222
1.6369710467706016,0.00243060814531487
1.670378619153675,-0.012530050296802245
1.7037861915367485,-0.09711332547131477
1.737193763919822,-0.257369724376992
1.7706013363028954,-0.46966302844736
1.804008908685969,-0.6794156574692995
1.8374164810690425,-0.8140945086740718
1.8708240534521159,-0.8082973729103294
1.9042316258351895,-0.6316938780505146
1.937639198218263,-0.30707208119167984
1.9710467706013366,0.09151724238491617
2.00445434298441,0.4621611807203436
2.0378619153674835,0.7115453805718414
2.071269487750557,0.7892760895306902
2.1046770601336307,0.705217287223048
2.138084632516704,0.5224494302384591
2.1714922048997773,0.3293636082878212
2.204899777282851,0.2034520447794876
2.2383073496659245,0.18236436236736708
2.271714922048998,0.2537058430275105
2.3051224944320716,0.3661640913456231
2.338530066815145,0.4551945062959429
2.3719376391982183,0.47090331382242917
2.405345211581292,0.3961570534820745
2.4387527839643655,0.24862470200866213
2.472160356347439,0.06830113428654894
2.5055679287305126,-0.10182562463468457
2.538975501113586,-0.23257005326487326
2.5723830734966593,-0.31621971394168547
2.605790645879733,-0.36371121326776296
2.6391982182628064,-0.3946650047680596
2.67260579064588,-0.4258564989794445
2.7060133630289536,-0.4631247873720883
2.739420935412027,-0.4993626624359292
2.7728285077951007,-0.5184702937031875
2.806236080178174,-0.503002562401852
2.8396436525612474,-0.4421814340343646
2.873051224944321,-0.3370929455660453
2.9064587973273945,-0.20110324861290454
2.939866369710468,-0.05541054319238253
2.9732739420935417,0.07843928007795792
3.006681514476615,0.1860178067622907
3.0400890868596884,0.2643713520387108
3.073496659242762,0.32141292092494445
3.1069042316258355,0.3705412122222285
3.140311804008909,0.4227322807196351
3.1737193763919826,0.4795459019624842
3.207126948775056,0.5302791061415464
3.2405345211581293,0.5548835690841726
3.273942093541203,0.5318227695186641
3.3073496659242765,0.44775662473351624
3.34075723830735,0.3048205514255048
3.3741648106904236,0.12193705309657114
3.407572383073497,-0.07103616987849663
3.4409799554565703,-0.244339147838247
3.474387527839644,-0.37992094022337525
3.5077951002227175,-0.4782391059971739
3.541202672605791,-0.5564641692477305
3.5746102449888646,-0.6378382470879449
3.608017817371938,-0.7360497998834684
3.6414253897550113,-0.841476623487749
3.674832962138085,-0.9165684201879594
3.7082405345211584,-0.9048334269053646
3.7416481069042318,-0.7524173364816134
3.7750556792873056,-0.43503987440015546
3.808463251670379,0.02107240845791871
3.8418708240534527,0.5351196587948913
3.875278396436526,0.98960934220948
3.9086859688195994,1.2662317342154685
3.942093541202673,1.287457746636738
3.9755011135857465,1.047860116046236
4.00890868596882,0.6218722470937341
4.042316258351893,0.1429460578800423
4.075723830734967,-0.24018795310591173
4.109131403118041,-0.4151636486859169
4.142538975501114,-0.34631700890764744
4.1759465478841875,-0.08752953049957432
4.209354120267261,0.2387551463204182
4.242761692650334,0.4893667763133048
4.276169265033408,0.556785005858952
4.309576837416482,0.41148381594168737
4.342984409799555,0.11273379065274822
4.3763919821826285,-0.21706380001078782
4.409799554565702,-0.444414862777936
4.443207126948775,-0.4817699298969864
4.476614699331849,-0.32545793769746895
4.510022271714923,-0.05774678971813978
4.543429844097996,0.18886940320928286
4.5768374164810695,0.29056184491726894
4.610244988864143,0.18868504969065605
4.643652561247216,-0.08168503894682315
4.67706013363029,-0.4051214047856123
4.710467706013364,-0.6363206832734003
4.743875278396437,-0.6655694654157932
4.77728285077951,-0.4695609453079935
4.810690423162584,-0.1241317200349705
4.844097995545657,0.22724199135381198
4.877505567928731,0.43515920841406885
4.910913140311805,0.4086283221417263
4.944320712694878,0.1537383460403093
4.977728285077951,-0.22943185259056068
5.011135857461025,-0.5887576851398938
5.044543429844098,-0.7811633368608738
5.077951002227172,-0.7262270819982611
5.111358574610246,-0.43119678908910936
5.144766146993319,0.019209089661090414
5.178173719376392,0.4991197941962471
5.211581291759466,0.8855697984022497
5.244988864142539,1.0926477532997523
5.278396436525613,1.0866831150200287
5.311804008908687,0.8837798530169071
5.34521158129176,0.5371830791876953
5.378619153674833,0.12179155718172396
5.412026726057907,-0.28096531209609327
5.445434298440981,-0.5981249417597249
5.478841870824054,-0.780158017697215
5.512249443207128,-0.8129911253578496
5.545657015590201,-0.7217485882267903
5.579064587973274,-0.5621180155258859
5.612472160356348,-0.40029988004065714
5.645879732739422,-0.28845652301084596
5.679287305122495,-0.2456219864013381
5.712694877505569,-0.25213301952476025
5.746102449888642,-0.25977557469742407
5.779510022271715,-0.21317234996648252
5.812917594654789,-0.07370062519892921
5.846325167037863,0.1630742882312629
5.879732739420936,0.4624540872315601
5.91314031180401,0.7596007758201571
5.946547884187083,0.9794740013393126
5.979955456570156,1.0613585250148416
6.01336302895323,0.9799232213365218
6.046770601336304,0.7552842478249361
6.080178173719377,0.44772866113421667
6.1135857461024505,0.13812303926050437
6.146993318485524,-0.09922562487695268
6.180400890868597,-0.22097554960892885
6.213808463251671,-0.2268345577993439
6.247216035634745,-0.1546941304295131
6.280623608017818,-0.061329966830274786
6.3140311804008915,0.0026926247694180516
6.347438752783965,0.0129554359346986
6.380846325167038,-0.02243736530833737
6.414253897550112,-0.07218285256993455
6.447661469933186,-0.10179966992311446
6.481069042316259,-0.09456884059757671
6.5144766146993325,-0.0633390670756487
6.547884187082406,-0.047395694082133615
6.581291759465479,-0.09536771101983384
6.614699331848553,-0.2413734758573111
6.648106904231627,-0.48461517586507213
6.6815144766147,-0.7813355533301076
6.7149220489977735,-1.0532545806735245
6.748329621380847,-1.2103830449414787
6.78173719376392,-1.1807516502058037
6.815144766146994,-0.9368118811390335
6.848552338530068,-0.5089302452295038
6.881959910913141,0.019530679765149012
6.915367483296214,0.5346999803469579
6.948775055679288,0.9249996289010265
6.982182628062361,1.1131596595543274
7.015590200445435,1.0767901400010242
7.048997772828509,0.8513356298867426
7.082405345211582,0.5156529923084049
7.115812917594655,0.16608680651858665
7.149220489977729,-0.11210629540560185
7.182628062360802,-0.2672254748306672
7.216035634743876,-0.2912323246731655
7.24944320712695,-0.21519488805013146
7.282850779510023,-0.09227771246472571
7.316258351893096,0.025397021861338524
7.34966592427617,0.10721517824847432
7.383073496659243,0.15354213417806142
7.416481069042317,0.18992612742860385
7.449888641425391,0.24840116520987285
7.4832962138084635,0.3447662069767243
7.516703786191537,0.4636256142778786
7.550111358574611,0.5600146718018623
7.583518930957685,0.578310205124847
7.616926503340758,0.47977538687218724
7.650334075723832,0.2647750709850806
7.683741648106905,-0.022171625143405874
7.717149220489978,-0.30762636778722735
7.750556792873052,-0.5174809590613345
7.783964365256126,-0.6047654711036734
7.817371937639199,-0.5647624857881206
7.850779510022273,-0.43236718354324843
7.884187082405346,-0.2651707376968072
7.917594654788419,-0.12102301264118019
7.951002227171493,-0.039044189261489545
7.984409799554567,-0.02961304736989704
8.01781737193764,-0.07461186393921543
8.051224944320714,-0.1362092574108705
8.084632516703786,-0.17101372483469976
8.118040089086861,-0.14575728343187208
8.151447661469934,-0.050207667007781405
8.184855233853007,0.09694466185271763
8.218262806236082,0.2521487638422898
8.251670378619155,0.3609559721655128
8.285077951002227,0.3779024785039475
8.318485523385302,0.2851075889852194
8.351893095768375,0.10174916584912187
8.385300668151448,-0.120498625609323
8.418708240534523,-0.3152889972590943
8.452115812917596,-0.4259303317475932
8.485523385300668,-0.4261956089694132
8.518930957683743,-0.3289032436005371
8.552338530066816,-0.17899876890034738
8.585746102449889,-0.03478559949669712
8.619153674832964,0.054102335506764125
8.652561247216036,0.06279553111593147
8.68596881959911,-0.004083366733857346
8.719376391982184,-0.1186785539468632
8.752783964365257,-0.24211124519952695
8.78619153674833,-0.3363838221260366
8.819599109131405,-0.3720059874848614
8.853006681514477,-0.3311574433222782
8.88641425389755,-0.20880831382150308
8.919821826280625,-0.014068847489561297
8.953229398663698,0.22834334684516408
8.98663697104677,0.4790717494639674
9.020044543429846,0.6903471744293609
9.053452115812918,0.8177685664418344
9.086859688195991,0.8341452009832391
9.120267260579066,0.7395015765832048
9.153674832962139,0.5621972471359424
9.187082405345212,0.3499669086910468
9.220489977728286,0.15434779741725796
9.25389755011136,0.014807141608524274
9.287305122494432,-0.05147725637641287
9.320712694877507,-0.051252193768552806
9.35412026726058,-0.00910720099418026
9.387527839643653,0.04281110411067766
9.420935412026727,0.07518803044271026
9.4543429844098,0.06906683994546578
9.487750556792873,0.01934117823199755
9.521158129175948,-0.06554403297496564
9.55456570155902,-0.16691367706625798
9.587973273942094,-0.2615682803479042
9.621380846325168,-0.3292821372436326
9.654788418708241,-0.3607840069209185
9.688195991091314,-0.363533284249558
9.721603563474389,-0.3616814244717131
9.755011135857462,-0.3876293509105986
9.788418708240535,-0.46616731525269944
9.82182628062361,-0.5970664688876172
9.855233853006682,-0.7452929373299072
9.888641425389755,-0.8468185908111383
9.92204899777283,-0.8315126171841088
9.955456570155903,-0.6553466316712118
9.988864142538976,-0.3271432701159914
10.02227171492205,0.0849181928751529
10.055679287305123,0.4735165371811268
10.089086859688196,0.7324866877425171
10.12249443207127,0.7995600524753513
10.155902004454344,0.6814506119198885
10.189309576837417,0.4492334467841193
10.222717149220491,0.20647493033962447
10.256124721603564,0.04574533357648333
10.289532293986637,0.013960313287591586
10.322939866369712,0.10126910985195518
10.356347438752785,0.25557307935264717
10.389755011135858,0.4122702815424095
10.423162583518932,0.5228581200705649
10.456570155902005,0.5689967586961585
10.489977728285078,0.5581111748850671
10.523385300668153,0.5069959417540841
10.556792873051226,0.42556185239595207
10.590200445434299,0.31112878573220687
10.623608017817373,0.15604699119530593
10.657015590200446,-0.03735597698358893
10.69042316258352,-0.24529912978881083
10.723830734966594,-0.42349618899685776
10.757238307349667,-0.5222453884583387
10.790645879732741,-0.5089672310747777
10.824053452115814,-0.3866061232506524
10.857461024498887,-0.1975959031513687
10.890868596881962,-0.009919385410741272
10.924276169265035,0.10929906189462107
10.957683741648108,0.12079342807976941
10.991091314031182,0.028281275057336203
11.024498886414255,-0.12508791710846737
11.057906458797328,-0.276712856415215
11.091314031180403,-0.3709786905056293
11.124721603563476,-0.3797897515643074
11.158129175946549,-0.3088148009935488
11.191536748329623,-0.18893916659996662
11.224944320712696,-0.05966773958573047
11.25835189309577,0.04604031197266883
11.291759465478844,0.10881865359929738
11.325167037861917,0.12119686078953222
11.35857461024499,0.08190035419442546
11.391982182628064,-0.007599298524050331
11.425389755011137,-0.14092414032734457
11.45879732739421,-0.30079093307510685
11.492204899777285,-0.4548736402918264
11.525612472160358,-0.559294757918788
11.55902004454343,-0.5713832353357388
11.592427616926505,-0.4672893477543804
11.625835189309578,-0.25579411715573325
11.659242761692651,0.019858959358152146
11.692650334075726,0.29485147311192444
11.726057906458799,0.5056733594101631
11.759465478841872,0.6130394474771019
11.792873051224946,0.614771394816642
11.82628062360802,0.5434424548380079
11.859688195991092,0.4505860522630208
11.893095768374167,0.3848492732911712
11.92650334075724,0.37329265722772365
11.959910913140313,0.4128429053325848
11.993318485523387,0.4741908680204906
12.02672605790646,0.51545225150546
12.060133630289533,0.49962276424888247
12.093541202672608,0.4091712409702415
12.12694877505568,0.2527614712013782
12.160356347438753,0.06209836439857256
12.193763919821828,-0.11978340841594742
12.227171492204901,-0.25459331066191215
12.260579064587974,-0.3232271326649827
12.293986636971049,-0.33260543928772274
12.327394209354122,-0.3114021088016288
12.360801781737194,-0.2957895337829031
12.39420935412027,-0.3113541911030898
12.427616926503342,-0.3599931140720838
12.461024498886415,-0.41881586420432465
12.49443207126949,-0.4521920117622054
12.527839643652563,-0.4311115603978844
12.561247216035635,-0.3499328132848356
12.59465478841871,-0.23176773329597222
12.628062360801783,-0.11951649743699716
12.661469933184856,-0.05672665794033739
12.69487750556793,-0.06735037524106183
12.728285077951004,-0.1439000027676638
12.761692650334076,-0.24952143827408596
12.795100222717151,-0.33309134042310623
12.828507795100224,-0.35049845090068704
12.861915367483297,-0.2824489951346079
12.895322939866372,-0.1407840191646577
12.928730512249444,0.039225818602860264
12.962138084632517,0.21634531957972375
12.995545657015592,0.3615688987007058
13.028953229398665,0.467818680991601
13.062360801781738,0.5465780060079647
13.095768374164813,0.6140367642010499
13.129175946547885,0.6751004369389159
13.162583518930958,0.7148109405270782
13.195991091314033,0.7026564969964011
13.229398663697106,0.6081570832228517
13.262806236080179,0.41986764202209953
13.296213808463254,0.15782441721699464
13.329621380846326,-0.12756805726456094
13.3630289532294,-0.37082360491751404
13.396436525612474,-0.514850616268211
13.429844097995547,-0.532850708485893
13.46325167037862,-0.4394029670104674
13.496659242761694,-0.2858879504260446
13.530066815144767,-0.14170330387279567
13.56347438752784,-0.06837362282993376
13.596881959910915,-0.09646792979118865
13.630289532293988,-0.2141545877995305
13.66369710467706,-0.37172318143937944
13.697104677060135,-0.500303079469267
13.730512249443208,-0.5377026192494465
13.763919821826281,-0.45176043274536815
13.797327394209356,-0.25266788731058054
13.830734966592429,0.01013079386850079
13.864142538975502,0.26517853381907874
13.897550111358576,0.44391455302772853
13.93095768374165,0.5039548563316056
13.964365256124722,0.4421403899689351
13.997772828507797,0.2928818901659777
14.03118040089087,0.11333138891624789
14.064587973273943,-0.037848372721654366
14.097995545657017,-0.11932797079276239
14.13140311804009,-0.11685923870534763
14.164810690423163,-0.04206440338918165
14.198218262806238,0.07672475748212293
14.23162583518931,0.2061262440626821
14.265033407572384,0.3171347493693681
14.298440979955458,0.3902727347271572
14.331848552338531,0.4169956139369576
14.365256124721604,0.39886808657437756
14.398663697104679,0.3454481593606217
14.432071269487752,0.27087894449729355
14.465478841870825,0.18914045905091398
14.4988864142539,0.10895966867955473
14.532293986636972,0.03054024945076803
14.565701559020045,-0.05374194387845394
14.59910913140312,-0.15420481548387613
14.632516703786193,-0.27632126308072746
14.665924276169266,-0.4145546701524849
14.69933184855234,-0.5510798681423944
14.732739420935413,-0.660588284231214
14.766146993318486,-0.7192535356511633
14.79955456570156,-0.7137372006563345
14.832962138084634,-0.6460368510385343
14.866369710467707,-0.532009867877751
14.899777282850781,-0.39442359532247095
14.933184855233854,-0.2538550851846919
14.966592427616927,-0.12158236949532372
15.0,0.0024623261986194797
