Time (s),Filtered Signal
0.0,0.03637772566922109
0.03337028824833703,-0.594256054396307
0.06674057649667406,-1.040018863314298
0.10011086474501109,-1.1749109181935418
0.13348115299334812,-0.9698265188064247
0.16685144124168516,-0.49574001629983894
0.20022172949002218,0.10717320873408828
0.2335920177383592,0.6810857034039881
0.26696230598669624,1.1023134024498948
0.3003325942350333,1.3145705137582935
0.3337028824833703,1.3339596049952154
0.3670731707317073,1.2279528308191434
0.40044345898004435,1.0801586416862259
0.4338137472283814,0.9561814562956791
0.4671840354767184,0.8829174675410865
0.5005543237250555,0.8464956847210918
0.5339246119733925,0.8062972529797388
0.5672949002217295,0.7170965904374643
0.6006651884700666,0.5498260767609493
0.6340354767184035,0.3035386271448642
0.6674057649667406,0.005441718326880122
0.7007760532150776,-0.2994198060310547
0.7341463414634146,-0.5638022863301914
0.7675166297117517,-0.7530286618188499
0.8008869179600887,-0.8539160986463197
0.8342572062084257,-0.875691600009478
0.8676274944567628,-0.8437437076116626
0.9009977827050998,-0.7891954260933488
0.9343680709534368,-0.7380929946734969
0.9677383592017739,-0.7036392944063877
1.001108647450111,-0.6837075110974655
1.0344789356984478,-0.664143277661456
1.067849223946785,-0.6264268179259735
1.101219512195122,-0.5566641607817072
1.134589800443459,-0.45229957617914024
1.167960088691796,-0.32382739322643306
1.2013303769401331,-0.19089887826434287
1.23470066518847,-0.07464655537175588
1.268070953436807,0.0103678667115715
1.3014412416851442,0.061179739317188904
1.3348115299334813,0.08654964213374593
1.3681818181818182,0.1025618783234127
1.4015521064301553,0.12589716070071838
1.4349223946784924,0.1676049318950306
1.4682926829268292,0.2295222317180575
1.5016629711751663,0.3041008905415432
1.5350332594235034,0.377123789450334
1.5684035476718403,0.4321131737905513
1.6017738359201774,0.45514141514365425
1.6351441241685145,0.4389281117259891
1.6685144124168514,0.38530518855421286
1.7018847006651885,0.3053689816010694
1.7352549889135256,0.21705925401886167
1.7686252771618625,0.1405552707162815
1.8019955654101996,0.0926170481678591
1.8353658536585367,0.08155830151733537
1.8687361419068735,0.10462015221536108
1.9021064301552106,0.14891411209679462
1.9354767184035477,0.1958733960434602
1.9688470066518848,0.2277249359949131
2.002217294900222,0.23354526807567993
2.035587583148559,0.21252675406744684
2.0689578713968957,0.17319902179979582
2.102328159645233,0.12903343455534813
2.13569844789357,0.0923587089379311
2.1690687361419068,0.06919648853942811
2.202439024390244,0.05720643071375263
2.235809312638581,0.047561949710712176
2.269179600886918,0.02978839742649587
2.302549889135255,-0.002857364239858376
2.335920177383592,-0.05026553545500186
2.369290465631929,-0.10634080422561139
2.4026607538802662,-0.16339908808318113
2.436031042128603,-0.2174155248480238
2.46940133037694,-0.2706076241684499
2.5027716186252773,-0.3292063628641397
2.536141906873614,-0.3973100952661164
2.569512195121951,-0.4705973218906862
2.6028824833702884,-0.5343553898765895
2.6362527716186253,-0.5679914142978211
2.6696230598669626,-0.5541712963699984
2.7029933481152995,-0.4875770184879278
2.7363636363636363,-0.37819567340293697
2.7697339246119737,-0.2472749220296235
2.8031042128603105,-0.1185305790169578
2.8364745011086474,-0.009869042301418567
2.8698447893569847,0.0700307328792606
2.9032150776053216,0.11971493963493038
2.9365853658536585,0.14080063651487107
2.969955654101996,0.13595667275169385
3.0033259423503327,0.1107955342082247
3.0366962305986696,0.07742748312484303
3.070066518847007,0.05514815842939752
3.1034368070953438,0.06520097193761809
3.1368070953436806,0.1209497930752512
3.170177383592018,0.21898132346330085
3.203547671840355,0.33741997823277187
3.2369179600886917,0.4441077068248773
3.270288248337029,0.5113183905710317
3.303658536585366,0.529134788245381
3.337028824833703,0.5096093893852998
3.37039911308204,0.47870299374837916
3.403769401330377,0.4600175442872958
3.437139689578714,0.4593454885152158
3.470509977827051,0.4589959195752404
3.503880266075388,0.4256432452217678
3.537250554323725,0.32798633301059715
3.5706208425720622,0.15498677868740204
3.603991130820399,-0.07505752227372439
3.637361419068736,-0.3195870866626799
3.6707317073170733,-0.5285822925403639
3.70410199556541,-0.66463166914901
3.737472283813747,-0.7163089078594925
3.7708425720620844,-0.698609229789028
3.8042128603104213,-0.6410318987364169
3.8375831485587586,-0.5702294622140025
3.8709534368070955,-0.4967026860897077
3.9043237250554323,-0.4125363198819032
3.9376940133037697,-0.30100743025206994
3.9710643015521065,-0.1523437838668289
4.004434589800444,0.023536418572414695
4.037804878048781,0.19496688803343198
4.071175166297118,0.3191777753591238
4.1045454545454545,0.3609023876442689
4.137915742793791,0.3098915514974717
4.171286031042128,0.188585422544984
4.204656319290466,0.04581793063598698
4.238026607538803,-0.061065454629570394
4.27139689578714,-0.08808139351903835
4.304767184035477,-0.02126611329572996
4.3381374722838135,0.1185984523316566
4.371507760532151,0.28463365089866094
4.404878048780488,0.42171840039800396
4.438248337028825,0.4858827329026991
4.471618625277162,0.4576250437363849
4.504988913525499,0.34490350492558103
4.538359201773836,0.17643982487324528
4.571729490022173,-0.010102566849484108
4.60509977827051,-0.1794190871694841
4.638470066518847,-0.3056539659855675
4.671840354767184,-0.374984920208926
4.705210643015521,-0.38584287870877026
4.738580931263858,-0.348817145540149
4.771951219512196,-0.2860859527298809
4.8053215077605325,-0.2280188847134493
4.838691796008869,-0.20472209904189917
4.872062084257206,-0.23336303934609046
4.905432372505543,-0.3063269875122716
4.93880266075388,-0.38745685106456634
4.972172949002218,-0.4214767868379858
5.005543237250555,-0.35553954677675526
5.0389135254988915,-0.1647905982374488
5.072283813747228,0.12996538311765837
5.105654101995565,0.4623650328247474
5.139024390243902,0.7408367405690685
5.17239467849224,0.8823458890579797
5.205764966740577,0.8458572824953144
5.239135254988914,0.6508745771877281
5.2725055432372505,0.3720400744974587
5.305875831485587,0.11079383094477556
5.339246119733925,-0.044754985727472225
5.372616407982262,-0.054881267041542635
5.405986696230599,0.05703606951747178
5.439356984478936,0.21678752086471834
5.472727272727273,0.3333064633937866
5.5060975609756095,0.3391922349249714
5.539467849223947,0.21961114564434076
5.572838137472284,0.01685114043834474
5.606208425720621,-0.1907642979000543
5.639578713968958,-0.32502901686397556
5.672949002217295,-0.3420167462800729
5.706319290465632,-0.24913671164532317
5.7396895787139695,-0.09898515130820669
5.773059866962306,0.03491429238643666
5.806430155210643,0.08775879444993682
5.83980044345898,0.025186347458984615
5.873170731707317,-0.15030476621238895
5.906541019955654,-0.4070443033884595
5.939911308203992,-0.698520046876904
5.9732815964523285,-0.975962217196596
6.006651884700665,-1.1948426541294515
6.040022172949002,-1.3166608314789436
6.073392461197339,-1.310772102361997
6.106762749445676,-1.1599448883466548
6.140133037694014,-0.8688637159868121
6.173503325942351,-0.47035971560429574
6.2068736141906875,-0.023182257377634158
6.240243902439024,0.401311803121861
6.273614190687361,0.7400992969564791
6.306984478935698,0.958735783225897
6.340354767184036,1.0618787133517578
6.373725055432373,1.0889898910246243
6.40709534368071,1.0965497915614821
6.4404656319290465,1.1338313270033284
6.473835920177383,1.2217867670244564
6.507206208425721,1.343174936931161
6.540576496674058,1.4476461913385816
6.573946784922395,1.4699536551919485
6.607317073170732,1.3547103547555912
6.640687361419069,1.0786998248436883
6.674057649667406,0.6625025124010219
6.707427937915743,0.1669696968835389
6.74079822616408,-0.32440802823857495
6.774168514412417,-0.7310016950474107
6.807538802660754,-0.9993518616186069
6.840909090909091,-1.1178028902069803
6.874279379157428,-1.1165924414721122
6.9076496674057655,-1.0537009081505633
6.941019955654102,-0.9917231746141865
6.974390243902439,-0.9742289934726351
7.007760532150776,-1.0104586767380015
7.041130820399113,-1.0743385345092973
7.07450110864745,-1.1183073918290218
7.107871396895788,-1.0962097061409712
7.1412416851441245,-0.9852345516103782
7.174611973392461,-0.7968331462714563
7.207982261640798,-0.5712210980476836
7.241352549889135,-0.3576413037316944
7.274722838137472,-0.18958402929211662
7.30809312638581,-0.06716270664139623
7.341463414634147,0.04394103618720282
7.3748337028824835,0.1951721565038149
7.40820399113082,0.42668898911676895
7.441574279379157,0.741187886509963
7.474944567627494,1.0932503445289723
7.508314855875832,1.4009209333596093
7.541685144124169,1.5759701902133545
7.575055432372506,1.5601620716934108
7.6084257206208425,1.3513048514787755
7.641796008869179,1.0068558301233081
7.675166297117517,0.6227451221770286
7.708536585365854,0.296355564703669
7.741906873614191,0.08989960188299106
7.775277161862528,0.01017324402340948
7.808647450110865,0.012856377572633828
7.842017738359202,0.027959970380839135
7.875388026607539,-0.0065375173528268785
7.908758314855876,-0.11862557468288384
7.942128603104213,-0.2944652318479756
7.97549889135255,-0.48976570479538256
8.008869179600888,-0.6522307190440858
8.042239467849225,-0.7433191433367765
8.075609756097561,-0.7503152085281932
8.108980044345898,-0.6861808382284831
8.142350332594235,-0.580626188858281
8.175720620842572,-0.4683019309025552
8.209090909090909,-0.37878679465691517
8.242461197339246,-0.3301484643467675
8.275831485587583,-0.3257065494187313
8.30920177383592,-0.35332848545356427
8.342572062084257,-0.38749479067595477
8.375942350332595,-0.39494175145504995
8.409312638580932,-0.3438747662529755
8.442682926829269,-0.21481396046476542
8.476053215077606,-0.009421049889276124
8.509423503325943,0.24649218091914257
8.54279379157428,0.5077959958893449
8.576164079822616,0.721848169984722
8.609534368070953,0.8437523846203168
8.64290465631929,0.8501700086922145
8.676274944567627,0.7470340726884729
8.709645232815964,0.5682434773424824
8.743015521064303,0.3652421958985183
8.77638580931264,0.19064260322014212
8.809756097560976,0.08161398208201627
8.843126385809313,0.049302463587600584
8.87649667405765,0.0783396089151828
8.909866962305987,0.13616629942186362
8.943237250554324,0.18746066574361925
8.97660753880266,0.20680037211058586
9.009977827050998,0.18410336298882327
9.043348115299334,0.1216488466168034
9.076718403547671,0.026152526934483916
9.110088691796008,-0.09823909340229564
9.143458980044347,-0.2513805816114534
9.176829268292684,-0.43228575053671353
9.21019955654102,-0.6315323110957732
9.243569844789358,-0.8263662733756121
9.276940133037694,-0.9825412912311925
9.310310421286031,-1.0631532932119305
9.343680709534368,-1.0409036955349131
9.377050997782705,-0.90845818896606
9.410421286031042,-0.6825613287522672
9.443791574279379,-0.40041250668371314
9.477161862527716,-0.10981383169174215
9.510532150776053,0.14356848427146227
9.543902439024391,0.32814793794977243
9.577272727272728,0.43451600137468954
9.610643015521065,0.4775952343327914
9.644013303769402,0.49183532202660096
9.677383592017739,0.519936397969675
9.710753880266076,0.5976405792176557
9.744124168514412,0.7391959823862795
9.77749445676275,0.9289576709225503
9.810864745011086,1.1231859545226186
9.844235033259423,1.2624849243064162
9.87760532150776,1.2909395837682431
9.910975609756099,1.1749842124653114
9.944345898004435,0.9149377767521863
9.977716186252772,0.5450885641327606
10.01108647450111,0.12282698152904153
10.044456762749446,-0.2884959977648288
10.077827050997783,-0.6363625576120014
10.11119733924612,-0.8898619225134913
10.144567627494457,-1.041913513369386
10.177937915742794,-1.104116327537882
10.21130820399113,-1.097979785602547
10.244678492239467,-1.0467526121140756
10.278048780487804,-0.9705018811062786
10.311419068736143,-0.8845570042799399
10.34478935698448,-0.7994150370793144
10.378159645232817,-0.7198770128132429
10.411529933481154,-0.642724060004511
10.44490022172949,-0.55461976446935
10.478270509977827,-0.43341580279195174
10.511640798226164,-0.2552447911314969
10.545011086474501,-0.006635908822864999
10.578381374722838,0.303044193357314
10.611751662971175,0.6357299750147621
10.645121951219512,0.9307851240300608
10.67849223946785,1.1233161224269268
10.711862527716187,1.1682856757322033
10.745232815964524,1.0597515697463844
10.778603104212861,0.8354537014702722
10.811973392461198,0.5632839809370364
10.845343680709535,0.31497033188312706
10.878713968957872,0.1389046480191492
10.912084257206208,0.04467116527426661
10.945454545454545,0.005960623453636762
10.978824833702882,-0.020651472409246877
11.012195121951219,-0.0711443317394108
11.045565410199556,-0.1558551980349116
11.078935698447895,-0.25573468136104127
11.112305986696231,-0.33356946374035684
11.145676274944568,-0.3536568166918587
11.179046563192905,-0.3001650292068139
11.212416851441242,-0.18592111862681004
11.245787139689579,-0.04829380503088536
11.279157427937916,0.06541476113197356
11.312527716186253,0.1165601602826966
11.34589800443459,0.09012085904559429
11.379268292682926,0.00028528110688015183
11.412638580931263,-0.11532498850044154
11.4460088691796,-0.21054667998638307
11.479379157427939,-0.24906403900332547
11.512749445676276,-0.2191886064400957
11.546119733924613,-0.13891846234993885
11.57949002217295,-0.048652696938309634
11.612860310421286,0.00603390619593466
11.646230598669623,-0.005451891745464966
11.67960088691796,-0.0845126466380866
11.712971175166297,-0.20176901953878998
11.746341463414634,-0.30912040834403426
11.77971175166297,-0.3600556211390001
11.813082039911308,-0.3288720273151712
11.846452328159646,-0.22012733258127465
11.879822616407983,-0.06457748980303278
11.91319290465632,0.09558050223831006
11.946563192904657,0.22454157162774183
11.979933481152994,0.30542971306017275
12.01330376940133,0.3425079498042659
12.046674057649668,0.3534517406358089
12.080044345898004,0.3567333521257968
12.113414634146341,0.3608746490711889
12.146784922394678,0.3605820260371288
12.180155210643015,0.3408238295992989
12.213525498891352,0.28594071417921535
12.24689578713969,0.18884300681479513
12.280266075388028,0.05599451000366224
12.313636363636364,-0.09351418400204145
12.347006651884701,-0.233596436563331
12.380376940133038,-0.3386368431582192
12.413747228381375,-0.3900122046836102
12.447117516629712,-0.3800421304840607
12.480487804878049,-0.3128878549662173
12.513858093126386,-0.20251856179212646
12.547228381374723,-0.06825951862282635
12.58059866962306,0.07082966135063234
12.613968957871396,0.2005697854045485
12.647339246119735,0.3129329107182466
12.680709534368072,0.40310546445307976
12.714079822616409,0.4642111240074782
12.747450110864746,0.4837658343120745
12.780820399113082,0.44564451786572734
12.81419068736142,0.3381132989625815
12.847560975609756,0.16412632435825003
12.880931263858093,-0.05244644760641628
12.91430155210643,-0.26972561937057865
12.947671840354767,-0.44032306446861824
12.981042128603104,-0.5285802619394544
13.014412416851442,-0.5247203061895355
13.04778270509978,-0.44911570288366837
13.081152993348116,-0.3443096864478697
13.114523281596453,-0.2579888422631953
13.14789356984479,-0.22411692823748244
13.181263858093127,-0.25013447174322523
13.214634146341464,-0.3153399799099266
13.2480044345898,-0.3806727662247093
13.281374722838137,-0.40533832747069043
13.314745011086474,-0.36312141476903975
13.348115299334811,-0.251835300298407
13.381485587583148,-0.09271380486323196
13.414855875831487,0.07899255399039243
13.448226164079824,0.22747219276626054
13.48159645232816,0.32808809867760025
13.514966740576497,0.37325277598632584
13.548337028824834,0.3714944103487394
13.581707317073171,0.341770963505771
13.615077605321508,0.3064541835206783
13.648447893569845,0.28572420771190205
13.681818181818182,0.29418353859386087
13.715188470066519,0.33878440011806643
13.748558758314855,0.41685840317658074
13.781929046563192,0.5142632747957386
13.815299334811531,0.6053534177541599
13.848669623059868,0.6570796302379667
13.882039911308205,0.6380730999838257
13.915410199556542,0.530529050813992
13.948780487804878,0.3398844887295776
13.982150776053215,0.09680593879380518
14.015521064301552,-0.15115270848732373
14.048891352549889,-0.3557922120058153
14.082261640798226,-0.48548282531384385
14.115631929046563,-0.5353369395453893
14.1490022172949,-0.5256036438313362
14.182372505543238,-0.48950266151698607
14.215742793791575,-0.45698997063035884
14.249113082039912,-0.44260474105738923
14.282483370288249,-0.4428089042809429
14.315853658536586,-0.44283376976360034
14.349223946784923,-0.42810984483570996
14.38259423503326,-0.39352515264101107
14.415964523281596,-0.345752757748135
14.449334811529933,-0.29823257359946825
14.48270509977827,-0.2624332894156029
14.516075388026607,-0.24056963784581006
14.549445676274944,-0.22351132141328778
14.582815964523283,-0.1944621289490547
14.61618625277162,-0.13612746382794177
14.649556541019956,-0.037959518101367135
14.682926829268293,0.0992066714999105
14.71629711751663,0.26218296056890006
14.749667405764967,0.4277959524084354
14.783037694013304,0.5677002798038439
14.81640798226164,0.654782932390527
14.849778270509978,0.6703124479597528
14.883148558758315,0.610522345143853
14.916518847006651,0.4905494931200841
14.949889135254988,0.343311920069869
14.983259423503327,0.2118108168187783
15.016629711751664,0.13568699565786632
15.05,0.1358857419238229
15.083370288248338,0.2034596594093712
15.116740576496674,0.2983532357225736
15.150110864745011,0.3608813646388435
15.183481152993348,0.3334118152101307
15.216851441241685,0.18463334938900228
15.250221729490022,-0.07372177239907818
15.283592017738359,-0.38600345846308776
15.316962305986696,-0.6698752754495167
15.350332594235034,-0.845944249417086
15.383702882483371,-0.8678899162858237
15.417073170731708,-0.740113740655707
15.450443458980045,-0.5150105362732558
15.483813747228382,-0.2710522208500076
15.517184035476719,-0.08152365399961833
15.550554323725056,0.012397973867350445
15.583924611973393,0.013279923709694117
15.61729490022173,-0.03953508369561737
15.650665188470066,-0.09048846780419
15.684035476718403,-0.09194924761355194
15.71740576496674,-0.022053437894943254
15.750776053215079,0.10950390458690981
15.784146341463416,0.2680022030289469
15.817516629711752,0.4085154920227772
15.85088691796009,0.4929296515974484
15.884257206208426,0.5031726851819543
15.917627494456763,0.4463633402389871
15.9509977827051,0.3503459177964671
15.984368070953437,0.25138934232533866
16.017738359201775,0.1788232140357565
16.05110864745011,0.14286937928979634
16.08447893569845,0.1309440266268982
16.117849223946784,0.11429085908411381
16.151219512195123,0.062301418828845934
16.184589800443458,-0.041633516848965296
16.217960088691797,-0.18972921868902942
16.251330376940132,-0.3496334565085522
16.28470066518847,-0.47500484872172444
16.31807095343681,-0.5229534802155912
16.351441241685144,-0.47159642405825336
16.384811529933483,-0.33073605230329617
16.418181818181818,-0.14110787351779824
16.451552106430157,0.038126564784262656
16.48492239467849,0.14950557980522636
16.51829268292683,0.15784877783823242
16.551662971175165,0.06367670833113984
16.585033259423504,-0.09582602353937471
16.61840354767184,-0.25924835188658435
16.651773835920178,-0.3627786042513825
16.685144124168513,-0.363572972596998
16.71851441241685,-0.25570711153996
16.75188470066519,-0.07218606104858084
16.785254988913525,0.12811854804208095
16.818625277161864,0.2834913697178834
16.8519955654102,0.3529413911833278
16.885365853658538,0.3306043610534995
16.918736141906873,0.24522538535452193
16.95210643015521,0.14546233811300555
16.985476718403547,0.0778996887324203
17.018847006651885,0.06768886958992351
17.05221729490022,0.11021860847960334
17.08558758314856,0.17684923051865903
17.118957871396898,0.23109862525709396
17.152328159645233,0.24698801725762404
17.18569844789357,0.220751791843793
17.219068736141907,0.17081529449824037
17.252439024390245,0.12680563230078962
17.28580931263858,0.11346908729908026
17.31917960088692,0.13741335599753357
17.352549889135254,0.18285057257242196
