Time (s),Filtered Signal
0.0,0.046198917324163376
0.03337028824833703,-0.2301872760980382
0.06674057649667406,-0.45704405752209926
0.10011086474501109,-0.595342511813748
0.13348115299334812,-0.6244449394755647
0.16685144124168516,-0.5436517037711861
0.20022172949002218,-0.3692948907818344
0.2335920177383592,-0.13020277254549079
0.26696230598669624,0.1362238449041865
0.3003325942350333,0.3871904903161527
0.3337028824833703,0.5786714664010693
0.3670731707317073,0.672340531543694
0.40044345898004435,0.6450704212270222
0.4338137472283814,0.4980335767284636
0.4671840354767184,0.2608048257262241
0.5005543237250555,-0.013270816217477818
0.5339246119733925,-0.2608800417654161
0.5672949002217295,-0.4278769635946166
0.6006651884700666,-0.4867945671252494
0.6340354767184035,-0.4454973069515009
0.6674057649667406,-0.3427680026988594
0.7007760532150776,-0.23191393862447207
0.7341463414634146,-0.15883234448982309
0.7675166297117517,-0.14387515582603963
0.8008869179600887,-0.1755973272759024
0.8342572062084257,-0.21919650036421187
0.8676274944567628,-0.23541928797816067
0.9009977827050998,-0.2004573146258976
0.9343680709534368,-0.11686034693342351
0.9677383592017739,-0.010312329176723886
1.001108647450111,0.08524313995389785
1.0344789356984478,0.1454700641875962
1.067849223946785,0.16668308278998772
1.101219512195122,0.1646607770911568
1.134589800443459,0.16301821833458796
1.167960088691796,0.17858681810031157
1.2013303769401331,0.2122523962812474
1.23470066518847,0.24989924923571336
1.268070953436807,0.2720907563989992
1.3014412416851442,0.26640229977956786
1.3348115299334813,0.23529025116838162
1.3681818181818182,0.19518669736576916
1.4015521064301553,0.16735456384977168
1.4349223946784924,0.1653542803636889
1.4682926829268292,0.18573005854459368
1.5016629711751663,0.20703783796593084
1.5350332594235034,0.19839152913834396
1.5684035476718403,0.1341068922243765
1.6017738359201774,0.007847999371219657
1.6351441241685145,-0.16056161549337972
1.6685144124168514,-0.32954393865205917
1.7018847006651885,-0.45031706159645307
1.7352549889135256,-0.48581625805054296
1.7686252771618625,-0.42598978038858
1.8019955654101996,-0.2928328615789848
1.8353658536585367,-0.13284696282380878
1.8687361419068735,9.333594798181794e-05
1.9021064301552106,0.06457244460094343
1.9354767184035477,0.04635802964127809
1.9688470066518848,-0.03749119498735518
2.002217294900222,-0.14627966784090637
2.035587583148559,-0.2316911300457374
2.0689578713968957,-0.2558018251455199
2.102328159645233,-0.20431700186503646
2.13569844789357,-0.09035959544196158
2.1690687361419068,0.052137996978917855
2.202439024390244,0.18241901067787644
2.235809312638581,0.26847509962715604
2.269179600886918,0.2979335794323082
2.302549889135255,0.2800618723624379
2.335920177383592,0.23854428586870952
2.369290465631929,0.1986946166099129
2.4026607538802662,0.17516198082331508
2.436031042128603,0.16585015062291264
2.46940133037694,0.15477105653159084
2.5027716186252773,0.12220074505618407
2.536141906873614,0.056867308127524364
2.569512195121951,-0.036153263465955134
2.6028824833702884,-0.13598115877626205
2.6362527716186253,-0.21472021370563601
2.6696230598669626,-0.2500570684632743
2.7029933481152995,-0.23536037573638602
2.7363636363636363,-0.1823954478409629
2.7697339246119737,-0.11564636468301537
2.8031042128603105,-0.061419922064991146
2.8364745011086474,-0.0371890442792982
2.8698447893569847,-0.045962573944990606
2.9032150776053216,-0.077460171057523
2.9365853658536585,-0.11436760903037471
2.969955654101996,-0.13987790366545658
3.0033259423503327,-0.14297184082808945
3.0366962305986696,-0.11988798784096447
3.070066518847007,-0.07250018165901691
3.1034368070953438,-0.005545103275673704
3.1368070953436806,0.07553102311063264
3.170177383592018,0.1653243793384888
3.203547671840355,0.2580030051851849
3.2369179600886917,0.34629911375206773
3.270288248337029,0.4207775566489203
3.303658536585366,0.4701403641109057
3.337028824833703,0.48307643720237503
3.37039911308204,0.45155874998344875
3.403769401330377,0.37457557174715955
3.437139689578714,0.2605163933290955
3.470509977827051,0.1264696961124256
3.503880266075388,-0.006159949976227463
3.537250554323725,-0.1184710777564443
3.5706208425720622,-0.20057379804085912
3.603991130820399,-0.2548323869471759
3.637361419068736,-0.29419964866937987
3.6707317073170733,-0.33615543545536186
3.70410199556541,-0.3946210731134644
3.737472283813747,-0.47291780811065864
3.7708425720620844,-0.5602619327581573
3.8042128603104213,-0.6330079871008084
3.8375831485587586,-0.6605456551492895
3.8709534368070955,-0.6146845593956148
3.9043237250554323,-0.4803513408604098
3.9376940133037697,-0.2644005848177536
3.9710643015521065,0.0011847908256294106
4.004434589800444,0.2645514099174049
4.037804878048781,0.46780352828704747
4.071175166297118,0.565669267856536
4.1045454545454545,0.5421762980606798
4.137915742793791,0.4180968548065841
4.171286031042128,0.24497076508807566
4.204656319290466,0.08700706647369386
4.238026607538803,-0.0023423833171302357
4.27139689578714,0.000443294524518177
4.304767184035477,0.08210760328968968
4.3381374722838135,0.20082896744193243
4.371507760532151,0.3054756000188106
4.404878048780488,0.35701259585198547
4.438248337028825,0.342596623015456
4.471618625277162,0.2768587185410743
4.504988913525499,0.1912552783370242
4.538359201773836,0.11782228481570824
4.571729490022173,0.07549254598669917
4.60509977827051,0.06472414066329027
4.638470066518847,0.07125424817681017
4.671840354767184,0.07524482047749773
4.705210643015521,0.060284300429998355
4.738580931263858,0.01817689180116625
4.771951219512196,-0.0512105397639926
4.8053215077605325,-0.14282352778392135
4.838691796008869,-0.24890847818393164
4.872062084257206,-0.35936422003853635
4.905432372505543,-0.46060753804077276
4.93880266075388,-0.535333875417106
4.972172949002218,-0.5654191758011685
5.005543237250555,-0.5381815772552526
5.0389135254988915,-0.453473737058069
5.072283813747228,-0.3273897983031513
5.105654101995565,-0.1891371794036643
5.139024390243902,-0.07089009591671938
5.17239467849224,0.005387180134565316
5.205764966740577,0.03759848969649422
5.239135254988914,0.04409114068665909
5.2725055432372505,0.054071434692846115
5.305875831485587,0.09244991875945302
5.339246119733925,0.16715485407741518
5.372616407982262,0.265833829270719
5.405986696230599,0.36355092407596207
5.439356984478936,0.4366715091478876
5.472727272727273,0.47456235429307875
5.5060975609756095,0.48229032544624056
5.539467849223947,0.47324701994307894
5.572838137472284,0.4569852995759715
5.606208425720621,0.4305625952989368
5.639578713968958,0.3794560499844989
5.672949002217295,0.28798079377517927
5.706319290465632,0.1528513799664553
5.7396895787139695,-0.009012784988721868
5.773059866962306,-0.16440898462138318
5.806430155210643,-0.27863315794425436
5.83980044345898,-0.33348437778569306
5.873170731707317,-0.3382286701958003
5.906541019955654,-0.3265393095613619
5.939911308203992,-0.33994643017044435
5.9732815964523285,-0.40587598325862656
6.006651884700665,-0.5216272336368294
6.040022172949002,-0.6527503227493722
6.073392461197339,-0.7468829045620237
6.106762749445676,-0.7563159498088926
6.140133037694014,-0.6585229563669255
6.173503325942351,-0.46542262336734463
6.2068736141906875,-0.21796169653713224
6.240243902439024,0.030626706433397457
6.273614190687361,0.23511106426197143
6.306984478935698,0.3738032291939019
6.340354767184036,0.4538843624114534
6.373725055432373,0.5053622639011169
6.40709534368071,0.5664841129417808
6.4404656319290465,0.6660161458254352
6.473835920177383,0.8086935208279322
6.507206208425721,0.9693135904067115
6.540576496674058,1.0984061671975165
6.573946784922395,1.138474857472689
6.607317073170732,1.0455121255990396
6.640687361419069,0.8076254996255875
6.674057649667406,0.4528968995647884
6.707427937915743,0.042522848236136675
6.74079822616408,-0.3485768771300406
6.774168514412417,-0.6559986805345562
6.807538802660754,-0.8451720866421436
6.840909090909091,-0.9183665844433233
6.874279379157428,-0.9075955478289579
6.9076496674057655,-0.8576243139096414
6.941019955654102,-0.8069265549577961
6.974390243902439,-0.7743475714480237
7.007760532150776,-0.7559162453952988
7.041130820399113,-0.7315360036363324
7.07450110864745,-0.6773569038768776
7.107871396895788,-0.5780176741724848
7.1412416851441245,-0.43394850532146184
7.174611973392461,-0.2616387166398648
7.207982261640798,-0.08770757534325035
7.241352549889135,0.060442370653418384
7.274722838137472,0.16403709290406138
7.30809312638581,0.2194789965494554
7.341463414634147,0.23998317645272282
7.3748337028824835,0.25139881635165784
7.40820399113082,0.28286156829457815
7.441574279379157,0.35487546403908105
7.474944567627494,0.469178323686364
7.508314855875832,0.6051750254008028
7.541685144124169,0.7258828479829164
7.575055432372506,0.7923614395218569
7.6084257206208425,0.7811002634572116
7.641796008869179,0.6962703923509491
7.675166297117517,0.5700421879376748
7.708536585365854,0.44935459896512925
7.741906873614191,0.3743267973996387
7.775277161862528,0.3583572327368708
7.808647450110865,0.3799533881718545
7.842017738359202,0.3910522819707542
7.875388026607539,0.33855194856292653
7.908758314855876,0.1891556116655589
7.942128603104213,-0.0540699967940048
7.97549889135255,-0.35094035326224776
8.008869179600888,-0.6390676034632103
8.042239467849225,-0.8570911975141318
8.075609756097561,-0.9656938377420173
8.108980044345898,-0.9580096271101276
8.142350332594235,-0.856867589489915
8.175720620842572,-0.7024315380779645
8.209090909090909,-0.5370576123279409
8.242461197339246,-0.39348980602505595
8.275831485587583,-0.2891491981143258
8.30920177383592,-0.22579803022463932
8.342572062084257,-0.19229236325684537
8.375942350332595,-0.16874415449815178
8.409312638580932,-0.1318385521494135
8.442682926829269,-0.06158158483869793
8.476053215077606,0.05127081349904256
8.509423503325943,0.19954465056007523
8.54279379157428,0.35888835537962
8.576164079822616,0.49373026213686405
8.609534368070953,0.5687943584590898
8.64290465631929,0.5620608682256186
8.676274944567627,0.47387340974895753
8.709645232815964,0.32823357286040594
8.743015521064303,0.1655256565070632
8.77638580931264,0.029374735970953306
8.809756097560976,-0.0475153860548906
8.843126385809313,-0.053600036388172276
8.87649667405765,-0.0015129805466937382
8.909866962305987,0.07691684675925442
8.943237250554324,0.14194952339259626
8.97660753880266,0.15994077011867944
9.009977827050998,0.11556439942922743
9.043348115299334,0.018010653198019574
9.076718403547671,-0.10147600736035842
9.110088691796008,-0.20058696775318316
9.143458980044347,-0.24210156833354327
9.176829268292684,-0.20933034034050593
9.21019955654102,-0.11446293105555384
9.243569844789358,0.004413789769136804
9.276940133037694,0.09748925765406741
9.310310421286031,0.12350800998033284
9.343680709534368,0.06781124249633526
9.377050997782705,-0.04995283009891011
9.410421286031042,-0.1824880770506811
9.443791574279379,-0.27364834635037755
9.477161862527716,-0.2815300591224242
9.510532150776053,-0.1958132998202451
9.543902439024391,-0.0417200018015941
9.577272727272728,0.13104834727931639
9.610643015521065,0.2692781149626976
9.644013303769402,0.33769137251962106
9.677383592017739,0.33156395954993434
9.710753880266076,0.2755380915705206
9.744124168514412,0.2100050469886708
9.77749445676275,0.17178391666769768
9.810864745011086,0.17783737438467845
9.844235033259423,0.2188132983550001
9.87760532150776,0.2644663748577244
9.910975609756099,0.27778049065467036
9.944345898004435,0.23116225331364093
9.977716186252772,0.11773240625265734
10.01108647450111,-0.046582211155259866
10.044456762749446,-0.23012839016622938
10.077827050997783,-0.39781160472524707
10.11119733924612,-0.522852314819014
10.144567627494457,-0.5933434615293793
10.177937915742794,-0.612027889475866
10.21130820399113,-0.5910356616394705
10.244678492239467,-0.5451593443706889
10.278048780487804,-0.4869119200508098
10.311419068736143,-0.4246970439171139
10.34478935698448,-0.3632868872672251
10.378159645232817,-0.3047219859479784
10.411529933481154,-0.2482076743061669
10.44490022172949,-0.18909187590169468
10.478270509977827,-0.11844950603174675
10.511640798226164,-0.025085943623904084
10.545011086474501,0.09949373573516557
10.578381374722838,0.2548129655127609
10.611751662971175,0.4272693814441282
10.645121951219512,0.5914198615984627
10.67849223946785,0.7176497495824729
10.711862527716187,0.7835797496498275
10.745232815964524,0.7838505245426072
10.778603104212861,0.7329493259714301
10.811973392461198,0.6588750808923239
10.845343680709535,0.5901620807781467
10.878713968957872,0.5424783410214425
10.912084257206208,0.5114990495873952
10.945454545454545,0.47564326430232784
10.978824833702882,0.4072533921957164
11.012195121951219,0.2866437015474346
11.045565410199556,0.11227640778890054
11.078935698447895,-0.09751132604318462
11.112305986696231,-0.31168549284531794
11.145676274944568,-0.4990577897275247
11.179046563192905,-0.6404503076030368
11.212416851441242,-0.7350389300363447
11.245787139689579,-0.7979749946489205
11.279157427937916,-0.8501826659106946
11.312527716186253,-0.9048319714085575
11.34589800443459,-0.9568732487509622
11.379268292682926,-0.9811694992222038
11.412638580931263,-0.9412352300492141
11.4460088691796,-0.8057097753204365
11.479379157427939,-0.5656190229532384
11.512749445676276,-0.24425730528339692
11.546119733924613,0.1059301518220792
11.57949002217295,0.4195580097353945
11.612860310421286,0.6415431758079055
11.646230598669623,0.7474787454664872
11.67960088691796,0.7518315535774649
11.712971175166297,0.6997521872735567
11.746341463414634,0.645693930863513
11.77971175166297,0.6282759529799131
11.813082039911308,0.6528338341946222
11.846452328159646,0.6897616156427169
11.879822616407983,0.6894910031615212
11.91319290465632,0.6071380319937382
11.946563192904657,0.42523820381059846
11.979933481152994,0.1639387043783844
12.01330376940133,-0.12582422758148085
12.046674057649668,-0.38234268214168077
12.080044345898004,-0.5564344351665703
12.113414634146341,-0.6273659754045834
12.146784922394678,-0.6054293422801604
12.180155210643015,-0.5222825030739221
12.213525498891352,-0.4155646400987528
12.24689578713969,-0.3154613749178303
12.280266075388028,-0.23806251396619577
12.313636363636364,-0.18589795140099422
12.347006651884701,-0.15266666807943688
12.380376940133038,-0.12836641794375453
12.413747228381375,-0.1025050113116183
12.447117516629712,-0.06533763146594411
12.480487804878049,-0.008541233996985588
12.513858093126386,0.07331742427523237
12.547228381374723,0.18033764179919579
12.58059866962306,0.3049453788008085
12.613968957871396,0.43122739348377653
12.647339246119735,0.5370066467445792
12.680709534368072,0.5986082361158114
12.714079822616409,0.5971061939373803
12.747450110864746,0.5241093782891707
12.780820399113082,0.3850966651445777
12.81419068736142,0.19900124354084645
12.847560975609756,-0.006005631884247108
12.880931263858093,-0.19921089681783144
12.91430155210643,-0.3543236202933577
12.947671840354767,-0.4545333366630463
12.981042128603104,-0.49445321234731826
13.014412416851442,-0.47910760915781997
13.04778270509978,-0.42115363929344607
13.081152993348116,-0.3377024536619582
13.114523281596453,-0.24747449173491745
13.14789356984479,-0.16817636137996156
13.181263858093127,-0.11366692761329705
13.214634146341464,-0.09100824318576684
13.2480044345898,-0.09844040056575651
13.281374722838137,-0.12573706426885975
13.314745011086474,-0.1576063593446577
13.348115299334811,-0.179080804487755
13.381485587583148,-0.18039633568064894
13.414855875831487,-0.15892047758083086
13.448226164079824,-0.11743325930408859
13.48159645232816,-0.06034968718116934
13.514966740576497,0.00934206929462714
13.548337028824834,0.09043488335984683
13.581707317073171,0.1813094263748179
13.615077605321508,0.27725627259418884
13.648447893569845,0.3696204316976494
13.681818181818182,0.4475327913243662
13.715188470066519,0.5009143818474542
13.748558758314855,0.522507988541093
13.781929046563192,0.5077175903551018
13.815299334811531,0.45325029934864897
13.848669623059868,0.35708306092034137
13.882039911308205,0.2215591339148128
13.915410199556542,0.058586829912225795
13.948780487804878,-0.10702815971910416
13.982150776053215,-0.24058774710466885
14.015521064301552,-0.3082763840611645
14.048891352549889,-0.29202013533910026
14.082261640798226,-0.20084413965992334
14.115631929046563,-0.0714297249142682
14.1490022172949,0.04444445185685458
14.182372505543238,0.10076186130334625
14.215742793791575,0.07652857977941038
14.249113082039912,-0.016249729272073056
14.282483370288249,-0.1398664118127483
14.315853658536586,-0.24945627681719615
14.349223946784923,-0.31299348298710555
14.38259423503326,-0.3227095657612779
14.415964523281596,-0.29311638654143113
14.449334811529933,-0.24831562480537783
14.48270509977827,-0.20673240526961525
14.516075388026607,-0.17194488839090047
14.549445676274944,-0.13399682854037387
14.582815964523283,-0.07926771323570893
14.61618625277162,-0.0023118681441088394
14.649556541019956,0.08751174275158843
14.682926829268293,0.1683693748356656
14.71629711751663,0.2158051748052949
14.749667405764967,0.21471795791100595
14.783037694013304,0.16730989167248925
14.81640798226164,0.09331311858534601
14.849778270509978,0.02275400096742796
14.883148558758315,-0.015253861532886798
14.916518847006651,-0.0030738404059960918
14.949889135254988,0.05919914163272444
14.983259423503327,0.15347973241832133
15.016629711751664,0.24917234500793328
15.05,0.31268351975941483
15.083370288248338,0.3182483815680268
15.116740576496674,0.2567709647902462
15.150110864745011,0.1395574559435996
15.183481152993348,-0.004844059797082316
15.216851441241685,-0.14009264207247663
15.250221729490022,-0.2345905374863175
15.283592017738359,-0.27236909609167564
15.316962305986696,-0.2580489362171577
15.350332594235034,-0.214006501897249
15.383702882483371,-0.17112805018146016
15.417073170731708,-0.15706583684262224
15.450443458980045,-0.18659048319743016
15.483813747228382,-0.25729966866877
15.517184035476719,-0.35140196627808856
15.550554323725056,-0.44183969565576864
15.583924611973393,-0.4997780002957072
15.61729490022173,-0.5008823203634895
15.650665188470066,-0.42932222356495403
15.684035476718403,-0.2799628877565912
15.71740576496674,-0.05974301323894729
15.750776053215079,0.21143219696836274
15.784146341463416,0.5011684127223549
15.817516629711752,0.7680028531702643
15.85088691796009,0.9687320903928072
15.884257206208426,1.0687386800366196
15.917627494456763,1.0521802731103842
15.9509977827051,0.9277070720889463
15.984368070953437,0.7263225360904916
16.017738359201775,0.49114775546085054
16.05110864745011,0.2628345097022135
16.08447893569845,0.06697163471360285
16.117849223946784,-0.0907403386592741
16.151219512195123,-0.21957633821316797
16.184589800443458,-0.3322726048885445
16.217960088691797,-0.43357332297736856
16.251330376940132,-0.5153517123934354
16.28470066518847,-0.5609954483169046
16.31807095343681,-0.556380152625081
16.351441241685144,-0.5008996808108319
16.384811529933483,-0.4118952810133895
16.418181818181818,-0.3195168270564174
16.451552106430157,-0.25444288845990237
16.48492239467849,-0.23487244073277194
16.51829268292683,-0.2594985012596879
16.551662971175165,-0.30969971986176253
16.585033259423504,-0.35910313455512405
16.61840354767184,-0.3850192604409684
16.651773835920178,-0.3760127119652926
16.685144124168513,-0.3327958964763011
16.71851441241685,-0.26360184744557763
16.75188470066519,-0.17777402776743706
16.785254988913525,-0.08131346722842782
16.818625277161864,0.02389448610268076
16.8519955654102,0.13786952667459587
16.885365853658538,0.259390532224658
16.918736141906873,0.3837944057512803
16.95210643015521,0.5024830802421648
16.985476718403547,0.6038203147039479
17.018847006651885,0.6747248477247437
17.05221729490022,0.7025973809008939
17.08558758314856,0.6777037666377499
17.118957871396898,0.596135810878786
17.152328159645233,0.4627751439345678
17.18569844789357,0.2927677352985867
17.219068736141907,0.10979045033456543
17.252439024390245,-0.05947773457485356
17.28580931263858,-0.193072793737217
