Frequency (Hz),Amplitude
0.0,1.0506274720564335
0.01993355481727575,1.0501648522745282
0.0398671096345515,1.0487776070352477
0.059800664451827246,1.0464675794891738
0.079734219269103,1.0432378443495045
0.09966777408637874,1.039092712171299
0.11960132890365449,1.034037735516389
0.13953488372093023,1.0280797171840597
0.159468438538206,1.021226720746073
0.17940199335548174,1.0134880836922067
0.19933554817275748,1.0048744335657849
0.21926910299003324,0.9953977075549044
0.23920265780730898,0.985071176103772
0.25913621262458475,0.9739094712238511
0.27906976744186046,0.9619286203203566
0.29900332225913623,0.9491460865110399
0.318936877076412,0.9355808166047878
0.3388704318936877,0.9212532981367725
0.3588039867109635,0.9061856271308188
0.37873754152823924,0.8904015885885446
0.39867109634551495,0.8739267521007411
0.4186046511627907,0.8567885854535693
0.4385382059800665,0.839016589675657
0.4584717607973422,0.8206424596625378
0.47840531561461797,0.8017002753419574
0.49833887043189373,0.7822267293317133
0.5182724252491695,0.76226139821166
0.5382059800664452,0.7418470659031312
0.5581395348837209,0.721030109231623
0.5780730897009968,0.6998609575262936
0.5980066445182725,0.6783946400330184
0.6179401993355482,0.6566914368574321
0.637873754152824,0.6348176508641012
0.6578073089700996,0.6128465189880417
0.6777408637873754,0.5908592809899855
0.6976744186046512,0.5689464205365438
0.717607973421927,0.5472090855878439
0.7375415282392027,0.5257606793556103
0.7574750830564785,0.5047285850983992
0.7774086378737541,0.484255941736877
0.7973421926910299,0.46450331546463625
0.8172757475083057,0.44565000829687434
0.8372093023255814,0.4278946052482354
0.8571428571428572,0.4114541971051352
0.877076411960133,0.39656155963922
0.8970099667774087,0.38345949540827745
0.9169435215946844,0.37239166790168887
0.9368770764119602,0.3635897157845608
0.9568106312292359,0.3572573038956061
0.9767441860465116,0.35355293776521285
0.9966777408637875,0.3525744487160181
1.0166112956810631,0.3543484561311109
1.036544850498339,0.35882737477618415
1.0564784053156147,0.3658947401983566
1.0764119601328903,0.3753774889246043
1.0963455149501662,0.3870622892600109
1.1162790697674418,0.40071262745448044
1.1362126245847177,0.4160840096742189
1.1561461794019936,0.43293580200801607
1.176079734219269,0.4510393413990882
1.196013289036545,0.4701827018688123
1.2159468438538206,0.4901728499381794
1.2358803986710964,0.5108359759008225
1.255813953488372,0.5320166794783013
1.275747508305648,0.5535765243443788
1.2956810631229239,0.5753923164909944
1.3156146179401993,0.5973543319783486
1.3355481727574752,0.6193646252580569
1.3554817275747508,0.6413354855476623
1.3754152823920267,0.663188068400199
1.3953488372093024,0.6848512056845464
1.4152823920265782,0.7062603841023296
1.435215946843854,0.7273568760916506
1.4551495016611296,0.7480870047646198
1.4750830564784054,0.7684015246205329
1.495016611295681,0.7882551010622132
1.514950166112957,0.8076058735517262
1.5348837209302328,0.8264150891948873
1.5548172757475083,0.8446467954328427
1.5747508305647842,0.8622675822433773
1.5946843853820598,0.8792463657763884
1.6146179401993357,0.8955542066589646
1.6345514950166113,0.9111641573217368
1.6544850498338872,0.9260511336369355
1.6744186046511629,0.9401918069437396
1.6943521594684385,0.9535645131916187
1.7142857142857144,0.9661491764759079
1.73421926910299,0.9779272446921767
1.754152823920266,0.9888816354109669
1.7740863787375416,0.9989966903870666
1.7940199335548175,1.008258137377039
1.8139534883720931,1.0166530581562747
1.8338870431893688,1.0241698618088442
1.8538205980066447,1.030798262516431
1.8737541528239203,1.036529261202516
1.893687707641196,1.0413551304984037
1.9136212624584719,1.0452694025920803
1.9335548172757475,1.0482668596038618
1.9534883720930232,1.0503435262041305
1.9734219269102993,1.05149666425315
1.993355481727575,1.0517247693010914
2.0132890365448506,1.051027568840059
2.0332225913621262,1.0494060222507486
2.0531561461794023,1.0468623224358362
2.073089700996678,1.0433998991812259
2.0930232558139537,1.0390234243361616
2.1129568106312293,1.0337388189561743
2.132890365448505,1.0275532626087678
2.1528239202657806,1.020475205103902
2.1727574750830567,1.0125143809800417
2.1926910299003324,1.0036818271545596
2.212624584717608,0.993989904237293
2.2325581395348837,0.9834523221096436
2.25249169435216,0.9720841704936684
2.2724252491694354,0.9599019553784222
2.292358803986711,0.9469236423410408
2.312292358803987,0.9331687080017631
2.332225913621263,0.9186582010934424
2.352159468438538,0.9034148149147636
2.3720930232558137,0.8874629732832713
2.39202657807309,0.8708289325204037
2.4119601328903655,0.8535409025010757
2.431893687707641,0.8356291904010186
2.4518272425249172,0.8171263714948673
2.471760797342193,0.7980674922171707
2.4916943521594686,0.7784903117181302
2.511627906976744,0.758435589345492
2.5315614617940203,0.737947426875302
2.551495016611296,0.717073675896675
2.5714285714285716,0.6958664224989275
2.5913621262458477,0.6743825632325953
2.611295681063123,0.6526844880520024
2.6312292358803986,0.6308408872826367
2.6511627906976742,0.6089277000439068
2.6710963455149503,0.5870292200826233
2.691029900332226,0.5652393701624537
2.7109634551495017,0.5436631457307108
2.7308970099667778,0.5224182091641691
2.7508305647840534,0.5016365827420751
2.770764119601329,0.48146633550204404
2.7906976744186047,0.4620730795290121
2.810631229235881,0.4436409797576615
2.8305647840531565,0.4263728392291324
2.850498338870432,0.41048866536109346
2.870431893687708,0.396221996277084
2.8903654485049834,0.3838132526931241
2.910299003322259,0.37349959935663946
2.9302325581395348,0.3655013667053062
2.950166112956811,0.36000602099093215
2.9700996677740865,0.3571517922564474
2.990033222591362,0.35701393125472863
3.0099667774086383,0.3595966225411591
3.029900332225914,0.3648325374046874
3.0498338870431896,0.37259013943907543
3.0697674418604657,0.38268693567790313
3.089700996677741,0.3949057070774511
3.1096345514950166,0.40901069338045254
3.129568106312292,0.424761505953119
3.1495016611295683,0.4419236601356019
3.169435215946844,0.46027558994128936
3.1893687707641196,0.479612616897131
3.2093023255813957,0.49974859661011517
3.2292358803986714,0.5205159724240092
3.249169435215947,0.5417648467523697
3.2691029900332227,0.5633615249314746
3.289036544850499,0.5851868416547901
3.3089700996677744,0.6071344650442901
3.32890365448505,0.6291092905464898
3.3488372093023258,0.6510259812776134
3.3687707641196014,0.6728076764381619
3.388704318936877,0.694384868746222
3.4086378737541527,0.7156944406109242
3.428571428571429,0.7366788434633763
3.4485049833887045,0.757285402898576
3.46843853820598,0.7774657325117921
3.4883720930232562,0.7971752405709289
3.508305647840532,0.8163727153728909
3.5282392026578075,0.8350199769520571
3.548172757475083,0.8530815845635805
3.5681063122923593,0.870524590963246
3.588039867109635,0.8873183359174087
3.60797342192691,0.9034342725946668
3.6279069767441863,0.918845821528629
3.647840531561462,0.9335282477157697
3.6677740863787376,0.9474585571460513
3.6877076411960132,0.9606154096761381
3.7076411960132893,0.9729790456650372
3.727574750830565,0.9845312242165345
3.7475083056478407,0.9952551712266805
3.7674418604651168,1.005135535728424
3.787375415282392,1.0141583532720067
3.807308970099668,1.0223110152858204
3.8272425249169437,1.0295822435348523
3.8471760797342194,1.0359620689408209
3.867109634551495,1.041441814151298
3.887043189368771,1.0460140793518122
3.9069767441860463,1.0496727309058707
3.9269102990033224,1.0524128924876757
3.9468438538205985,1.0542309384425814
3.9667774086378738,1.0551244891732132
3.98671096345515,1.055092408406689
4.0066445182724255,1.054134802252065
4.026578073089701,1.0522530200078795
4.046511627906977,1.049449656730042
4.0664451827242525,1.0457285576202218
4.086378737541528,1.0410948243467788
4.106312292358805,1.0355548234647856
4.1262458471760795,1.0291161971607767
4.146179401993356,1.0217878766129307
4.166112956810632,1.0135800983300594
4.186046511627907,1.0045044239158332
4.205980066445183,0.9945737637998685
4.225913621262459,0.9838024055879223
4.245847176079734,0.9722060478131214
4.26578073089701,0.9598018400223812
4.2857142857142865,0.9466084303132641
4.305647840531561,0.9326460216504449
4.325581395348838,0.9179364385473572
4.345514950166113,0.9025032060036374
4.365448504983389,0.8863716429544789
4.385382059800665,0.8695689729256512
4.40531561461794,0.8521244551101917
4.425249169435216,0.8340695397075735
4.445182724252492,0.8154380521081497
4.465116279069767,0.7962664113845968
4.485049833887043,0.7765938895827391
4.50498338870432,0.7564629194974903
4.524916943521594,0.73591945997956
4.544850498338871,0.7150134293184871
4.5647840531561465,0.6937992188341028
4.584717607973422,0.6723363003526885
4.604651162790698,0.6506899425151713
4.624584717607974,0.6289320514520891
4.644518272425249,0.607142150583707
4.664451827242526,0.5854085110661351
4.6843853820598005,0.5638294370055266
4.704318936877076,0.5425146954645647
4.724252491694353,0.5215870568866081
4.7441860465116275,0.5011838720953731
4.764119601328904,0.4814585518640722
4.78405315614618,0.4625817289346016
4.803986710963455,0.44474176843057917
4.823920265780731,0.42814415812262374
4.8438538205980075,0.41300918043680623
4.863787375415282,0.39956719756707537
4.883720930232559,0.3880509572304191
4.9036544850498345,0.3786846556322619
4.92358803986711,0.3716701485427403
4.943521594684386,0.367171629760828
4.963455149501661,0.3653010414776179
4.983388704318937,0.36610700316052197
5.003322259136213,0.36956972705040686
5.023255813953488,0.3756031462400993
5.043189368770764,0.38406373300501345
5.063122923588041,0.39476395627481464
5.083056478405315,0.4074876073124185
5.102990033222592,0.4220044342991117
5.122923588039868,0.43808235448449545
5.142857142857143,0.45549649131877656
5.162790697674419,0.4740350682539714
5.182724252491695,0.49350265062771126
5.20265780730897,0.5137213955264529
5.222591362126246,0.5345309476739322
5.242524916943522,0.55578750604217
5.262458471760797,0.5773624491523877
5.282392026578074,0.5991407830523336
5.3023255813953485,0.6210195782860488
5.322259136212625,0.6429064918465678
5.342192691029901,0.664718422788935
5.362126245847176,0.6863803201836671
5.382059800664452,0.7078241442253176
5.4019933554817285,0.7289879714902605
5.421926910299003,0.7498152306129322
5.44186046511628,0.770254053006684
5.4617940199335555,0.7902567233691258
5.48172757475083,0.8097792157543792
5.501661129568107,0.8287808024551648
5.5215946843853825,0.8472237245199182
5.541528239202658,0.8650729142728677
5.561461794019934,0.8822957616224795
5.5813953488372094,0.8988619172037917
5.601328903654485,0.9147431264957991
5.621262458471762,0.9299130899925182
5.641196013289036,0.9443473453018943
5.661129568106313,0.9580231677168052
5.681063122923589,0.9709194863642163
5.700996677740864,0.9830168135094602
5.72093023255814,0.9942971849850413
5.740863787375416,1.0047441100429737
5.760797342192691,1.0143425292041903
5.780730897009967,1.0230787789094682
5.800664451827243,1.030940561970371
5.820598006644518,1.0379169229821534
5.840531561461795,1.0439982279996955
5.8604651162790695,1.0491761478954755
5.880398671096346,1.0534436449210158
5.900332225913622,1.0567949620806352
5.920265780730897,1.0592256150044006
5.940199335548173,1.060732386075706
5.960132890365449,1.0613133206309484
5.980066445182724,1.0609677251064227
6.0,1.0596961670609886
6.0199335548172765,1.0575004770555947
6.039867109634551,1.0543837524215744
6.059800664451828,1.0503503630022422
6.0797342192691035,1.0454059590062552
6.099667774086379,1.0395574811692234
6.119601328903655,1.0328131734825603
6.139534883720931,1.0251825988184622
6.159468438538206,1.0166766578579551
6.179401993355482,1.0073076118183661
6.1993355481727574,0.9970891095790969
6.219269102990033,0.9860362199241647
6.23920265780731,0.9741654697595971
6.259136212624584,0.9614948893277524
6.279069767441861,0.9480440656348579
6.299003322259137,0.9338342055376506
6.318936877076412,0.918888210207665
6.338870431893688,0.903230763016208
6.3588039867109645,0.8868884332685729
6.378737541528239,0.8698897986739619
6.398671096345516,0.8522655899812909
6.418604651162791,0.8340488618525146
6.438538205980066,0.815275194798743
6.458471760797343,0.795982933881984
6.4784053156146175,0.7762134708934196
6.498338870431894,0.7560115778557501
6.51827242524917,0.7354258009402961
6.538205980066445,0.7145089251891275
6.558139534883721,0.6933185216791166
6.578073089700998,0.6719175897690578
6.598006644518272,0.6503753075017075
6.617940199335549,0.6287679025492214
6.6378737541528245,0.6071796534380338
6.6578073089701,0.5857040248551654
6.677740863787376,0.5644449296882084
6.6976744186046515,0.5435180913556995
6.717607973421927,0.5230524493356355
6.737541528239203,0.5031915042840662
6.7574750830564785,0.4840944325196521
6.777408637873754,0.4659367107128514
6.797342192691031,0.44890988394887094
6.8172757475083055,0.43321999946488904
6.837209302325582,0.41908414952961814
6.857142857142858,0.4067245807063788
6.877076411960133,0.39636001394563597
6.897009966777409,0.38819425355494164
6.9169435215946855,0.38240285015809
6.93687707641196,0.37911939410996826
6.956810631229236,0.37842366007594097
6.9767441860465125,0.38033393669013205
6.996677740863787,0.38480523259433186
7.016611295681064,0.39173377202337256
7.036544850498339,0.40096675068446785
7.056478405315615,0.4123152841581561
7.076411960132891,0.42556818023314535
7.096345514950166,0.440504554990929
7.116279069767442,0.4569040738577499
7.136212624584719,0.4745543814057565
7.156146179401993,0.4932558649222515
7.17607973421927,0.5128242151979366
7.196013289036546,0.5330913484313136
7.21594684385382,0.5539052173043428
7.235880398671097,0.5751289407428356
7.2558139534883725,0.5966395696969934
7.275747508305648,0.6183267060303921
7.295681063122924,0.6400911126581829
7.3156146179402,0.6618433958532871
7.335548172757475,0.6835028017119599
7.355481727574752,0.7049961437256851
7.3754152823920265,0.7262568632047808
7.395348837209303,0.7472242157245994
7.415282392026579,0.7678425724628394
7.435215946843854,0.7880608236296948
7.45514950166113,0.8078318710719152
7.475083056478406,0.8271121978564457
7.495016611295681,0.845861503772193
7.514950166112956,0.8640423969681482
7.5348837209302335,0.881620133223672
7.554817275747508,0.8985623955421124
7.574750830564784,0.9148391078357841
7.5946843853820605,0.9304222774173128
7.614617940199336,0.9452858618314117
7.634551495016611,0.959405656261657
7.6544850498338874,0.9727591983421894
7.674418604651163,0.9853256877070423
7.694352159468439,0.997085918033809
7.714285714285715,1.00802221969484
7.73421926910299,1.0181184114295028
7.754152823920266,1.0273597597033188
7.774086378737542,1.0357329446333605
7.794019933554818,1.0432260315391484
7.813953488372093,1.0498284473316135
7.83388704318937,1.055530961083379
7.853820598006645,1.0603256682354365
7.8737541528239205,1.0642059779930066
7.893687707641197,1.0671666035478136
7.913621262458472,1.0692035548393426
7.9335548172757475,1.070314133635337
7.953488372093024,1.0704969307731365
7.9734219269103,1.0697518254614817
7.9933554817275745,1.0680799865966935
8.013289036544851,1.065483876101247
8.033222591362128,1.061967254346027
8.053156146179402,1.0575351877728925
8.073089700996679,1.0521940588919056
8.093023255813954,1.045951578889964
8.11295681063123,1.038816803155452
8.132890365448505,1.0308001500997759
8.152823920265782,1.0219134237417333
8.172757475083056,1.0121698406189765
8.192691029900331,1.001584061703011
8.21262458471761,0.9901722301251654
8.232558139534884,0.9779520156732359
8.252491694352159,0.9649426671978151
8.272425249169435,0.9511650742769745
8.292358803986712,0.936641839736078
8.312292358803987,0.9213973649118523
8.332225913621263,0.9054579498935412
8.352159468438538,0.8888519113806744
8.372093023255815,0.8716097212723422
8.392026578073091,0.8537641696599002
8.411960132890366,0.8353505565405355
8.43189368770764,0.8164069173106495
8.451827242524917,0.7969742879356789
8.471760797342194,0.7770970166194469
8.491694352159469,0.7568231297829754
8.511627906976745,0.7362047611567456
8.53156146179402,0.7152986536873092
8.551495016611296,0.6941667445830093
8.571428571428573,0.6728768438837314
8.591362126245848,0.6515034159735159
8.611295681063122,0.6301284707530296
8.6312292358804,0.6088425656910006
8.651162790697676,0.5877459101543658
8.67109634551495,0.5669495471805932
8.691029900332227,0.5465765624981668
8.710963455149502,0.526763232980508
8.730897009966778,0.5076599738512494
8.750830564784053,0.48943187441176605
8.77076411960133,0.47225852857960643
8.790697674418604,0.45633278017942397
8.81063122923588,0.441857938332249
8.830564784053157,0.4290430176256011
8.850498338870432,0.418095678400291
8.870431893687707,0.4092128405873271
8.890365448504983,0.40256943886580276
8.91029900332226,0.39830641064027955
8.930232558139535,0.39651957924443293
8.950166112956811,0.3972513510375012
8.970099667774086,0.40048686855620075
8.990033222591363,0.4061554351868554
9.00996677740864,0.41413690171510414
9.029900332225914,0.42427169565806405
9.049833887043189,0.43637263035653834
9.069767441860467,0.4502366598995146
9.089700996677742,0.46565520494334
9.109634551495017,0.4824223022336022
9.129568106312293,0.5003403987588706
9.14950166112957,0.5192240010846688
9.169435215946844,0.5389015868448235
9.189368770764121,0.5592162330740433
9.209302325581396,0.5800253748927646
9.22923588039867,0.6012000280098337
9.249169435215949,0.6226237219490534
9.269102990033224,0.6441913144473546
9.289036544850498,0.665807797090643
9.308970099667773,0.6873871580321212
9.328903654485051,0.7088513370887324
9.348837209302326,0.730129288467821
9.368770764119601,0.7511561539024593
9.388704318936878,0.7718725417018738
9.408637873754152,0.7922239033778697
9.428571428571429,0.8121599978361147
9.448504983388705,0.8316344327649378
9.46843853820598,0.8506042732507777
9.488372093023255,0.869029708437063
9.508305647840533,0.8868737679996779
9.528239202657808,0.9041020812034865
9.548172757475083,0.920682672256893
9.56810631229236,0.936585786556496
9.588039867109636,0.9517837431958937
9.60797342192691,0.9662508097982982
9.627906976744187,0.9799630963268864
9.647840531561462,0.9928984650362641
9.667774086378738,1.0050364541643335
9.687707641196015,1.0163582133340023
9.70764119601329,1.026846448948241
9.727574750830565,1.0364853781295382
9.747508305647841,1.045260689980372
9.767441860465118,1.0531595131347335
9.787375415282392,1.060170388734307
9.807308970099669,1.0662832481041682
9.827242524916944,1.0714893945234465
9.84717607973422,1.075781488591866
9.867109634551497,1.0791535367845264
9.887043189368772,1.0816008828688
9.906976744186046,1.0831202019299542
9.926910299003321,1.0837094968182694
9.9468438538206,1.0833680968922128
9.966777408637874,1.082096658990013
9.986710963455149,1.0798971706191047
10.006644518272426,1.0767729554081376
10.026578073089702,1.072728680924007
10.046511627906977,1.0677703690150224
10.066445182724253,1.0619054089047177
10.086378737541528,1.0551425733292004
10.106312292358805,1.0474920380862358
10.126245847176081,1.0389654054484447
10.146179401993356,1.029575731989082
10.16611295681063,1.0193375614770266
10.186046511627907,1.0082669636239256
10.205980066445184,0.996381579611071
10.225913621262459,0.9837006754926196
10.245847176079735,0.9702452047683942
10.26578073089701,0.9560378816488173
10.285714285714286,0.9411032668025668
10.305647840531563,0.9254678676896231
10.325581395348838,0.9091602559457213
10.345514950166113,0.8922112047046169
10.36544850498339,0.8746538492280366
10.385382059800666,0.8565238747636776
10.40531561461794,0.8378597361695035
10.425249169435217,0.8187029145208131
10.445182724252492,0.7990982166388394
10.465116279069768,0.7790941242084359
10.485049833887045,0.7587431998235554
10.50498338870432,0.7381025578022468
10.524916943521594,0.7172344077690567
10.544850498338871,0.696206678533169
10.564784053156147,0.6750937282712381
10.584717607973422,0.6539771438253709
10.604651162790697,0.6329466261514017
10.624584717607974,0.6121009493548001
10.64451827242525,0.5915489656983595
10.664451827242525,0.5714106064626341
10.684385382059801,0.5518177964371659
