Frequency (Hz),Amplitude
0.0,0.62302265749445
0.019801980198019802,0.6239658326071068
0.039603960396039604,0.6267832193847965
0.0594059405940594,0.6314389564456265
0.07920792079207921,0.6378750615312181
0.09900990099009901,0.6460139101464921
0.1188118811881188,0.6557613420995361
0.13861386138613863,0.6670101125278213
0.15841584158415842,0.679643412494219
0.1782178217821782,0.6935382264908567
0.19801980198019803,0.7085683559699519
0.21782178217821782,0.7246070049264223
0.2376237623762376,0.7415288843803006
0.25742574257425743,0.7592118407454258
0.27722772277227725,0.7775380462738847
0.297029702970297,0.7963948089472948
0.31683168316831684,0.8156750670121384
0.33663366336633666,0.8352776330645507
0.3564356435643564,0.855107247214034
0.37623762376237624,0.8750744908413575
0.39603960396039606,0.8950956035679419
0.4158415841584158,0.915092237398493
0.43564356435643564,0.934991174215959
0.45544554455445546,0.9547240261770554
0.4752475247524752,0.9742269331298572
0.495049504950495,0.9934402668751001
0.5148514851485149,1.0123083487780078
0.5346534653465347,1.03077918474555
0.5544554455445545,1.0488042197554883
0.5742574257425742,1.0663381128168274
0.594059405940594,1.083338532334397
0.613861386138614,1.0997659712449468
0.6336633663366337,1.1155835809093184
0.6534653465346534,1.1307570225235537
0.6732673267326733,1.1452543347052972
0.6930693069306931,1.1590458158840824
0.7128712871287128,1.1721039201506862
0.7326732673267327,1.1844031652815517
0.7524752475247525,1.1959200517360655
0.7722772277227723,1.2066329915182783
0.7920792079207921,1.21652224589271
0.8118811881188118,1.2255698710428684
0.8316831683168316,1.233759670857557
0.8514851485148516,1.2410771561222564
0.8712871287128713,1.2475095094803095
0.891089108910891,1.2530455556105393
0.9108910891089109,1.2576757361444568
0.9306930693069307,1.2613920889178938
0.9504950495049505,1.2641882312186634
0.9702970297029703,1.2660593467548027
0.99009900990099,1.2670021761276584
1.00990099009901,1.2670150106502196
1.0297029702970297,1.2660976894066736
1.0495049504950495,1.2642515995016606
1.0693069306930694,1.2614796795010104
1.0891089108910892,1.2577864261183247
1.108910891089109,1.2531779042553548
1.1287128712871286,1.2476617605593532
1.1485148514851484,1.241247240717754
1.1683168316831685,1.2339452107710398
1.188118811881188,1.2257681827885198
1.2079207920792079,1.2167303453198874
1.227722772277228,1.206847599108883
1.2475247524752475,1.196137598633851
1.2673267326732673,1.1846198001246646
1.2871287128712872,1.1723155167956643
1.3069306930693068,1.1592479821306463
1.3267326732673268,1.1454424221569057
1.3465346534653466,1.1309261377495874
1.3663366336633662,1.1157285981127771
1.3861386138613863,1.0998815466851375
1.405940594059406,1.083419120809463
1.4257425742574257,1.066377986577234
1.4455445544554455,1.0487974902988713
1.4653465346534653,1.0307198280375502
1.4851485148514851,1.012190234554428
1.504950495049505,0.9932571928095189
1.5247524752475248,0.9739726647989886
1.5445544554455446,0.9543923439222135
1.5643564356435644,0.9345759281814765
1.5841584158415842,0.9145874122198158
1.6039603960396038,0.8944953943731028
1.6237623762376237,0.8743733923999457
1.6435643564356437,0.8543001581895852
1.6633663366336633,0.8343599773555258
1.683168316831683,0.8146429340432999
1.7029702970297032,0.7952451144165166
1.7227722772277227,0.7762687141657418
1.7425742574257426,0.7578220062736415
1.7623762376237624,0.7400191157889888
1.782178217821782,0.7229795396589551
1.801980198019802,0.7068273435553989
1.8217821782178218,0.6916899666747081
1.8415841584158414,0.677696572913837
1.8613861386138615,0.6649759061311349
1.881188118811881,0.6536536413444477
1.900990099009901,0.643849273865639
1.920792079207921,0.63567265233479
1.9405940594059405,0.6292203325472089
1.9603960396039604,0.6245719949871174
1.98019801980198,0.6217872146534965
2.0,0.6209028816902616
2.01980198019802,0.6219315352813305
2.0396039603960396,0.6248607909818213
2.0594059405940595,0.629653924989243
2.0792079207920793,0.6362515496322647
2.099009900990099,0.644574198191699
2.118811881188119,0.6545255557256028
2.1386138613861387,0.665996037454318
2.1584158415841586,0.6788664269681935
2.1782178217821784,0.6930113326643788
2.1980198019801978,0.7083022869696712
2.217821782178218,0.7246103836861107
2.237623762376238,0.741808412443083
2.257425742574257,0.7597724990118316
2.2772277227722775,0.7783832940393072
2.297029702970297,0.7975267717939782
2.3168316831683167,0.8170947077612573
2.336633663366337,0.836984902871517
2.3564356435643563,0.857101215996471
2.376237623762376,0.8773534576546621
2.3960396039603964,0.897657188420292
2.4158415841584158,0.9179334564624888
2.4356435643564356,0.9381085005701066
2.455445544554456,0.9581134381959782
2.4752475247524752,0.9778839525125412
2.495049504950495,0.9973599881093987
2.514851485148515,1.016485461623296
2.5346534653465347,1.035207991097047
2.5544554455445545,1.0534786460474481
2.5742574257425743,1.0712517189343675
2.594059405940594,1.0884845178386324
2.6138613861386135,1.1051371795735765
2.633663366336634,1.1211725020932852
2.6534653465346536,1.1365557948589327
2.673267326732673,1.1512547457343034
2.6930693069306932,1.1652393029692787
2.712871287128713,1.1784815708687602
2.7326732673267324,1.190955717815845
2.7524752475247527,1.2026378954087549
2.7722772277227725,1.2135061675718395
2.792079207920792,1.2235404486051018
2.811881188118812,1.232722449240488
2.8316831683168315,1.2410356298736605
2.8514851485148514,1.2484651602354289
2.8712871287128716,1.2549978848572603
2.891089108910891,1.2606222937691767
2.910891089108911,1.26532849794714
2.9306930693069306,1.269108209099813
2.9504950495049505,1.2719547234532624
2.9702970297029703,1.2738629092559026
2.99009900990099,1.2748291977869584
3.00990099009901,1.2748515777094576
3.0297029702970297,1.27392959266442
3.0495049504950495,1.272064342057873
3.0693069306930694,1.2692584850458242
3.089108910891089,1.265516247777155
3.108910891089109,1.260843434009163
3.128712871287129,1.2552474392681243
3.148514851485148,1.248737268786529
3.1683168316831685,1.2413235595121628
3.1881188118811883,1.2330186065514324
3.2079207920792077,1.2238363944819193
3.227722772277228,1.2137926340473653
3.2475247524752473,1.2029048048333564
3.267326732673267,1.191192204613825
3.2871287128712874,1.1786760061583048
3.3069306930693068,1.1653793223970175
3.3267326732673266,1.151327280955558
3.346534653465347,1.1365471091916322
3.366336633663366,1.121068230990956
3.386138613861386,1.1049223767046614
3.4059405940594063,1.0881437077298601
3.4257425742574257,1.070768957340477
3.4455445544554455,1.0528375894533695
3.4653465346534653,1.0343919770470091
3.485148514851485,1.0154776019103653
3.504950495049505,0.996143277251808
3.5247524752475248,0.9764413943928189
3.5445544554455446,0.9564281942423316
3.564356435643564,0.9361640634083133
3.5841584158415842,0.9157138535400445
3.603960396039604,0.8951472206666529
3.6237623762376234,0.8745389787313769
3.6435643564356437,0.853969458015053
3.6633663366336635,0.8335248544765668
3.683168316831683,0.8132975499975914
3.702970297029703,0.7933863759385055
3.722772277227723,0.7738967832528652
3.7425742574257423,0.7549408718683555
3.762376237623762,0.7366372207221736
3.7821782178217824,0.7191104489340229
3.801980198019802,0.7024904301089835
3.8217821782178216,0.6869110786314887
3.841584158415842,0.6725086328936167
3.8613861386138613,0.6594193800634126
3.881188118811881,0.6477768041988405
3.9009900990099013,0.6377081962576521
3.9207920792079207,0.6293308389184203
3.9405940594059405,0.6227479634169034
3.96039603960396,0.6180447556558831
3.98019801980198,0.615284745645886
4.0,0.6145069284766472
4.01980198019802,0.6157239233240939
4.03960396039604,0.6189213788548569
4.0594059405940595,0.6240586936368937
4.079207920792079,0.6310709662459647
4.099009900990099,0.6398719535961134
4.118811881188119,0.6503577239115309
4.138613861386139,0.662410655742824
4.158415841584159,0.675903454189853
4.178217821782178,0.6907029157819575
4.198019801980198,0.7066732546521811
4.217821782178218,0.7236788861402585
4.237623762376238,0.7415866363675377
4.257425742574258,0.7602674007034305
4.2772277227722775,0.779597309022632
4.297029702970297,0.7994584735498108
4.316831683168317,0.8197393999542696
4.336633663366336,0.8403351385153868
4.356435643564357,0.8611472433728062
4.376237623762377,0.8820835969266418
4.3960396039603955,0.9030581452515929
4.415841584158416,0.9239905800494095
4.435643564356436,0.944805993729472
4.455445544554455,0.9654345268439628
4.475247524752476,0.9858110212555848
4.4950495049504955,1.0058746879098832
4.514851485148514,1.0255687947062688
4.534653465346535,1.0448403774947088
4.554455445544555,1.0636399754710213
4.574257425742574,1.0819213910352028
4.594059405940594,1.0996414733762867
4.613861386138614,1.1167599245450632
4.633663366336633,1.133239126488672
4.653465346534653,1.1490439873845786
4.673267326732674,1.1641418055783597
4.693069306930693,1.1785021494653893
4.712871287128713,1.1920967517358259
4.732673267326733,1.2048994165071067
4.752475247524752,1.2168859379868187
4.772277227722772,1.2280340294319743
4.792079207920793,1.238323261293724
4.811881188118812,1.2477350075552291
4.8316831683168315,1.2562523993831056
4.851485148514852,1.2638602853184004
4.871287128712871,1.2705451973312298
4.891089108910891,1.276295322153781
4.910891089108912,1.281100477390497
4.930693069306931,1.2849520919815949
4.9504950495049505,1.287843190668313
4.97029702970297,1.289768382175513
4.99009900990099,1.290723850890735
5.00990099009901,1.290707351879231
5.02970297029703,1.2897182091327808
5.0495049504950495,1.2877573170069543
5.069306930693069,1.2848271448581636
5.089108910891089,1.280931744948682
5.108910891089109,1.2760767637462829
5.128712871287129,1.2702694568055992
5.148514851485149,1.263518707482336
5.1683168316831685,1.2558350497993052
5.188118811881188,1.2472306958567345
5.207920792079208,1.2377195682587023
5.227722772277227,1.2273173381146727
5.247524752475248,1.216041469270363
5.267326732673268,1.2039112695270648
5.2871287128712865,1.190947949723964
5.306930693069307,1.1771746916841321
5.326732673267327,1.162616726162848
5.346534653465346,1.147301422085736
5.366336633663367,1.1312583885232348
5.3861386138613865,1.1145195910141221
5.405940594059405,1.0971194840199616
5.425742574257426,1.0790951614565367
5.445544554455446,1.060486527396059
5.465346534653465,1.041336489147213
5.485148514851486,1.0216911749736672
5.504950495049505,1.0016001786675106
5.524752475247524,0.9811168330017654
5.544554455445545,0.9602985136719208
5.564356435643565,0.9392069746046477
5.584158415841584,0.9179087143310665
5.603960396039604,0.896475371323876
5.623762376237624,0.8749841435676513
5.643564356435643,0.8535182239079167
5.663366336633663,0.8321672376042296
5.683168316831684,0.8110276616706631
5.702970297029703,0.7902031967238596
5.7227722772277225,0.7698050509830515
5.742574257425743,0.7499520828358789
5.762376237623762,0.7307707335141441
5.782178217821782,0.7123946661697581
5.801980198019803,0.6949640143247447
5.821782178217822,0.6786241349665963
5.841584158415841,0.6635237645945168
5.861386138613861,0.6498124964891667
5.881188118811881,0.6376375405114351
5.900990099009901,0.6271397967787378
5.920792079207921,0.618449370398627
5.9405940594059405,0.6116807666307186
5.96039603960396,0.6069281152240333
5.98019801980198,0.6042608522164953
6.0,0.6037203088466591
6.01980198019802,0.6053176009157808
6.03960396039604,0.6090330772497291
6.0594059405940595,0.6148173953281034
6.079207920792079,0.6225940864568537
6.099009900990099,0.6322632979790876
6.118811881188119,0.6437062914001483
6.138613861386139,0.6567902472682277
6.158415841584159,0.6713729719813033
6.178217821782178,0.687307194572825
6.198019801980198,0.7044442541506899
6.217821782178218,0.7226370863557652
6.237623762376237,0.741742504279245
6.257425742574258,0.7616228295004249
6.2772277227722775,0.782146963222281
6.297029702970296,0.8031910008706766
6.316831683168317,0.8246384922839941
6.336633663366337,0.8463804396186327
6.356435643564356,0.8683151109317123
6.376237623762377,0.8903477322351855
6.396039603960396,0.9123901065483001
6.415841584158415,0.9343601960664226
6.435643564356436,0.9561816933436983
6.455445544554456,0.9777835993090302
6.475247524752475,0.999099819763067
6.495049504950495,1.0200687874261392
6.514851485148515,1.0406331133069828
6.534653465346534,1.0607392688521837
6.554455445544554,1.0803372987739919
6.574257425742575,1.0993805634426275
6.594059405940594,1.1178255091155482
6.6138613861386135,1.135631463942658
6.633663366336634,1.1527604575464394
6.653465346534653,1.1691770619648103
6.673267326732673,1.1848482518168177
6.693069306930694,1.199743281673901
6.712871287128713,1.2138335787698986
6.732673267326732,1.2270926493461407
6.752475247524753,1.239495997093114
6.772277227722772,1.2510210523114347
6.792079207920792,1.261647110567876
6.811881188118813,1.2713552797653578
6.8316831683168315,1.2801284346776358
6.851485148514851,1.2879511781205994
6.871287128712871,1.2948098080425134
6.891089108910891,1.3006922899160933
6.910891089108911,1.3055882339072986
6.930693069306931,1.3094888763796186
6.9504950495049505,1.3123870653701475
6.97029702970297,1.314277249745437
6.99009900990099,1.3151554718124725
7.00990099009901,1.3150193632239793
7.02970297029703,1.313868144078719
7.0495049504950495,1.3117026251776278
7.069306930693069,1.308525213456431
7.089108910891089,1.3043399206759596
7.108910891089109,1.299152375513728
7.128712871287128,1.2929698392656856
7.148514851485149,1.2858012254363973
7.1683168316831685,1.2776571235705703
7.188118811881187,1.2685498277604066
7.207920792079208,1.258493370352538
7.227722772277228,1.24750356147752
7.247524752475247,1.2355980351351388
7.267326732673268,1.2227963026920383
7.287128712871287,1.209119814786019
7.306930693069306,1.1945920327856223
7.326732673267327,1.17923851112558
7.346534653465347,1.163086992029694
7.366336633663366,1.1461675143431826
7.3861386138613865,1.1285125384255665
7.405940594059406,1.1101570893008668
7.425742574257425,1.0911389205184026
7.445544554455446,1.0714987014361437
7.465346534653466,1.0512802308837212
7.485148514851485,1.0305306803697822
7.504950495049505,1.009300870132133
7.524752475247524,0.9876455813350277
7.544554455445544,0.9656239075177394
7.564356435643565,0.9432996478821666
7.584158415841584,0.9207417440203797
7.603960396039604,0.8980247600161438
7.623762376237624,0.8752294032296105
7.643564356435643,0.8524430791316246
7.663366336633663,0.8297604678493862
7.683168316831684,0.8072841020977732
7.702970297029703,0.785124915345201
7.7227722772277225,0.7634027149022683
7.742574257425743,0.7422465168607341
7.762376237623762,0.7217946587110907
7.782178217821782,0.702194582251075
7.801980198019803,0.6836021568220698
7.821782178217822,0.6661803958818252
7.841584158415841,0.6500974159242344
7.861386138613862,0.6355235056441781
7.881188118811881,0.6226272257874175
7.900990099009901,0.6115705547185221
7.92079207920792,0.6025032322205537
7.9405940594059405,0.5955566217817542
7.96039603960396,0.5908375797897134
7.980198019801979,0.5884229440045171
8.0,0.5883552854034556
8.01980198019802,0.5906404744166619
8.03960396039604,0.5952473960801523
8.05940594059406,0.6021098511279925
8.07920792079208,0.6111303736088142
8.099009900990099,0.6221854556474905
8.118811881188119,0.635131547132688
8.138613861386139,0.6498112029323402
8.158415841584159,0.6660588564695066
8.178217821782178,0.6837058599583106
8.198019801980198,0.7025846017739446
8.217821782178218,0.7225316567842983
8.237623762376238,0.743390029733725
8.257425742574258,0.7650106132149121
8.277227722772277,0.787253007514463
8.297029702970297,0.8099858501716989
8.316831683168317,0.8330867886114455
8.336633663366337,0.8564422077125092
8.356435643564357,0.8799468010861731
8.376237623762377,0.9035030533411406
8.396039603960396,0.927020682217923
8.415841584158416,0.9504160746295947
8.435643564356436,0.9736117391813041
8.455445544554456,0.9965357892044557
8.475247524752476,1.0191214641898634
8.495049504950495,1.0413066932111867
8.514851485148515,1.063033701037997
8.534653465346535,1.0842486557720794
8.554455445544555,1.1049013557084943
8.574257425742575,1.1249449525018143
8.594059405940595,1.1443357074441731
8.613861386138613,1.163032777616327
8.633663366336634,1.1809980287715913
8.653465346534654,1.1981958719970232
8.673267326732672,1.214593121426274
8.693069306930694,1.2301588705278383
8.712871287128714,1.2448643847437892
8.732673267326732,1.258683008496875
8.752475247524753,1.2715900848122565
8.772277227722773,1.2835628860105348
8.792079207920791,1.2945805541208606
8.811881188118813,1.304624049835932
8.831683168316832,1.3136761089867333
8.85148514851485,1.3217212056539385
8.871287128712872,1.3287455211580628
8.891089108910892,1.3347369182821927
8.91089108910891,1.3396849201817658
8.930693069306932,1.3435806935270063
8.950495049504951,1.34641703550647
8.97029702970297,1.3481883643966712
8.990099009900991,1.348890713473862
9.00990099009901,1.3485217281113344
9.029702970297029,1.3470806659705497
9.04950495049505,1.3445684002575338
9.06930693069307,1.3409874260794967
9.089108910891088,1.3363418700009426
9.10891089108911,1.3306375029655062
9.12871287128713,1.3238817568203767
9.148514851485148,1.3160837447561806
9.16831683168317,1.3072542860579424
9.188118811881187,1.2974059356541494
9.207920792079207,1.2865530190528607
9.227722772277229,1.2747116733683785
9.247524752475247,1.2618998952715963
9.267326732673267,1.2481375968445245
9.287128712871288,1.233446670487431
9.306930693069306,1.2178510642188718
9.326732673267326,1.2013768689275772
9.346534653465348,1.1840524193847484
9.366336633663366,1.165908411108104
9.386138613861386,1.1469780354886512
9.405940594059407,1.1272971359481798
9.425742574257425,1.1069043882899825
9.445544554455445,1.0858415088329378
9.465346534653467,1.064153494369991
9.485148514851485,1.0418888984479393
9.504950495049505,1.0191001488946394
9.524752475247526,0.9958439118702662
9.544554455445544,0.9721815079114376
9.564356435643564,0.9481793853482502
9.584158415841586,0.9239096559249285
9.603960396039604,0.8994506961839545
9.623762376237623,0.874887815813479
9.643564356435645,0.8503139902023235
9.663366336633663,0.8258306482223083
9.683168316831683,0.8015484969038698
9.702970297029704,0.7775883511559826
9.722772277227723,0.7540819178838488
9.742574257425742,0.7311724587730906
9.762376237623764,0.7090152241641337
9.782178217821782,0.6877775126041775
9.801980198019802,0.6676381699190082
9.821782178217823,0.6487863047719108
9.841584158415841,0.6314189765012197
9.861386138613861,0.6157376229550796
9.881188118811881,0.6019430623480713
9.900990099009901,0.5902290433792236
9.92079207920792,0.5807745393046889
9.94059405940594,0.5737352659742306
9.96039603960396,0.5692351967026671
9.98019801980198,0.5673590611784683
10.0,0.5681468562877473
10.01980198019802,0.5715912033887599
10.03960396039604,0.5776379741784077
10.05940594059406,0.5861900761879332
10.07920792079208,0.5971137898253259
10.099009900990099,0.6102467184281245
10.118811881188119,0.6254063177084503
10.138613861386139,0.642398091705816
10.158415841584159,0.6610227988647266
10.178217821782178,0.6810823083209349
10.198019801980198,0.7023840080116167
10.217821782178218,0.7247438540770587
10.237623762376238,0.7479882589640532
10.257425742574258,0.7719550573847174
10.277227722772277,0.7964937858481571
10.297029702970297,0.8214654827874762
10.316831683168317,0.8467421773856534
10.336633663366337,0.8722061956194662
10.356435643564357,0.8977493768583494
10.376237623762377,0.9232722655661989
10.396039603960396,0.9486833204307262
10.415841584158416,0.9738981668547178
10.435643564356436,0.9988389071204192
10.455445544554454,1.023433494599031
10.475247524752476,1.0476151731695282
10.495049504950495,1.0713219797618634
10.514851485148514,1.0944963060528803
10.534653465346535,1.1170845143787822
10.554455445544555,1.1390366025666505
10.574257425742573,1.1603059124070114
10.594059405940595,1.1808488767359588
10.613861386138614,1.200624800466299
10.633663366336632,1.219595671335051
10.653465346534654,1.237725996576762
10.673267326732674,1.2549826621629725
