Time (s),Filtered Signal
0.0,-0.06634167307371802
0.033370165745856356,0.08146297964610774
0.06674033149171271,0.06192943957881014
0.10011049723756907,-0.2121618210932771
0.13348066298342542,-0.7056898399296472
0.16685082872928178,-1.2784992941629738
0.20022099447513814,-1.7507201309189488
0.2335911602209945,-1.982622945738651
0.26696132596685085,-1.9310892804027964
0.30033149171270723,-1.6591832774731317
0.33370165745856356,-1.2993763615334877
0.3670718232044199,-0.9918753799154815
0.4004419889502763,-0.8277952472436438
0.43381215469613266,-0.8206091102627499
0.467182320441989,-0.9135394931147333
0.5005524861878453,-1.0139476255227484
0.5339226519337017,-1.035879915289121
0.5672928176795581,-0.9319567286655077
0.6006629834254145,-0.7038981299771886
0.6340331491712707,-0.3919952639164379
0.6674033149171271,-0.05228512128552896
0.7007734806629835,0.2669843981442116
0.7341436464088398,0.5404886597295023
0.7675138121546962,0.7686429744736764
0.8008839779005525,0.9693141861766754
0.8342541436464089,1.1631706374284076
0.8676243093922653,1.3590419875487536
0.9009944751381216,1.5454340714521744
0.934364640883978,1.692170236614246
0.9677348066298344,1.762169752371678
1.0011049723756906,1.7287192448433215
1.0344751381215471,1.5902968384535479
1.0678453038674034,1.3751248399634175
1.1012154696132597,1.1318163238218844
1.1345856353591162,0.9091912847514941
1.1679558011049724,0.7342954035605245
1.201325966850829,0.5995417361622231
1.2346961325966852,0.4662618225995574
1.2680662983425415,0.28421550452955857
1.301436464088398,0.018519130853442593
1.3348066298342542,-0.3287781016388815
1.3681767955801105,-0.7132064239467234
1.401546961325967,-1.0617396362128373
1.4349171270718233,-1.3000970546360449
1.4682872928176796,-1.3813631734566745
1.501657458563536,-1.3036316069777398
1.5350276243093923,-1.110029729029327
1.5683977900552488,-0.8726906675861836
1.601767955801105,-0.6686610998133854
1.6351381215469614,-0.5574537718513171
1.6685082872928179,-0.5670168692745797
1.7018784530386741,-0.6899017564128951
1.7352486187845306,-0.8875683283231259
1.768618784530387,-1.0997510956559207
1.8019889502762432,-1.2569394610826443
1.8353591160220997,-1.2951813359334126
1.868729281767956,-1.1718977579843424
1.9020994475138122,-0.8793160845838341
1.9354696132596687,-0.4503850761187209
1.968839779005525,0.04715237800712569
2.0022099447513813,0.52877473222692
2.0355801104972375,0.9178780825528063
2.0689502762430942,1.1677848395623969
2.1023204419889505,1.2721570085100864
2.135690607734807,1.2600212581197097
2.169060773480663,1.178759905185375
2.2024309392265193,1.0736879436415663
2.235801104972376,0.9734318198031503
2.2691712707182323,0.8862338278716674
2.3025414364640886,0.806162742145443
2.335911602209945,0.7235893296679236
2.369281767955801,0.6335069397102628
2.402651933701658,0.538125208319056
2.436022099447514,0.4442788540819021
2.4693922651933704,0.35883045164377547
2.5027624309392267,0.2851414939338533
2.536132596685083,0.2217003726877189
2.5695027624309392,0.16216428166384061
2.602872928176796,0.09588525738914491
2.636243093922652,0.009256804460569527
2.6696132596685085,-0.11066787268028815
2.7029834254143648,-0.2694834437262487
2.736353591160221,-0.4574510852253349
2.7697237569060777,-0.6448976523672661
2.803093922651934,-0.7863738725533426
2.8364640883977903,-0.8359170053866788
2.8698342541436466,-0.769678139034833
2.903204419889503,-0.6060486204142335
2.936574585635359,-0.41118021816153333
2.969944751381216,-0.2820192769518613
3.003314917127072,-0.3089671588752324
3.0366850828729284,-0.531700241911805
3.0700552486187846,-0.9083739494169196
3.103425414364641,-1.315755288388611
3.1367955801104976,-1.5856637719663564
3.170165745856354,-1.5665478307597072
3.20353591160221,-1.1860403800174895
3.2369060773480665,-0.48761820760005425
3.2702762430939227,0.3760422701297179
3.3036464088397794,1.1926215702139555
3.3370165745856357,1.7639057714981183
3.370386740331492,1.9743154062818207
3.4037569060773483,1.826652260871197
3.4371270718232045,1.431334027616252
3.4704972375690613,0.95526895215733
3.5038674033149175,0.5535825083836095
3.537237569060774,0.3138055650462978
3.57060773480663,0.23491205510309887
3.6039779005524863,0.24640957134794542
3.6373480662983426,0.25415078723233636
3.6707182320441993,0.18875071405386798
3.7040883977900556,0.03422027160195788
3.737458563535912,-0.17329558261358147
3.770828729281768,-0.37116489527504337
3.8041988950276244,-0.5040179319307609
3.837569060773481,-0.5481252099771381
3.8709392265193374,-0.516502191371965
3.9043093922651937,-0.4459793434750689
3.93767955801105,-0.3759951645050761
3.9710497237569062,-0.33094912215664907
4.0044198895027625,-0.31371832921942155
4.037790055248619,-0.3107389832290972
4.071160220994475,-0.3031752570071405
4.104530386740332,-0.27697793012488614
4.1379005524861885,-0.22715910094456643
4.171270718232044,-0.15610701107608094
4.204640883977901,-0.0692559837924968
4.238011049723757,0.027955698360249026
4.271381215469614,0.12998226304250457
4.30475138121547,0.22900595206862842
4.338121546961326,0.3134914230856525
4.371491712707183,0.36967153276075837
4.404861878453039,0.3859691697913496
4.438232044198895,0.3581799143667509
4.471602209944752,0.292566996399991
4.504972375690608,0.20515451731847334
4.538342541436465,0.11750131563374913
4.5717127071823205,0.05073023358292725
4.605082872928177,0.019828517704325546
4.638453038674034,0.029531682481619487
4.67182320441989,0.07235983043315636
4.7051933701657465,0.12920243796831946
4.738563535911602,0.17302234638409877
4.771933701657459,0.17597361176310172
4.805303867403316,0.11894387784991561
4.8386740331491715,0.0006178456430279024
4.872044198895028,-0.15810311281385797
4.905414364640884,-0.3177459967366405
4.938784530386741,-0.43232964906794996
4.972154696132597,-0.46606890731800704
5.005524861878453,-0.40801360847904217
5.03889502762431,-0.27806759578524826
5.072265193370166,-0.12127980704036552
5.105635359116023,0.007610084654743366
5.1390055248618784,0.0632030166707849
5.172375690607735,0.024590527002509473
5.205745856353592,-0.09879830600153926
5.239116022099448,-0.2719137821274141
5.272486187845304,-0.44642896729167786
5.30585635359116,-0.5754069938981402
5.339226519337017,-0.6252034722296055
5.372596685082874,-0.5816742924642125
5.4059668508287295,-0.45040115324275665
5.439337016574586,-0.25247530663019707
5.472707182320442,-0.017980549196156718
5.506077348066299,0.22089761997661783
5.5394475138121555,0.4356471208237742
5.572817679558011,0.6050601493495318
5.606187845303868,0.7163571352135574
5.639558011049724,0.7643910129060993
5.672928176795581,0.750346477021187
5.706298342541437,0.6813559343088786
5.739668508287293,0.5713257398945624
5.77303867403315,0.44159822345228544
5.806408839779006,0.3191553248378871
5.839779005524862,0.2309439518623852
5.873149171270718,0.19540718280671776
5.906519337016575,0.21489141410119256
5.939889502762432,0.27326305749311636
5.9732596685082875,0.34085014207295894
6.006629834254144,0.3847921780252343
6.04,0.37968509547181234
6.073370165745857,0.3134636096124706
6.1067403314917135,0.18698237678938529
6.140110497237569,0.010232785920695956
6.173480662983426,-0.1999875624893186
6.206850828729282,-0.4186189731343198
6.240220994475139,-0.6098588431869127
6.273591160220995,-0.7298503483630426
6.306961325966851,-0.7389410175685608
6.340331491712708,-0.6210976790474559
6.373701657458564,-0.40064179648886183
6.40707182320442,-0.14424079308067278
6.440441988950277,0.058011264477580156
6.473812154696133,0.1271329139181526
6.50718232044199,0.029969925243763244
6.5405524861878455,-0.20355161153709703
6.573922651933702,-0.49063984377540404
6.607292817679559,-0.7300182323322455
6.640662983425415,-0.8454196500281635
6.674033149171271,-0.8187333805635293
6.707403314917127,-0.697823779086371
6.740773480662984,-0.5748392789171843
6.774143646408841,-0.5432441504141501
6.8075138121546965,-0.6510483473399981
6.840883977900553,-0.8703100616195915
6.874254143646409,-1.097628465751306
6.907624309392266,-1.1884311586677183
6.9409944751381225,-1.0135582701045263
6.974364640883978,-0.5158793078174896
7.007734806629835,0.2571808686076814
7.041104972375691,1.160369950692913
7.074475138121548,1.9952959600480011
7.107845303867403,2.5754196242847063
7.14121546961326,2.7854616110017743
7.174585635359117,2.613082998755993
7.207955801104973,2.1438276737896325
7.241325966850829,1.5255724114249325
7.274696132596685,0.9188258422375822
7.308066298342542,0.45089490404410093
7.341436464088399,0.18679295832215662
7.3748066298342545,0.12192889442822209
7.408176795580111,0.1946839248763953
7.441546961325967,0.3124707524167626
7.474917127071824,0.382674766288738
7.5082872928176805,0.3395582939007366
7.541657458563536,0.15975847817080988
7.575027624309393,-0.13740294795345373
7.608397790055249,-0.5034396540727492
7.641767955801106,-0.8816366792452363
7.675138121546962,-1.226293292665944
7.708508287292818,-1.512408710722239
7.741878453038675,-1.7328429938015595
7.775248618784531,-1.8863006316845548
7.808618784530387,-1.9641412594829768
7.841988950276244,-1.9446342417262052
7.8753591160221,-1.7993115071589054
7.908729281767957,-1.5092536097559037
7.9420994475138125,-1.082890803690725
7.975469613259669,-0.5648201227529602
8.008839779005525,-0.028943555935821774
8.042209944751383,0.44270420909223734
8.075580110497238,0.7862107697485509
8.108950276243094,0.9749435276323033
8.14232044198895,1.0232225324771989
8.175690607734808,0.9743223219693848
8.209060773480664,0.8802582762587672
8.24243093922652,0.7835878165041639
8.275801104972377,0.7083807957507734
8.309171270718233,0.6612238232853818
8.342541436464089,0.6378276445307737
8.375911602209946,0.6294433609220611
8.409281767955802,0.625831507677943
8.442651933701658,0.6154229672177596
8.476022099447514,0.5855792759750685
8.509392265193371,0.5251680708485414
8.542762430939227,0.4289975295616725
8.576132596685083,0.30129490401822895
8.60950276243094,0.15523591973681397
8.642872928176796,0.0077461773703774335
8.676243093922652,-0.12806271507897912
8.709613259668508,-0.24850156617881394
8.742983425414366,-0.359265391472293
8.776353591160222,-0.4691081062916394
8.809723756906077,-0.5803984547308196
8.843093922651935,-0.6820607583157797
8.87646408839779,-0.7497388493474442
8.909834254143647,-0.7544637867334638
8.943204419889504,-0.6764397019529651
8.97657458563536,-0.5173159275989059
9.009944751381216,-0.3043556067562295
9.043314917127072,-0.08339078901245632
9.07668508287293,0.09729268418078359
9.110055248618785,0.20554937581006152
9.143425414364641,0.23835428309587373
9.176795580110499,0.22318309485935822
9.210165745856354,0.20653150175410745
9.24353591160221,0.2336494276085999
9.276906077348068,0.3274360952901439
9.310276243093924,0.47537344910957413
9.34364640883978,0.630832253374912
9.377016574585635,0.7296457801276672
9.410386740331493,0.7162868084092262
9.443756906077349,0.5689848449424829
9.477127071823205,0.312321065777813
9.510497237569062,0.010422091746684525
9.543867403314918,-0.2575548661387767
9.577237569060774,-0.42925105114407486
9.610607734806631,-0.48360736109499974
9.643977900552487,-0.44631793635380856
9.677348066298343,-0.37360174445539535
9.710718232044199,-0.32241761115358764
9.744088397790057,-0.32207360830023657
9.777458563535912,-0.36143458625724806
9.810828729281768,-0.3979260109986939
9.844198895027626,-0.3833431553200544
9.877569060773482,-0.2928079868298895
9.910939226519337,-0.1415156801817195
9.944309392265193,0.01988225445728102
9.97767955801105,0.12939014767543372
10.011049723756907,0.14518271149178014
10.044419889502763,0.06828299851774625
10.07779005524862,-0.05568425901887124
10.111160220994476,-0.15731084821481026
10.144530386740332,-0.17694234273132112
10.17790055248619,-0.09437263613597047
10.211270718232045,0.06025699778157063
10.244640883977901,0.22003577045904704
10.278011049723757,0.31274829326982495
10.311381215469615,0.29472869152758113
10.34475138121547,0.17072768026896423
10.378121546961326,-0.009112409663890875
10.411491712707184,-0.1724985336550689
10.44486187845304,-0.25635096721634143
10.478232044198895,-0.23156305671321573
10.511602209944753,-0.11111389063492268
10.544972375690609,0.05978723332350076
10.578342541436465,0.22483181019965914
10.61171270718232,0.33858134671529605
10.645082872928178,0.3802871524852987
10.678453038674034,0.35562373670046077
10.71182320441989,0.28816123313699393
10.745193370165747,0.20623640445760114
10.778563535911603,0.13153271827706556
10.811933701657459,0.07355751817992347
10.845303867403315,0.030828525017418913
10.878674033149172,-0.00336287818586119
10.912044198895028,-0.03418556178271358
10.945414364640884,-0.060816827885244035
10.978784530386742,-0.07613572809070192
11.012154696132598,-0.0704137670668342
11.045524861878453,-0.03709729294219266
11.078895027624311,0.022184004831796875
11.112265193370167,0.09602787752740585
11.145635359116023,0.16629198514389723
11.179005524861878,0.21476027057240837
11.212375690607736,0.2304913392354005
11.245745856353592,0.2142359818202473
11.279116022099448,0.1775054656425931
11.312486187845305,0.13649461711999655
11.345856353591161,0.10379598126428398
11.379226519337017,0.08215232120320497
11.412596685082875,0.0635480658813206
11.44596685082873,0.03415543601611861
11.479337016574586,-0.017494434639456158
11.512707182320442,-0.09356539072093148
11.5460773480663,-0.18517511179614995
11.579447513812156,-0.2772733892853625
11.612817679558011,-0.3580672600610101
11.646187845303869,-0.42811476872931703
11.679558011049725,-0.5034936229860719
11.71292817679558,-0.6094940554541373
11.746298342541436,-0.7656306555334291
11.779668508287294,-0.9677687672257796
11.81303867403315,-1.1764234258527269
11.846408839779006,-1.3196482133836045
11.879779005524863,-1.3136476879375456
11.91314917127072,-1.095843691624995
11.946519337016575,-0.6572831017135718
11.979889502762433,-0.05845103313962207
12.013259668508288,0.5823918485648271
12.046629834254144,1.1272910737778228
12.08,1.4685478246543529
12.113370165745858,1.5682821179550097
12.146740331491714,1.4685742995550544
12.18011049723757,1.2666691099609477
12.213480662983427,1.0669360519831084
12.246850828729283,0.9330706824549483
12.280220994475139,0.863928622001071
12.313591160220996,0.8042560883193544
12.346961325966852,0.6836808499941373
12.380331491712708,0.4629302769943037
12.413701657458564,0.1627204992001243
12.447071823204421,-0.1401802736868955
12.480441988950277,-0.3482701704523207
12.513812154696133,-0.39236483191850796
12.54718232044199,-0.2694461545156045
12.580552486187846,-0.04968684278505165
12.613922651933702,0.1517121998769675
12.64729281767956,0.22471797593659212
12.680662983425416,0.11262663081754604
12.714033149171271,-0.1646858541406735
12.747403314917127,-0.5227019216575646
12.780773480662985,-0.8522209803452596
12.81414364640884,-1.066852801140438
12.847513812154697,-1.1350606689214282
12.880883977900554,-1.0829770095591948
12.91425414364641,-0.9698504643686575
12.947624309392266,-0.8515812738441273
12.980994475138122,-0.7523739599953752
13.01436464088398,-0.6582894714920001
13.047734806629835,-0.5335205922767734
13.081104972375691,-0.34797573205909843
13.114475138121549,-0.09973545035234054
13.147845303867404,0.17976397117582105
13.18121546961326,0.4394890700973336
13.214585635359118,0.6327394117868982
13.247955801104974,0.737737178077509
13.28132596685083,0.7643555014800508
13.314696132596685,0.7447949426002151
13.348066298342543,0.71460632215808
13.381436464088399,0.6946676422146492
13.414806629834255,0.682919632895457
13.448176795580112,0.6587107189005166
13.481546961325968,0.5962035200460384
13.514917127071824,0.47958035772889507
13.548287292817681,0.31282736457860993
13.581657458563537,0.11985188570675856
13.615027624309393,-0.06501261957772422
13.648397790055249,-0.21195066216134617
13.681767955801106,-0.3092447655387063
13.715138121546962,-0.3686044720434269
13.748508287292818,-0.418467219474413
13.781878453038676,-0.4871147373297517
13.815248618784532,-0.5832465356149069
13.848618784530387,-0.6844231906571637
13.881988950276245,-0.7412746135877684
13.9153591160221,-0.6979623300473362
13.948729281767957,-0.5205010592689123
13.982099447513813,-0.2190686929507459
14.01546961325967,0.14803204455305252
14.048839779005526,0.4926277869730301
14.082209944751382,0.729772920036316
14.11558011049724,0.810428287930731
14.148950276243095,0.7384057745506439
14.182320441988951,0.5641713993632945
14.215690607734807,0.3596078303683785
14.249060773480664,0.18674002944662588
14.28243093922652,0.07525420796593749
14.315801104972376,0.017982888928338436
14.349171270718234,-0.016089833289994457
14.38254143646409,-0.060100222180150834
14.415911602209945,-0.1306761420873261
14.449281767955803,-0.22100819328418317
14.482651933701659,-0.3071362938059824
14.516022099447515,-0.36213048749690174
14.54939226519337,-0.3697415120575275
14.582762430939228,-0.33079244848620815
14.616132596685084,-0.26045725850196744
14.64950276243094,-0.17956741525551503
14.682872928176797,-0.10555838857178934
14.716243093922653,-0.04771570452702304
14.749613259668509,-0.008060824741840469
14.782983425414367,0.014297094723457197
14.816353591160222,0.019232404487778215
14.849723756906078,0.005131399122422046
14.883093922651934,-0.02777640249446516
14.916464088397792,-0.07276692203140239
14.949834254143648,-0.1144267342294186
14.983204419889503,-0.13165464325896428
15.016574585635361,-0.1056939330520934
15.049944751381217,-0.029782367109925875
15.083314917127073,0.0847005394469811
15.116685082872928,0.20964845302088927
15.150055248618786,0.3096836864405664
15.183425414364642,0.35582993961291765
15.216795580110498,0.33700443994848306
15.250165745856355,0.2637238619003359
15.283535911602211,0.1623184390846392
15.316906077348067,0.06285069416899926
15.350276243093925,-0.012895835339999617
15.38364640883978,-0.057323010775226245
15.417016574585636,-0.07442274961904968
15.450386740331492,-0.07121186528510728
15.48375690607735,-0.04920517241591873
15.517127071823205,-0.0019474981275153596
15.550497237569061,0.07899649029031833
15.583867403314919,0.19258318710998837
15.617237569060775,0.318476948982933
15.65060773480663,0.4162873175403194
15.683977900552488,0.437108511449391
15.717348066298344,0.3439316053816193
15.7507182320442,0.13184212462493933
15.784088397790056,-0.16243011196373625
15.817458563535913,-0.46793566172201323
15.85082872928177,-0.7024487526031998
15.884198895027625,-0.8018844259230944
15.917569060773483,-0.7436894753001039
15.950939226519338,-0.5542400760880738
15.984309392265194,-0.297513779482968
16.01767955801105,-0.050534200830877535
16.051049723756908,0.12371564895386641
16.084419889502765,0.19523238410465976
16.11779005524862,0.17172543348801686
16.151160220994477,0.08959158618896523
16.18453038674033,-0.003189427669386689
16.21790055248619,-0.06461840695555977
16.251270718232046,-0.07059937743660946
16.2846408839779,-0.01869700201290942
16.318011049723758,0.07521198819213637
16.351381215469615,0.18434168341562868
16.38475138121547,0.27940937120091025
16.418121546961327,0.33621011984406646
16.451491712707185,0.34158678532702574
16.48486187845304,0.2971739314568956
16.518232044198896,0.21974899798206773
16.551602209944754,0.13684604736685665
16.584972375690608,0.07744510879492097
16.618342541436466,0.060008583689905616
16.651712707182323,0.08261231776334567
16.685082872928177,0.12056509029626901
16.718453038674035,0.13455722040183657
16.751823204419892,0.08755131383965005
16.785193370165747,-0.036395888651478664
16.818563535911604,-0.2204804593087673
16.851933701657458,-0.41747528346363344
16.885303867403316,-0.5665471361837978
16.918674033149173,-0.6177842629057959
16.952044198895027,-0.5532336836724316
16.985414364640885,-0.3943053948646926
17.018784530386743,-0.19171158814416972
17.052154696132597,-0.0026449517771020554
17.085524861878454,0.1336674496065511
17.118895027624312,0.2100085839512331
17.152265193370166,0.24815629659095645
17.185635359116024,0.2811720106027298
17.21900552486188,0.33122193058654603
17.252375690607735,0.39540440114176756
17.285745856353593,0.44727511760451505
17.31911602209945,0.4526927075134114
17.352486187845304,0.390592935680495
