Time (s),Filtered Signal
0.0,0.1252261921816379
0.033370535714285714,0.0641090772939208
0.06674107142857143,0.028245257834758397
0.10011160714285713,0.03686780646662585
0.13348214285714285,0.09730298560294859
0.16685267857142858,0.2026840655596933
0.20022321428571427,0.33339828859071047
0.23359375,0.46223207019298873
0.2669642857142857,0.5620209603617166
0.30033482142857143,0.6135394658041973
0.33370535714285715,0.610903329155207
0.36707589285714287,0.562319679889046
0.40044642857142854,0.4856201495182468
0.43381696428571426,0.4001301992380654
0.4671875,0.31817714124952595
0.5005580357142857,0.2400419960857051
0.5339285714285714,0.15497112383806325
0.5672991071428571,0.04826093449334735
0.6006696428571429,-0.08856657277521877
0.6340401785714286,-0.24944516708624978
0.6674107142857143,-0.4120037089551489
0.70078125,-0.5443524552129332
0.7341517857142857,-0.6182468907290833
0.7675223214285715,-0.6228444503458354
0.8008928571428571,-0.5722206997447045
0.8342633928571428,-0.5022217403753451
0.8676339285714285,-0.45715369951091
0.9010044642857142,-0.4717904240155433
0.934375,-0.5565831443668575
0.9677455357142857,-0.6925275371366001
1.0011160714285714,-0.8377173591806201
1.0344866071428571,-0.9424987989086638
1.0678571428571428,-0.9667394456692021
1.1012276785714286,-0.8923802966869425
1.1345982142857143,-0.7270289581145734
1.16796875,-0.49852569376284794
1.2013392857142857,-0.24416157860059604
1.2347098214285714,0.0002516638645083285
1.2680803571428572,0.20756712978734285
1.3014508928571429,0.36189339501906564
1.3348214285714286,0.45838392023351676
1.3681919642857143,0.5025959836350008
1.4015625,0.5102875962817955
1.4349330357142858,0.5064422354327415
1.4683035714285715,0.521430895489603
1.5016741071428572,0.5833429085202111
1.535044642857143,0.7080753717746514
1.5684151785714286,0.8912445048097101
1.6017857142857141,1.1066619874849515
1.6351562499999999,1.3139573706818846
1.6685267857142856,1.4733412193466764
1.7018973214285713,1.560712689873561
1.735267857142857,1.574544076890392
1.7686383928571427,1.5294229061010993
1.8020089285714285,1.4388737474468873
1.8353794642857142,1.2977507932871368
1.86875,1.0766701775359226
1.9021205357142856,0.735035728697793
1.9354910714285714,0.24793849461489695
1.968861607142857,-0.36748612002401615
2.002232142857143,-1.0421686285518612
2.0356026785714287,-1.6694459427510346
2.0689732142857142,-2.138501235941445
2.10234375,-2.372029024812914
2.1357142857142857,-2.3519201506159924
2.169084821428571,-2.123336911728185
2.202455357142857,-1.7772071753279859
2.2358258928571426,-1.4188575730567292
2.2691964285714286,-1.1339388120135956
2.302566964285714,-0.9624299500141172
2.3359375,-0.8886613422776309
2.3693080357142855,-0.8506995471815663
2.4026785714285714,-0.7664603405913061
2.436049107142857,-0.5677471141557537
2.469419642857143,-0.22952178630154388
2.5027901785714284,0.21734484847007032
2.5361607142857143,0.6952674882196742
2.56953125,1.1073022134984742
2.6029017857142858,1.3712558881115835
2.6362723214285713,1.4468469666169257
2.669642857142857,1.3460584608002883
2.7030133928571427,1.1244399116536108
2.7363839285714286,0.8586615945871374
2.769754464285714,0.6199778579434623
2.803125,0.45330533925476424
2.8364955357142856,0.3682049804736662
2.8698660714285715,0.34305672184793534
2.903236607142857,0.3390772939429338
2.936607142857143,0.31796304962661964
2.9699776785714285,0.2565003138121663
3.0033482142857144,0.15336035820176205
3.03671875,0.026662506829836286
3.070089285714286,-0.0955546396246845
3.1034598214285714,-0.18740179600238446
3.1368303571428573,-0.2347673313210507
3.170200892857143,-0.23908938933031315
3.2035714285714283,-0.21461532114268078
3.2369419642857142,-0.1812000422079389
3.2703124999999997,-0.15619152561695543
3.3036830357142857,-0.14870005361500302
3.337053571428571,-0.15791260536725418
3.370424107142857,-0.17513621638657262
3.4037946428571426,-0.1879821698924845
3.4371651785714286,-0.1849295893227918
3.470535714285714,-0.15902772553689268
3.50390625,-0.10998595566855854
3.5372767857142855,-0.04401069290871485
3.5706473214285714,0.029160959806163476
3.604017857142857,0.1018002892375737
3.637388392857143,0.1743721132750326
3.6707589285714284,0.25869645118501483
3.7041294642857143,0.37428202578013003
3.7375,0.5366846952882517
3.7708705357142858,0.7415824461598007
3.8042410714285713,0.9526549121396309
3.837611607142857,1.102067988175022
3.8709821428571427,1.1077787421595053
3.9043526785714286,0.9035527804141119
3.937723214285714,0.46984805873287366
3.97109375,-0.14874319688160578
4.004464285714286,-0.848924931129769
4.0378348214285715,-1.4963689811293492
4.0712053571428575,-1.9650503631115352
4.1045758928571425,-2.173055382911258
4.1379464285714285,-2.1023457434766666
4.171316964285714,-1.7977066852124926
4.2046875,-1.3483929025056056
4.238058035714285,-0.8609686888101576
4.271428571428571,-0.43232083541654
4.304799107142857,-0.12917121264025763
4.338169642857142,0.02298206344116888
4.371540178571428,0.041001969421084944
4.404910714285714,-0.023917280122757255
4.43828125,-0.1017715803506756
4.471651785714285,-0.12365047246019599
4.505022321428571,-0.04110820887268613
4.538392857142857,0.16088654201267646
4.571763392857143,0.46205517313380995
4.605133928571428,0.8167536029555202
4.638504464285714,1.1714876568833497
4.671875,1.4821097234573795
4.705245535714286,1.72296477878104
4.738616071428571,1.8845875994182477
4.771986607142857,1.9629640200327705
4.805357142857143,1.9482868871697603
4.838727678571429,1.821555961869932
4.872098214285714,1.562722738671495
4.90546875,1.1668127257865648
4.938839285714286,0.6587950828588597
4.972209821428572,0.09742753683818622
5.005580357142857,-0.4365341790029551
5.038950892857143,-0.8642922158319359
5.072321428571429,-1.1351241532570029
5.105691964285715,-1.2431619042103785
5.1390625,-1.2274738581178113
5.172433035714286,-1.155510104860149
5.2058035714285715,-1.0969099350161227
5.2391741071428575,-1.0980724498289702
5.2725446428571425,-1.1667569872945103
5.3059151785714285,-1.2714416818287673
5.339285714285714,-1.3545294145187297
5.3726562499999995,-1.353980462950723
5.406026785714285,-1.225850707743694
5.439397321428571,-0.9606358402083588
5.472767857142857,-0.5885710568218778
5.506138392857142,-0.17222379346403355
5.539508928571428,0.2117989349111928
5.572879464285714,0.4968607294499887
5.60625,0.6483020354437756
5.639620535714285,0.6751291274716807
5.672991071428571,0.625668678725579
5.706361607142857,0.5673501576477672
5.739732142857143,0.5579592278733209
5.773102678571428,0.6205978413587759
5.806473214285714,0.7339999439684577
5.83984375,0.8432424785039931
5.873214285714286,0.8861638936714495
5.906584821428571,0.8229498027196215
5.939955357142857,0.6546824114659913
5.973325892857143,0.42226836119010785
6.006696428571429,0.18713888281097726
6.040066964285714,0.004076465018294847
6.0734375,-0.10029490624432374
6.106808035714286,-0.13380467132091833
6.140178571428572,-0.12877201503777652
6.173549107142857,-0.12284803769324164
6.206919642857143,-0.14120691424759255
6.240290178571429,-0.18823162460600043
6.273660714285715,-0.2506582811458771
6.30703125,-0.3080363103302742
6.340401785714286,-0.3435789429155818
6.3737723214285715,-0.3499396322935603
6.407142857142857,-0.32857943057060934
6.4405133928571425,-0.28537491351745387
6.4738839285714285,-0.2266684014579968
6.507254464285714,-0.15853907801876516
6.5406249999999995,-0.08897051956382972
6.573995535714285,-0.03000392816808142
6.607366071428571,0.0033651496817877534
6.640736607142857,-0.0013884879753262944
6.674107142857142,-0.046819879105813686
6.707477678571428,-0.12043910723858829
6.740848214285714,-0.19608974191519837
6.77421875,-0.24257360911963075
6.807589285714285,-0.23608616311348882
6.840959821428571,-0.17039695184479842
6.874330357142857,-0.05945905554078084
6.907700892857143,0.0690040850548233
6.941071428571428,0.18562918458821054
6.974441964285714,0.2710829497995703
7.0078125,0.3216900406851478
7.041183035714286,0.346993883630356
7.074553571428571,0.3615647161039648
7.107924107142857,0.3760315886705533
7.141294642857143,0.39200124685476334
7.174665178571429,0.4027622896325359
7.208035714285714,0.3983165143791299
7.24140625,0.371266826437699
7.274776785714286,0.320301411704942
7.308147321428572,0.24994698503993892
7.341517857142857,0.1675600063851895
7.374888392857143,0.07985287265230068
7.408258928571429,-0.008968198235041042
7.441629464285715,-0.09675915271090903
7.475,-0.1815350673601232
7.508370535714286,-0.2597160402626922
7.5417410714285715,-0.32579539510239264
7.575111607142857,-0.3736692179488288
7.6084821428571425,-0.3988554793952274
7.6418526785714285,-0.40039731831704223
7.675223214285714,-0.3815142970364015
7.7085937499999995,-0.3487948730845747
7.741964285714285,-0.31051097831941266
7.775334821428571,-0.2750973462846506
7.808705357142857,-0.2507081302701939
7.842075892857142,-0.24597968863585334
7.875446428571428,-0.27094489273904654
7.908816964285714,-0.33608757593139527
7.9421875,-0.44763657873407453
7.975558035714285,-0.5989680499458411
8.008928571428571,-0.7611343420113863
8.042299107142856,-0.8785656162115907
8.075669642857143,-0.8765660357260057
8.109040178571428,-0.68351743915682
8.142410714285715,-0.26308856948948695
8.17578125,0.3563479178303137
8.209151785714285,1.0712500481220797
8.242522321428572,1.7223782823277622
8.275892857142857,2.1422671466424688
8.309263392857142,2.2140620146165335
8.342633928571429,1.9168358916592576
8.376004464285714,1.3362631694190101
8.409375,0.6344486483274382
8.442745535714286,-0.008536570418638917
8.47611607142857,-0.4560928088265555
8.509486607142858,-0.6540048743073548
8.542857142857143,-0.6333393168027651
8.576227678571428,-0.4811518159484423
8.609598214285715,-0.29639970557821294
8.64296875,-0.15211867915814242
8.676339285714285,-0.0782692590318306
8.709709821428572,-0.0674344386336948
8.743080357142857,-0.09454142704786395
8.776450892857143,-0.13714998355575603
8.809821428571428,-0.18580696254663434
8.843191964285714,-0.24172045155860997
8.8765625,-0.3067310061197959
8.909933035714285,-0.3741423968140272
8.94330357142857,-0.42707267765197354
8.976674107142857,-0.445385570496769
9.010044642857142,-0.4165824294959387
9.04341517857143,-0.3435923013922337
9.076785714285714,-0.24440269614880175
9.11015625,-0.1434971806759364
9.143526785714286,-0.060002902453102865
9.176897321428571,0.0006105338817470648
9.210267857142856,0.046551545921214375
9.243638392857143,0.09155381920177902
9.277008928571428,0.14337808766868196
9.310379464285715,0.19571352659424
9.34375,0.2283098384121355
9.377120535714285,0.21558273851362278
9.410491071428572,0.13930673209385597
9.443861607142857,-0.0010813783384167404
9.477232142857142,-0.18555250559731354
9.510602678571429,-0.37888788813444035
9.543973214285714,-0.5412617086622815
9.57734375,-0.6389624412403955
9.610714285714286,-0.6513076701317151
9.64408482142857,-0.5727273883382628
9.677455357142858,-0.41157073425250096
9.710825892857143,-0.1878340535670936
9.744196428571428,0.06923348080782878
9.777566964285715,0.3243326575278892
9.8109375,0.5412494081217173
9.844308035714285,0.6898607813291523
9.877678571428572,0.7531465324924117
9.911049107142857,0.731428291836988
9.944419642857143,0.6418452065958391
9.977790178571428,0.5131465307738838
10.011160714285714,0.37797874386356894
10.04453125,0.2657015421356092
10.077901785714285,0.19786965721607064
10.11127232142857,0.1864610878527397
10.144642857142857,0.2331686881362258
10.178013392857142,0.3280081232045632
10.21138392857143,0.4473794096064205
10.244754464285714,0.5541823644183134
10.278125,0.6034305579252164
10.311495535714286,0.5546596737077826
10.344866071428571,0.38802930816853193
10.378236607142856,0.11707595518050967
10.411607142857143,-0.20942949889301254
10.444977678571428,-0.519993734636951
10.478348214285715,-0.7438578413933198
10.51171875,-0.8360233877685664
10.545089285714285,-0.7929613940164947
10.578459821428572,-0.6520749247197006
10.611830357142857,-0.47537529326049993
10.645200892857142,-0.3248461230683026
10.678571428571429,-0.240223642502891
10.711941964285714,-0.22814552815130262
10.745312499999999,-0.266023683573455
10.778683035714286,-0.31739553324805747
10.81205357142857,-0.3508854926238538
10.845424107142858,-0.3541073594860602
10.878794642857143,-0.33688135009952086
10.912165178571428,-0.32336092167911423
10.945535714285715,-0.3375769219057074
10.97890625,-0.38939256629198105
11.012276785714285,-0.4671043726434957
11.045647321428572,-0.5396206318845653
11.079017857142857,-0.5669935482567273
11.112388392857143,-0.5148689820004536
11.145758928571428,-0.3672718137965329
11.179129464285714,-0.1331844538610585
11.2125,0.15512102899014862
11.245870535714285,0.4511571733223769
11.27924107142857,0.7075644263980093
11.312611607142857,0.8894293601252047
11.345982142857142,0.9834169607788589
11.37935267857143,0.9998443776513625
11.412723214285714,0.9669530820140884
11.44609375,0.9191375671604483
11.479464285714286,0.8831097846447292
11.512834821428571,0.8671257308384446
11.546205357142856,0.8577706877406476
11.579575892857143,0.826202155800192
11.612946428571428,0.7418846083684533
11.646316964285715,0.5882791091209899
11.6796875,0.3734699416911548
11.713058035714285,0.1303666300023721
11.746428571428572,-0.09452884239960904
11.779799107142857,-0.2596249712182524
11.813169642857142,-0.3462535893425408
11.846540178571429,-0.36814753333110345
11.879910714285714,-0.3676089309954513
11.913281249999999,-0.3990996342557771
11.946651785714286,-0.5064113344898318
11.98002232142857,-0.7025646025023958
12.013392857142858,-0.9607725337138497
12.046763392857143,-1.2204827253554902
12.080133928571428,-1.4065576438131777
12.113504464285715,-1.4545962176176266
12.146875,-1.333192911756285
12.180245535714285,-1.055199431528705
12.213616071428572,-0.6741085687954438
12.246986607142857,-0.2669850884279802
12.280357142857143,0.08992285031038681
12.313727678571428,0.3442848682298101
12.347098214285714,0.48153513640987144
12.38046875,0.5249856699323779
12.413839285714285,0.5227357126438117
12.44720982142857,0.5266056247451487
12.480580357142857,0.5710857232813153
12.513950892857142,0.6601925690840582
12.54732142857143,0.7671546667579714
12.580691964285714,0.8469287873763284
12.6140625,0.8563942242097935
12.647433035714286,0.7737419675215411
12.680803571428571,0.6086596028598045
12.714174107142856,0.3986970192580445
12.747544642857143,0.19329660301707416
12.780915178571428,0.03273672684633628
12.814285714285713,-0.06812566203785181
12.84765625,-0.12347531401076753
12.881026785714285,-0.16575291802058337
12.914397321428572,-0.22596019477410048
12.947767857142857,-0.3152988255902041
12.981138392857142,-0.41794031281146066
13.014508928571429,-0.49902724539848675
13.047879464285714,-0.5238750846433622
13.081249999999999,-0.4781182872768341
13.114620535714286,-0.37772926042361277
13.14799107142857,-0.2630376854548032
13.181361607142858,-0.17934136318092492
13.214732142857143,-0.15386257803952122
13.248102678571428,-0.18088410687963724
13.281473214285715,-0.22292626376631772
13.31484375,-0.22795709448688106
13.348214285714285,-0.15480066744979332
13.381584821428572,0.005185865016064108
13.414955357142857,0.2206474568625143
13.448325892857143,0.4311660274263025
13.481696428571428,0.5724175973697441
13.515066964285714,0.6046134541574095
13.5484375,0.5312270559542718
13.581808035714285,0.3988424904735438
13.61517857142857,0.2772758534561437
13.648549107142857,0.22825541343060304
13.681919642857142,0.27653959897098707
13.71529017857143,0.39654940366225594
13.748660714285714,0.5206883026099922
13.78203125,0.565904306744761
13.815401785714286,0.46734105326457265
13.848772321428571,0.20550002155084707
13.882142857142856,-0.1832814770035746
13.915513392857143,-0.6162374237524361
13.948883928571428,-0.9894325596883302
13.982254464285713,-1.2100413982225362
14.015625,-1.2253743982789231
14.048995535714285,-1.0397856640427
14.082366071428572,-0.7139941280402461
14.115736607142857,-0.34622502475144307
14.149107142857142,-0.04035638611150714
14.182477678571429,0.12854905301043265
14.215848214285714,0.13873515149565882
14.249218749999999,0.02642835510295046
14.282589285714286,-0.13160968631830175
14.31595982142857,-0.25059823598610714
14.349330357142858,-0.27150626675004685
14.382700892857143,-0.18162527981505042
14.416071428571428,-0.013613128561532713
14.449441964285715,0.17521560100107292
14.4828125,0.3323455505611144
14.516183035714285,0.43351602521044413
14.549553571428572,0.4891423830028119
14.582924107142857,0.5319420702795862
14.616294642857143,0.5939092213516779
14.649665178571428,0.6859787494251149
14.683035714285714,0.7914496539177599
14.71640625,0.8759185458807498
14.749776785714285,0.9069256058512005
14.78314732142857,0.8712031603502659
14.816517857142857,0.7793131736625177
14.849888392857142,0.6553231667349901
14.88325892857143,0.5182989545513068
14.916629464285714,0.3674290957166199
14.95,0.18066748835045943
14.983370535714286,-0.07094987296401122
15.016741071428571,-0.4003537248975932
15.050111607142856,-0.7855564954403704
15.083482142857143,-1.166576137131393
15.116852678571428,-1.4625839612004887
15.150223214285713,-1.6034119968140124
15.18359375,-1.561360936080763
15.216964285714285,-1.3674533061264191
15.250334821428572,-1.1023018467523928
15.283705357142857,-0.863243085863101
15.317075892857142,-0.7210975894965292
15.350446428571429,-0.6861745387232229
15.383816964285714,-0.7004982320410517
15.417187499999999,-0.6622502005810008
15.450558035714286,-0.4736141100538626
15.48392857142857,-0.09125976388441406
15.517299107142858,0.4444346416117364
15.550669642857143,1.0172411462035253
15.584040178571428,1.4793028415600755
15.617410714285715,1.713331134606785
15.65078125,1.6843682785548932
15.684151785714285,1.4560327666509822
15.717522321428572,1.162072297230393
15.750892857142857,0.9451824392552286
15.784263392857143,0.8910708064179448
15.817633928571428,0.9886375225036811
15.851004464285714,1.1352805578530223
15.884375,1.1852624368005946
15.917745535714285,1.0187800281856252
15.95111607142857,0.5995582245470142
15.984486607142857,-0.005730416779928361
16.017857142857142,-0.6546202728992437
16.05122767857143,-1.1887543506892464
16.084598214285712,-1.4976193296677762
16.11796875,-1.5567729806906478
16.151339285714286,-1.4252667985132312
16.18470982142857,-1.207658805049498
16.218080357142856,-1.0023658687721253
16.251450892857143,-0.8621376245827127
16.28482142857143,-0.7832733946544568
16.318191964285713,-0.723908424630377
16.3515625,-0.6373299597321973
16.384933035714287,-0.5008600570107405
16.41830357142857,-0.32598322611120206
16.451674107142857,-0.14718910170892263
16.485044642857144,0.0013605806796864622
16.518415178571427,0.10670446701880064
16.551785714285714,0.18367647223974262
16.58515625,0.26432056626788386
16.618526785714284,0.37701481260377223
16.65189732142857,0.5275797503574571
16.685267857142858,0.693044062908248
16.71863839285714,0.8314591151048384
16.752008928571428,0.9024172465534945
16.785379464285715,0.8874019903287832
16.81875,0.7994188536541931
16.852120535714285,0.6770030275849668
16.88549107142857,0.5655865419363796
16.91886160714286,0.4953948373061751
16.95223214285714,0.46663467557767396
16.98560267857143,0.44912816379295306
17.018973214285715,0.3966057165040604
17.05234375,0.26898035440497786
17.085714285714285,0.05234048862695067
17.119084821428572,-0.23233064473974452
17.152455357142856,-0.5353999569039133
17.185825892857142,-0.7968053918865742
17.21919642857143,-0.9682686734801841
17.252566964285712,-1.0302240398392093
17.2859375,-0.9968149002954573
17.319308035714286,-0.9074481054910088
17.35267857142857,-0.8088357313074084
17.386049107142856,-0.7351307569316483
17.419419642857143,-0.6943965441716483
17.45279017857143,-0.6670222649146089
17.486160714285713,-0.6166842010726087
17.51953125,-0.5088942262988466
17.552901785714287,-0.32844207574800366
17.58627232142857,-0.08714910921880652
17.619642857142857,0.18217327771430425
17.653013392857144,0.4425668356667629
17.686383928571427,0.671415848803809
17.719754464285714,0.8698287824479398
17.753125,1.056602662078713
17.786495535714284,1.2490683782041758
