Frequency (Hz),Amplitude
0.0,7.729141480125375
0.020066889632107024,7.727919253097682
0.04013377926421405,7.724256265622114
0.060200668896321065,7.718163596797029
0.0802675585284281,7.709659705976382
0.10033444816053512,7.698770423833909
0.12040133779264213,7.685528939408519
0.14046822742474915,7.66997578267915
0.1605351170568562,7.652158802078835
0.1806020066889632,7.632133136211264
0.20066889632107024,7.609961178878926
0.22073578595317725,7.5857125363677005
0.24080267558528426,7.559463975758358
0.2608695652173913,7.531299362850077
0.2809364548494983,7.501309588085015
0.3010033444816054,7.4695924786564465
0.3210702341137124,7.436252694767506
0.34113712374581934,7.401401607784944
0.3612040133779264,7.3651571578061805
0.3812709030100334,7.327643687931689
0.4013377926421405,7.288991752315304
0.42140468227424743,7.249337894858312
0.4414715719063545,7.208824395229355
0.4615384615384615,7.167598978741292
0.4816053511705685,7.125814486511284
0.5016722408026756,7.083628502286344
0.5217391304347826,7.041202932349946
0.5418060200668896,6.998703535053696
0.5618729096989966,6.956299396761633
0.5819397993311036,6.914162351371784
0.6020066889632107,6.87246634111037
0.6220735785953176,6.831386716994838
0.6421404682274248,6.791099478247211
0.6622073578595318,6.751780451017503
0.6822742474916387,6.7136044080508075
0.7023411371237458,6.6767441323933925
0.7224080267558528,6.6413694298653665
0.7424749163879598,6.607646096799823
0.7625418060200668,6.575734851416699
0.7826086956521738,6.545790239105635
0.802675585284281,6.517959523765338
0.8227424749163879,6.492381579103086
0.8428093645484949,6.46918579534703
0.862876254180602,6.448491018070266
0.882943143812709,6.430404536676597
0.903010033444816,6.415021140469401
0.923076923076923,6.402422260049322
0.9431438127090299,6.3926752110178375
0.963210702341137,6.3858325555858375
0.983277591973244,6.381931595715286
1.0033444816053512,6.380994008908543
1.0234113712374582,6.383025634788039
1.0434782608695652,6.388016417293548
1.0635451505016722,6.395940503800963
1.0836120401337792,6.406756498887594
1.1036789297658862,6.420407866988329
1.1237458193979932,6.436823474953836
1.1438127090301002,6.455918262666132
1.1638795986622072,6.477594027496507
1.1839464882943145,6.501740306579277
1.2040133779264215,6.528235339664894
1.2240802675585283,6.556947094713193
1.2441471571906353,6.587734338367559
1.2642140468227423,6.620447733961263
1.2842809364548495,6.6549309506744345
1.3043478260869565,6.691021768798137
1.3244147157190636,6.728553167675443
1.3444816053511706,6.767354384685026
1.3645484949832773,6.807251935520593
1.3846153846153846,6.84807058792009
1.4046822742474916,6.8896342828435735
1.4247491638795986,6.931766998834609
1.4448160535117056,6.974293556885961
1.4648829431438126,7.017040364540835
1.4849498327759196,7.059836099179405
1.5050167224080266,7.1025123314647525
1.5250836120401337,7.144904090754683
1.5451505016722407,7.186850374938251
1.5652173913043477,7.228194607642073
1.5852842809364547,7.268785046090192
1.605351170568562,7.308475143111017
1.625418060200669,7.3471238668859185
1.6454849498327757,7.384595982044702
1.6655518394648827,7.420762295651105
1.6856187290969897,7.455499871503474
1.705685618729097,7.488692216014978
1.725752508361204,7.520229438747217
1.745819397993311,7.5500083904607855
1.765886287625418,7.577932781324694
1.7859531772575248,7.603913281700713
1.806020066889632,7.627867607693455
1.826086956521739,7.649720593436651
1.846153846153846,7.669404251873422
1.866220735785953,7.6868578255849
1.8862876254180598,7.702027829028826
1.9063545150501673,7.714868083367708
1.926421404682274,7.72533974489489
1.9464882943143813,7.73341132790567
1.966555183946488,7.739058722708856
1.9866220735785953,7.742265209330013
2.0066889632107023,7.74302146732076
2.026755852842809,7.741325581956388
2.0468227424749164,7.737183046975892
2.0668896321070234,7.730606763891975
2.0869565217391304,7.721617037772775
2.1070234113712374,7.710241569269347
2.1270903010033444,7.696515442532561
2.1471571906354514,7.680481108527601
2.1672240802675584,7.662188363112763
2.1872909698996654,7.641694319099824
2.2073578595317724,7.619063371355071
2.2274247491638794,7.594367153831547
2.2474916387959865,7.56768448724408
2.267558528428094,7.539101315908134
2.2876254180602005,7.508710632062251
2.3076923076923075,7.476612385782023
2.3277591973244145,7.442913378372765
2.3478260869565215,7.407727136900883
2.367892976588629,7.371173767293532
2.3879598662207355,7.333379783207173
2.408026755852843,7.294477907644677
2.4280936454849495,7.25460684409474
2.4481605351170566,7.213911013786801
2.468227424749164,7.172540255510616
2.4882943143812706,7.130649484355515
2.508361204013378,7.088398305695849
2.5284280936454846,7.045950580803596
2.548494983277592,7.003473940624732
2.568561872909699,6.961139244533267
2.5886287625418056,6.91911998129491
2.608695652173913,6.87759161005114
2.6287625418060196,6.836730839889556
2.648829431438127,6.796714847512778
2.668896321070234,6.757720433661256
2.688963210702341,6.719923120286987
2.709030100334448,6.683496192004444
2.7290969899665547,6.648609687041201
2.749163879598662,6.61542934473965
2.769230769230769,6.584115518573917
2.789297658862876,6.554822065580567
2.809364548494983,6.52769522498135
2.82943143812709,6.502872500514388
2.849498327759197,6.4804815624928835
2.869565217391304,6.4606391867797806
2.8896321070234112,6.443450248611391
2.9096989966555182,6.429006789440105
2.9297658862876252,6.4173871746319175
2.9498327759197323,6.40865535891084
2.9698996655518393,6.4028602748799655
2.9899665551839463,6.400035357794429
3.0100334448160533,6.400198217076199
3.0301003344481603,6.403350461938375
3.0501672240802673,6.40947768505124
3.0702341137123748,6.418549604577992
3.0903010033444813,6.430520361290114
3.1103678929765888,6.445328963998272
3.1304347826086953,6.462899873350419
3.1505016722408024,6.483143711282546
3.1705685618729094,6.50595808115786
3.1906354515050164,6.531228481964723
3.210702341137124,6.558829298893881
3.2307692307692304,6.5886248521779835
3.250836120401338,6.620470486218249
3.270903010033445,6.6542136816830535
3.2909698996655514,6.68969517436282
3.311036789297659,6.726750066013278
3.3311036789297654,6.76520891411848
3.351170568561873,6.804898789361068
3.3712374581939795,6.84564429151214
3.391304347826087,6.887268516368293
3.411371237458194,6.929593968204917
3.4314381270903005,6.972443413931061
3.451505016722408,7.0156406766866635
3.471571906354515,7.059011367993284
3.491638795986622,7.102383558744077
3.511705685618729,7.14558839029579
3.531772575250836,7.18846062771111
3.551839464882943,7.230839157806688
3.5719063545150496,7.272567435106148
3.591973244147157,7.313493879097546
3.612040133779264,7.353472226370814
3.632107023411371,7.392361841282026
3.652173913043478,7.430027988777309
3.672240802675585,7.466342072926672
3.692307692307692,7.501181844583524
3.712374581939799,7.534431581411931
3.732441471571906,7.565982243323641
3.752508361204013,7.595731606149422
3.7725752508361197,7.623584376143102
3.7926421404682276,7.649452287687923
3.8127090301003346,7.673254186348235
3.832775919732441,7.694916099189033
3.852842809364548,7.714371294073805
3.872909698996655,7.731560329448977
3.8929765886287626,7.746431095932156
3.9130434782608696,7.7589388508411
3.933110367892976,7.7690462466309675
3.953177257525083,7.776723354047998
3.9732441471571907,7.781947680657395
3.9933110367892977,7.784704185260641
4.013377926421405,7.784985288580959
4.033444816053511,7.782790880464568
4.053511705685618,7.778128323716591
4.073578595317726,7.77101245456386
4.093645484949833,7.76146557960945
4.113712374581939,7.749517469014671
4.133779264214047,7.735205345511046
4.153846153846153,7.7185738687065335
4.173913043478261,7.6996751140047515
4.193979933110368,7.678568545302189
4.214046822742475,7.65532098046469
4.234113712374581,7.630006548410508
4.254180602006689,7.6027066364411935
4.274247491638796,7.573509826264363
4.294314381270903,7.542511816943336
4.314381270903009,7.509815332788944
4.334448160535117,7.475530013980133
4.354515050167224,7.439772287464964
4.374581939799331,7.402665215455897
4.394648829431437,7.364338318598004
4.414715719063545,7.324927370662714
4.434782608695651,7.284574161411278
4.454849498327759,7.243426224091354
4.474916387959866,7.201636523889714
4.494983277591973,7.159363103578228
4.5150501672240795,7.11676868257523
4.535117056856188,7.074020205718968
4.555183946488294,7.0312883382329545
4.575250836120401,6.988746903676007
4.595317725752508,6.946572262132654
4.615384615384615,6.904942626532078
4.635451505016722,6.864037315802485
4.655518394648829,6.824035944585558
4.6755852842809364,6.7851175504585175
4.695652173913043,6.747459661037442
4.71571906354515,6.7112373049521965
4.735785953177258,6.676621972465651
4.7558528428093645,6.6437805334191085
4.775919732441471,6.612874122168392
4.795986622073578,6.584057001162014
4.816053511705686,6.557475416723373
4.8361204013377925,6.53326646233976
4.856187290969899,6.511556966233882
4.8762541806020065,6.492462421098201
4.896321070234113,6.476085974515027
4.916387959866221,6.462517498685101
4.936454849498328,6.4518327575841585
4.956521739130435,6.444092688528523
4.976588628762541,6.439342813357423
4.996655518394649,6.437612792068163
5.016722408026756,6.438916128843743
5.036789297658863,6.443250037097106
5.056856187290969,6.450595466557161
5.076923076923077,6.46091729169215
5.096989966555184,6.474164657069114
5.117056856187291,6.49027147174426
5.137123745819398,6.509157041615088
5.157190635451505,6.530726825965589
5.177257525083611,6.554873302293532
5.197324414715719,6.58147692198312
5.217391304347826,6.610407138498176
5.237458193979933,6.641523489507563
5.257525083612039,6.674676714672254
5.277591973244148,6.709709891651632
5.297658862876254,6.746459574140629
5.317725752508361,6.784756917330361
5.337792642140468,6.824428777994322
5.357859531772575,6.8652987783429005
5.377926421404682,6.907188324773152
5.397993311036789,6.949917574591224
5.418060200668896,6.9933063456408755
5.438127090301003,7.037174965483808
5.458193979933109,7.081345058314309
5.478260869565218,7.1256402691319005
5.498327759197324,7.169886925832871
5.518394648829431,7.2139146408167045
5.538461538461538,7.257556854445207
5.558528428093646,7.300651323254693
5.578595317725752,7.343040556223449
5.598662207357859,7.384572202657124
5.618729096989966,7.425099395394525
5.638795986622073,7.464481053075529
5.65886287625418,7.502582145170804
5.678929765886288,7.539273923366709
5.698996655518394,7.574434122744212
5.719063545150501,7.607947136000703
5.739130434782608,7.6397041637505385
5.759197324414716,7.66960334371269
5.7792642140468224,7.697549861359905
5.799331103678929,7.723456044369563
5.8193979933110365,7.747241442986157
5.839464882943144,7.768832898182234
5.8595317725752505,7.7881645992914414
5.879598662207358,7.805178132584587
5.8996655518394645,7.819822522068721
5.919732441471571,7.832054263609287
5.9397993311036785,7.841837353306957
5.959866220735786,7.8491433109017965
5.9799331103678925,7.8539511988279065
5.999999999999999,7.856247637399182
6.020066889632107,7.856026816471085
6.040133779264214,7.853290503791023
6.060200668896321,7.848048050121235
6.080267558528428,7.840316391089567
6.100334448160535,7.830120045594333
6.120401337792642,7.817491110457599
6.1404682274247495,7.802469250884686
6.160535117056856,7.785101686145066
6.180602006688963,7.765443169739278
6.200668896321069,7.743555963156682
6.2207357859531776,7.7195098021583375
6.240802675585284,7.69338185433724
6.260869565217391,7.665256666513631
6.280936454849498,7.635226100316114
6.301003344481605,7.6033892540797705
6.321070234113712,7.569852368962065
6.341137123745819,7.534728716937004
6.361204013377926,7.498138468081659
6.381270903010033,7.460208534320008
6.40133779264214,7.421072386543698
6.421404682274248,7.380869841793733
6.441471571906354,7.339746816972169
6.461538461538461,7.297855045367877
6.481605351170568,7.255351752140261
6.501672240802676,7.212399284824137
6.521739130434782,7.169164694915914
6.54180602006689,7.125819266694882
6.561872909698996,7.08253798964558
6.581939799331103,7.039498971198778
6.60200668896321,6.9968827870220816
6.622073578595318,6.954871766785986
6.642140468227424,6.913649214225115
6.662207357859531,6.873398561419162
6.682274247491639,6.83430245853904
6.702341137123746,6.796541801836961
6.722408026755852,6.760294704388445
6.742474916387959,6.7257354159909655
6.762541806020066,6.693033200643292
6.782608695652174,6.662351182111794
6.80267558528428,6.633845170159587
6.822742474916388,6.607662481982085
6.842809364548494,6.58394077515895
6.862876254180601,6.562806909892151
6.882943143812709,6.544375859348264
6.903010033444816,6.528749687463681
6.9230769230769225,6.516016613523514
6.94314381270903,6.506250182132072
6.963210702341137,6.499508555828754
6.983277591973244,6.495833945579239
7.0033444816053505,6.495252191736005
7.023411371237458,6.497772504902184
7.0434782608695645,6.503387372570221
7.063545150501672,6.512072633589379
7.083612040133779,6.523787718611484
7.103678929765886,6.538476050843182
7.123745819397993,6.556065597862705
7.143812709030099,6.57646956208797
7.1638795986622075,6.599587194832866
7.183946488294314,6.62530471684699
7.204013377926421,6.653496326850786
7.224080267558528,6.6840252788636585
7.2441471571906355,6.716745009052049
7.264214046822742,6.751500293341977
7.2842809364548495,6.788128418066059
7.304347826086956,6.826460347352148
7.324414715719063,6.8663218727066875
7.34448160535117,6.907534732193876
7.364548494983278,6.9499176886649785
7.384615384615384,6.993287558559215
7.404682274247491,7.037460184805715
7.424749163879598,7.082251349242979
7.444816053511706,7.127477621695422
7.464882943143812,7.17295714437523
7.48494983277592,7.218510351597135
7.505016722408026,7.263960625898398
7.525083612040134,7.309134892552049
7.545150501672239,7.353864155159492
7.565217391304348,7.3979839755261505
7.585284280936455,7.4413349013808565
7.605351170568561,7.4837628457171945
7.625418060200669,7.525119421635046
7.645484949832775,7.5652622365634485
7.665551839464882,7.604055149671726
7.685618729096991,7.641368496141349
7.705685618729096,7.677079281792229
7.725752508361204,7.71107135134748
7.74581939799331,7.743235533390367
7.765886287625418,7.7734697648266255
7.785953177257525,7.801679197420616
7.806020066889631,7.827776288731164
7.826086956521739,7.851680879536839
7.846153846153847,7.8733202596122895
7.866220735785952,7.892629223501519
7.88628762541806,7.909550117728623
7.906354515050166,7.924032880694687
7.926421404682274,7.936035076328738
7.946488294314381,7.945521922391853
7.966555183946488,7.952466314174339
7.986622073578595,7.956848844176165
8.006688963210701,7.958657818218239
8.02675585284281,7.957889268295278
8.046822742474916,7.9545469623482985
8.066889632107022,7.948642411004004
8.08695652173913,7.940194871198021
8.107023411371236,7.92923134646686
8.127090301003344,7.915786583557754
8.147157190635452,7.8999030648647075
8.167224080267557,7.881630996050601
8.187290969899665,7.861028288058285
8.207357859531772,7.838160532545688
8.227424749163879,7.813100969600674
8.247491638795987,7.785930446398966
8.267558528428093,7.756737365262374
8.2876254180602,7.725617619354925
8.307692307692307,7.692674514020933
8.327759197324415,7.658018671523859
8.347826086956522,7.621767916688723
8.367892976588628,7.584047140688112
8.387959866220736,7.544988139946844
8.408026755852843,7.504729426878829
8.42809364548495,7.463416008920294
8.448160535117056,7.421199132095639
8.468227424749163,7.378235985159079
8.488294314381271,7.334689360210278
8.508361204013378,7.290727265603375
8.528428093645484,7.246522486975371
8.548494983277592,7.202252092332738
8.568561872909697,7.158096877377139
8.588628762541806,7.114240747647033
8.608695652173914,7.07087003462299
8.628762541806019,7.028172743714001
8.648829431438127,6.986337733026884
8.668896321070234,6.945553823033021
8.68896321070234,6.906008838691151
8.709030100334449,6.867888587254351
8.729096989966555,6.831375776864955
8.749163879598662,6.796648883088434
8.769230769230768,6.763880972705277
8.789297658862875,6.733238496300265
8.809364548494983,6.704880063377401
8.82943143812709,6.678955215786319
8.849498327759196,6.655603217064176
8.869565217391303,6.63495187676095
8.889632107023411,6.617116429814605
8.909698996655518,6.6021984914751695
8.929765886287624,6.590285108061426
8.949832775919733,6.581447922918224
8.96989966555184,6.575742475307097
8.989966555183946,6.573207647631029
9.010033444816054,6.573865273429355
9.030100334448159,6.577719915085205
9.050167224080267,6.584758816306819
9.070234113712376,6.594952030340758
9.09030100334448,6.6082527207331285
9.110367892976589,6.6245976274577965
9.130434782608695,6.643907687554526
9.150501672240802,6.666088796215189
9.17056856187291,6.691032691643836
9.190635451505017,6.71861794507722
9.210702341137123,6.748711036125112
9.23076923076923,6.781167493073015
9.250836120401337,6.815833077944285
9.270903010033445,6.852544996873208
9.290969899665551,6.891133117603056
9.311036789297658,6.931421177584823
9.331103678929765,6.973227968101579
9.351170568561873,7.016368481967028
9.37123745819398,7.060655014544127
9.391304347826086,7.105898210008421
9.411371237458194,7.151908046867799
9.4314381270903,7.19849475868712
9.451505016722408,7.24546968771244
9.471571906354516,7.292646070619447
9.49163879598662,7.339839756913077
9.511705685618729,7.3868698615797515
9.531772575250837,7.4335593544493905
9.551839464882942,7.479735589376344
9.57190635451505,7.525230776817146
9.591973244147155,7.569882403690077
9.612040133779264,7.6135336045709465
9.632107023411372,7.656033488333575
9.652173913043477,7.697237424304614
9.672240802675585,7.73700729188975
9.692307692307692,7.77521169746066
9.712374581939798,7.8117261620841925
9.732441471571907,7.84643328344029
9.752508361204013,7.879222875024636
9.77257525083612,7.909992085473701
9.792642140468226,7.938645500591479
9.812709030100335,7.96509523040351
9.832775919732441,7.989260983318509
9.852842809364548,8.01107012924405
9.872909698996656,8.030457753281038
9.89297658862876,8.047366701413644
9.91304347826087,8.061747619416254
9.933110367892976,8.073558986017014
9.953177257525082,8.082767141186856
9.97324414715719,8.08934631026324
9.993311036789297,8.093278624466924
10.013377926421404,8.094554138226513
10.033444816053512,8.093170843587494
10.053511705685617,8.089134681848085
10.073578595317725,8.082459552431214
10.093645484949834,8.07316731886862
10.113712374581938,8.061287811637278
10.133779264214047,8.0468588274479
10.153846153846153,8.029926124438289
10.17391304347826,8.010543412569069
10.193979933110368,7.988772338353553
10.214046822742475,7.964682462875674
10.234113712374581,7.938351231859144
10.254180602006688,7.909863936345027
10.274247491638796,7.879313662313957
10.294314381270903,7.846801227352814
10.31438127090301,7.812435102213535
10.334448160535118,7.776331314846688
10.354515050167223,7.738613334214712
10.37458193979933,7.69941193090506
10.394648829431437,7.65886501127543
10.414715719063544,7.617117421579091
10.434782608695652,7.574320718247861
10.454849498327757,7.530632900262878
10.474916387959865,7.486218099334677
10.494983277591974,7.441246223459074
10.515050167224079,7.39589254933363
10.535117056856187,7.350337259132397
10.555183946488295,7.304764917268046
10.5752508361204,7.25936388304547
10.595317725752508,7.214325655556105
10.615384615384615,7.169844147802531
10.635451505016722,7.126114887902208
10.65551839464883,7.083334146316448
10.675585284280936,7.0416979893981795
10.695652173913043,7.001401261153493
10.71571906354515,6.962636496957654
10.735785953177256,6.9255927750330635
10.755852842809364,6.890454513743865
10.775919732441471,6.857400225129296
10.795986622073578,6.8266012375080445
10.816053511705684,6.798220402341653
10.836120401337793,6.77241080273493
10.856187290969899,6.749314482853466
10.876254180602006,6.729061219026198
10.896321070234114,6.711767354254609
10.916387959866219,6.6975347181608
10.936454849498327,6.686449653992769
10.956521739130435,6.678582173116019
10.97658862876254,6.673985255447206
10.996655518394649,6.672694311565007
11.016722408026755,6.67472681884796
