Frequency (Hz),Amplitude
0.0,0.8601627240409437
0.020066889632107024,0.8597817177686828
0.04013377926421405,0.8586392005626124
0.060200668896321065,0.8567366779278183
0.0802675585284281,0.854076661302535
0.10033444816053512,0.85066267152316
0.12040133779264213,0.8464992438180302
0.14046822742474915,0.8415919344773438
0.1605351170568562,0.835947329395612
0.1806020066889632,0.8295730547374154
0.20066889632107024,0.8224777900388777
0.22073578595317725,0.8146712841277506
0.24080267558528426,0.8061643743268935
0.2608695652173913,0.7969690095016416
0.2809364548494983,0.7870982776244821
0.3010033444816054,0.7765664386645263
0.3210702341137124,0.7653889637689372
0.34113712374581934,0.753582581895104
0.3612040133779264,0.7411653352821198
0.3812709030100334,0.7281566454274977
0.4013377926421405,0.7145773915693736
0.42140468227424743,0.7004500040788089
0.4414715719063545,0.6857985756553882
0.4615384615384615,0.6706489938094788
0.4816053511705685,0.6550290988258154
0.5016722408026756,0.6389688722571418
0.5217391304347826,0.6225006620156753
0.5418060200668896,0.6056594513347132
0.5618729096989966,0.5884831802760349
0.5819397993311036,0.5710131300583565
0.6020066889632107,0.5532943822435277
0.6220735785953176,0.5353763666479197
0.6421404682274248,0.5173135135531152
0.6622073578595318,0.499166027008292
0.6822742474916387,0.4810007961062262
0.7023411371237458,0.46289245899712234
0.7224080267558528,0.44492462833737406
0.7424749163879598,0.4271912741511237
0.7625418060200668,0.40979823671859744
0.7826086956521738,0.39286480258395434
0.802675585284281,0.37652521425324054
0.8227424749163879,0.3609298917305354
0.8428093645484949,0.34624601825707546
0.862876254180602,0.3326569906637597
0.882943143812709,0.32036008631821167
0.903010033444816,0.309561620206854
0.923076923076923,0.30046896715355215
0.9431438127090299,0.293279236822391
0.963210702341137,0.2881651901682175
0.983277591973244,0.28526007359042893
1.0033444816053512,0.2846440452073988
1.0234113712374582,0.28633520817649283
1.0434782608695652,0.29028752268837404
1.0635451505016722,0.29639615366365757
1.0836120401337792,0.30450884239608006
1.1036789297658862,0.31444055513481345
1.1237458193979932,0.3259884308233988
1.1438127090301002,0.33894475716311123
1.1638795986622072,0.3531068055077576
1.1839464882943145,0.36828334239613303
1.2040133779264215,0.38429826034249387
1.2240802675585283,0.40099202800288675
1.2441471571906353,0.4182216646568122
1.2642140468227423,0.4358598233002536
1.2842809364548495,0.45379341121108824
1.3043478260869565,0.4719220348743032
1.3244147157190636,0.49015644547827286
1.3444816053511706,0.5084170830440381
1.3645484949832773,0.5266327660045093
1.3846153846153846,0.544739541584464
1.4046822742474916,0.562679694338799
1.4247491638795986,0.5804009008769135
1.4448160535117056,0.5978555147660312
1.4648829431438126,0.6149999646377333
1.4849498327759196,0.6317942492100821
1.5050167224080266,0.6482015144252353
1.5250836120401337,0.6641876996894384
1.5451505016722407,0.6797212420116543
1.5652173913043477,0.6947728285275377
1.5852842809364547,0.7093151894043841
1.605351170568562,0.7233229244321357
1.625418060200669,0.7367723577218515
1.6454849498327757,0.7496414158729212
1.6655518394648827,0.7619095257556897
1.6856187290969897,0.7735575287090606
1.705685618729097,0.7845676084937897
1.725752508361204,0.7949232307899273
1.745819397993311,0.804609092397416
1.765886287625418,0.8136110786054804
1.7859531772575248,0.8219162274508224
1.806020066889632,0.8295126997957633
1.826086956521739,0.8363897543335718
1.846153846153846,0.8425377267754416
1.866220735785953,0.8479480125971454
1.8862876254180598,0.8526130528279394
1.9063545150501673,0.8565263224530448
1.926421404682274,0.8596823210771504
1.9464882943143813,0.862076565562406
1.966555183946488,0.8637055844120535
1.9866220735785953,0.8645669137224129
2.0066889632107023,0.864659094572396
2.026755852842809,0.8639816717629044
2.0468227424749164,0.8625351938591302
2.0668896321070234,0.860321214528542
2.0869565217391304,0.8573422952065942
2.1070234113712374,0.8536020091629821
2.1270903010033444,0.8491049470836622
2.1471571906354514,0.8438567243299313
2.1672240802675584,0.8378639900864201
2.1872909698996654,0.8311344386667262
2.2073578595317724,0.8236768233101428
2.2274247491638794,0.8155009728778803
2.2474916387959865,0.806617811944534
2.267558528428094,0.7970393848836466
2.2876254180602005,0.786778884668536
2.3076923076923075,0.7758506872556754
2.3277591973244145,0.7642703925933468
2.3478260869565215,0.7520548735097512
2.367892976588629,0.7392223339908071
2.3879598662207355,0.7257923786682688
2.408026755852843,0.7117860957167129
2.4280936454849495,0.6972261558180449
2.4481605351170566,0.6821369304133759
2.468227424749164,0.6665446331462728
2.4882943143812706,0.6504774892347239
2.508361204013378,0.6339659385209709
2.5284280936454846,0.6170428791716226
2.548494983277592,0.5997439604674997
2.568561872909699,0.5821079348614092
2.5886287625418056,0.5641770815057701
2.608695652173913,0.5459977157401692
2.6287625418060196,0.5276208014979705
2.648829431438127,0.5091026860380204
2.668896321070234,0.49050597842480015
2.688963210702341,0.4719005940113802
2.709030100334448,0.4533649855023629
2.7290969899665547,0.43498757477625294
2.749163879598662,0.4168683849881931
2.769230769230769,0.3991208441659051
2.789297658862876,0.38187368189108134
2.809364548494983,0.36527275992594876
2.82943143812709,0.349482555592063
2.849498327759197,0.3346868478735005
2.869565217391304,0.3210879509800676
2.8896321070234112,0.3089036433266979
2.9096989966555182,0.2983608530713167
2.9297658862876252,0.28968535046732447
2.9498327759197323,0.2830873490583089
2.9698996655518393,0.27874410624726353
2.9899665551839463,0.2767821020623048
3.0100334448160533,0.2772625152779302
3.0301003344481603,0.2801736916618456
3.0501672240802673,0.2854327248940626
3.0702341137123748,0.2928956847167932
3.0903010033444813,0.3023736713412967
3.1103678929765888,0.31365082587658333
3.1304347826086953,0.3265008822709517
3.1505016722408024,0.3407001973712908
3.1705685618729094,0.35603663063287233
3.1906354515050164,0.3723146533668818
3.210702341137124,0.3893575412751878
3.2307692307692304,0.4070075768511117
3.250836120401338,0.4251250489690203
3.270903010033445,0.4435866302567261
3.2909698996655514,0.4622835181857948
3.311036789297659,0.4811195736328015
3.3311036789297654,0.5000095842062812
3.351170568561873,0.5188777109788177
3.3712374581939795,0.5376561360508902
3.391304347826087,0.5562839055036541
3.411371237458194,0.5747059509520294
3.4314381270903005,0.5928722684128723
3.451505016722408,0.6107372325393431
3.471571906354515,0.6282590255845382
3.491638795986622,0.6453991626503545
3.511705685618729,0.6621220972354083
3.531772575250836,0.6783948934936253
3.551839464882943,0.6941869537982832
3.5719063545150496,0.7094697921166395
3.591973244147157,0.7242168453307976
3.612040133779264,0.738403316010763
3.632107023411371,0.7520060412845443
3.652173913043478,0.7650033833914299
3.672240802675585,0.7773751382783768
3.692307692307692,0.7891024592351121
3.712374581939799,0.8001677930843761
3.732441471571906,0.8105548268714451
3.752508361204013,0.8202484433479434
3.7725752508361197,0.8292346838338964
3.7926421404682276,0.8375007172799679
3.8127090301003346,0.8450348145489504
3.832775919732441,0.8518263270989892
3.852842809364548,0.857865669387398
3.872909698996655,0.863144304428125
3.8929765886287626,0.8676547320322667
3.9130434782608696,0.8713904793428744
3.933110367892976,0.8743460933453794
3.953177257525083,0.8765171350957701
3.9732441471571907,0.8779001754620784
3.9933110367892977,0.8784927922222949
4.013377926421405,0.8782935684053143
4.033444816053511,0.8773020918017157
4.053511705685618,0.8755189556097612
4.073578595317726,0.8729457602196373
4.093645484949833,0.8695851161770216
4.113712374581939,0.8654406484063707
4.133779264214047,0.8605170018163155
4.153846153846153,0.8548198484552201
4.173913043478261,0.8483558964358598
4.193979933110368,0.8411329009059737
4.214046822742475,0.8331596774079855
4.234113712374581,0.8244461180488506
4.254180602006689,0.8150032109926348
4.274247491638796,0.8048430638974795
4.294314381270903,0.7939789320493622
4.314381270903009,0.7824252521028071
4.334448160535117,0.7701976825302471
4.354515050167224,0.7573131521150019
4.374581939799331,0.743789918108695
4.394648829431437,0.7296476360251002
4.414715719063545,0.7149074434754266
4.434782608695651,0.699592060985457
4.454849498327759,0.6837259133986596
4.474916387959866,0.6673352762931388
4.494983277591973,0.6504484528641308
4.5150501672240795,0.6330959879956058
4.535117056856188,0.6153109278223977
4.555183946488294,0.5971291350350749
4.575250836120401,0.5785896725764988
4.595317725752508,0.5597352712944085
4.615384615384615,0.5406129006035258
4.635451505016722,0.5212744652794109
4.655518394648829,0.501777656051009
4.6755852842809364,0.48218698635563545
4.695652173913043,0.46257505173423963
4.71571906354515,0.443024050405196
4.735785953177258,0.4236276008272286
4.7558528428093645,0.4044928797378108
4.775919732441471,0.385743074212202
4.795986622073578,0.36752008115133
4.816053511705686,0.3499872791938945
4.8361204013377925,0.33333201893676334
4.856187290969899,0.31776720780414747
4.8762541806020065,0.3035310082232207
4.896321070234113,0.2908832849484985
4.916387959866221,0.2800972084918182
4.936454849498328,0.2714446775363554
4.956521739130435,0.2651753683148785
4.976588628762541,0.26149142309373635
4.996655518394649,0.26052250306828706
5.016722408026756,0.2623076840651728
5.036789297658863,0.26678982229643183
5.056856187290969,0.2738242704851513
5.076923076923077,0.28319901753028737
5.096989966555184,0.2946601589644479
5.117056856187291,0.3079364548676612
5.137123745819398,0.32275886203813614
5.157190635451505,0.3388736144506079
5.177257525083611,0.35604939433262467
5.197324414715719,0.3740800433482927
5.217391304347826,0.3927843729358107
5.237458193979933,0.41200434775480566
5.257525083612039,0.4316025314769135
5.277591973244148,0.45145934646265123
5.297658862876254,0.47147045260631915
5.317725752508361,0.491544390564475
5.337792642140468,0.5116005394549809
5.357859531772575,0.5315673873657799
5.377926421404682,0.5513810879748628
5.397993311036789,0.5709842669161469
5.418060200668896,0.5903250401048428
5.438127090301003,0.6093562088361363
5.458193979933109,0.6280346007160331
5.478260869565218,0.6463205301100692
5.498327759197324,0.6641773561846794
5.518394648829431,0.6815711205054782
5.538461538461538,0.6984702494718855
5.558528428093646,0.7148453096281753
5.578595317725752,0.7306688061555175
5.598662207357859,0.7459150166908946
5.618729096989966,0.7605598541069156
5.638795986622073,0.7745807530863691
5.65886287625418,0.7879565762908008
5.678929765886288,0.8006675367000314
5.698996655518394,0.8126951333258196
5.719063545150501,0.8240220980087744
5.739130434782608,0.8346323514167276
5.759197324414716,0.8445109666949816
5.7792642140468224,0.8536441394890414
5.799331103678929,0.8620191632814698
5.8193979933110365,0.8696244091655594
5.839464882943144,0.8764493093280021
5.8595317725752505,0.8824843436363191
5.879598662207358,0.8877210288300308
5.8996655518394645,0.8921519099009788
5.919732441471571,0.8957705533215025
5.9397993311036785,0.898571541841617
5.959866220735786,0.9005504706305827
5.9799331103678925,0.9017039445855655
5.999999999999999,0.9020295766726537
6.020066889632107,0.9015259872039143
6.040133779264214,0.9001928039904739
6.060200668896321,0.8980306633459376
6.080267558528428,0.8950412119488166
6.100334448160535,0.8912271096070529
6.120401337792642,0.8865920330042253
6.1404682274247495,0.8811406805457762
6.160535117056856,0.8748787784667788
6.180602006688963,0.867813088410898
6.200668896321069,0.8599514167459461
6.2207357859531776,0.8513026259457845
6.240802675585284,0.8418766484448608
6.260869565217391,0.8316845034624547
6.280936454849498,0.8207383174033961
6.301003344481605,0.8090513485748514
6.321070234113712,0.7966380171212473
6.341137123745819,0.7835139412790695
6.361204013377926,0.7696959813001113
6.381270903010033,0.7552022926986071
6.40133779264214,0.7400523908609807
6.421404682274248,0.7242672295377384
6.441471571906354,0.7078692963434747
6.461538461538461,0.690882729158203
6.481605351170568,0.6733334582986973
6.501672240802676,0.6552493805723856
6.521739130434782,0.6366605729179088
6.54180602006689,0.6175995553776091
6.561872909698996,0.5981016157688837
6.581939799331103,0.5782052117892205
6.60200668896321,0.5579524706086879
6.622073578595318,0.5373898115170553
6.642140468227424,0.5165687241697969
6.662207357859531,0.4955467436725384
6.682274247491639,0.4743886743002105
6.702341137123746,0.45316812588974836
6.722408026755852,0.4319694399601894
6.742474916387959,0.41089009394559123
6.762541806020066,0.39004367609567403
6.782608695652174,0.3695635095289919
6.80267558528428,0.34960695079800513
6.822742474916388,0.3303602598319607
6.842809364548494,0.3120436768630668
6.862876254180601,0.29491587111899326
6.882943143812709,0.27927617716905967
6.903010033444816,0.26546203684774244
6.9230769230769225,0.2538381313782418
6.94314381270903,0.24477365523569075
6.963210702341137,0.23860638228404432
6.983277591973244,0.23559752644836052
7.0033444816053505,0.23588847454420303
7.023411371237458,0.23947444381502256
7.0434782608695645,0.24620591946711048
7.063545150501672,0.2558171961009241
7.083612040133779,0.2679703145825028
7.103678929765886,0.28229947107253306
7.123745819397993,0.2984455527507915
7.143812709030099,0.3160774961051477
7.1638795986622075,0.3349021690901456
7.183946488294314,0.35466637176928406
7.204013377926421,0.3751543707034509
7.224080267558528,0.3961834233794708
7.2441471571906355,0.41759877776924814
7.264214046822742,0.43926891924599687
7.2842809364548495,0.46108139477329957
7.304347826086956,0.48293930132794394
7.324414715719063,0.5047584073407757
7.34448160535117,0.5264648280131153
7.364548494983278,0.547993163574804
7.384615384615384,0.5692850144745717
7.404682274247491,0.5902877988560039
7.424749163879598,0.6109538104198708
7.444816053511706,0.6312394666598337
7.464882943143812,0.6511047076667092
7.48494983277592,0.6705125140872865
7.505016722408026,0.6894285195501826
7.525083612040134,0.7078206981846853
7.545150501672239,0.7256591120209063
7.565217391304348,0.7429157063063887
7.585284280936455,0.7595641433025745
7.605351170568561,0.7755796670940361
7.625418060200669,0.7909389934799624
7.645484949832775,0.8056202202187753
7.665551839464882,0.8196027538395633
7.685618729096991,0.8328672499759562
7.705685618729096,0.8453955647645514
7.725752508361204,0.8571707153154144
7.74581939799331,0.8681768476331025
7.765886287625418,0.8783992106635454
7.785953177257525,0.8878241353811419
7.806020066889631,0.8964390180233119
7.826086956521739,0.9042323067367256
7.846153846153847,0.9111934910276078
7.866220735785952,0.917313093513714
7.88628762541806,0.9225826635628415
7.906354515050166,0.9269947724753614
7.926421404682274,0.9305430099293419
7.946488294314381,0.9332219814588498
7.966555183946488,0.9350273067807773
7.986622073578595,0.9359556188244891
8.006688963210701,0.9360045633537026
8.02675585284281,0.9351727991013944
8.046822742474916,0.9334599983683988
8.066889632107022,0.9308668480645006
8.08695652173913,0.9273950511991151
8.107023411371236,0.9230473288571964
8.127090301003344,0.9178274227261818
8.147157190635452,0.9117400982724815
8.167224080267557,0.9047911487021865
8.187290969899665,0.8969873998819162
8.207357859531772,0.8883367164433487
8.227424749163879,0.8788480093510481
8.247491638795987,0.8685312452801249
8.267558528428093,0.8573974582308914
8.2876254180602,0.845458763905809
8.307692307692307,0.8327283774948809
8.327759197324415,0.81922063566478
8.347826086956522,0.8049510237333951
8.367892976588628,0.7899362092450524
8.387959866220736,0.7741940834569656
8.408026755852843,0.7577438126226328
8.42809364548495,0.7406059014380154
8.448160535117056,0.7228022716341048
8.468227424749163,0.7043563594997263
8.488294314381271,0.6852932371618131
8.508361204013378,0.6656397638185444
8.528428093645484,0.6454247749277554
8.548494983277592,0.6246793197527817
8.568561872909697,0.6034369608765441
8.588628762541806,0.58173415360815
8.608695652173914,0.5596107290371622
8.628762541806019,0.5371105124075738
8.648829431438127,0.5142821192669925
8.668896321070234,0.49117998655051437
8.68896321070234,0.46786571576554337
8.709030100334449,0.4444098324662766
8.729096989966555,0.42089410212348305
8.749163879598662,0.3974145887513776
8.769230769230768,0.3740856986222862
8.789297658862875,0.351045510420825
8.809364548494983,0.32846273369946827
8.82943143812709,0.30654560459897445
8.849498327759196,0.2855527986411911
8.869565217391303,0.26580577035282216
8.889632107023411,0.24770040448510153
8.909698996655518,0.2317129845317786
8.929765886287624,0.21839122978911396
8.949832775919733,0.20831750746238725
8.96989966555184,0.20203421279570072
8.989966555183946,0.19993853553530452
9.010033444816054,0.20218278835013687
9.030100334448159,0.2086317543997717
9.050167224080267,0.21890287657649715
9.070234113712376,0.23246460524392337
9.09030100334448,0.24874164946450575
9.110367892976589,0.26719038327267797
9.130434782608695,0.28733655716870016
9.150501672240802,0.30878500017706745
9.17056856187291,0.33121414634111046
9.190635451505017,0.3543646849685035
9.210702341137123,0.37802739575940586
9.23076923076923,0.4020323352227137
9.250836120401337,0.4262399972188228
9.270903010033445,0.4505343869000977
9.290969899665551,0.4748177098082471
9.311036789297658,0.4990063401894213
9.331103678929765,0.5230277704325276
9.351170568561873,0.5468183010966006
9.37123745819398,0.570321286162705
9.391304347826086,0.5934857939628739
9.411371237458194,0.616265579911677
9.4314381270903,0.638618294051861
9.451505016722408,0.6605048663547846
9.471571906354516,0.6818890273756225
9.49163879598662,0.7027369326209697
9.511705685618729,0.7230168668877964
9.531772575250837,0.7426990106544336
9.551839464882942,0.7617552549121375
9.57190635451505,0.7801590540305502
9.591973244147155,0.7978853086481479
9.612040133779264,0.8149102723837381
9.632107023411372,0.8312114775323722
9.652173913043477,0.8467676759511334
9.672240802675585,0.8615587921397905
9.692307692307692,0.8755658861381728
9.712374581939798,0.8887711243414455
9.732441471571907,0.901157756708666
9.752508361204013,0.9127100991343644
9.77257525083612,0.9234135199854737
9.792642140468226,0.933254429990976
9.812709030100335,0.9422202748196572
9.832775919732441,0.9502995298005471
9.852842809364548,0.9574816963371076
9.872909698996656,0.9637572996449115
9.89297658862876,0.9691178875073404
9.91304347826087,0.9735560297971148
9.933110367892976,0.9770653185564205
9.953177257525082,0.9796403684660756
9.97324414715719,0.9812768175663876
9.993311036789297,0.9819713281206793
10.013377926421404,0.9817215875369899
10.033444816053512,0.9805263092861095
10.053511705685617,0.9783852337748277
10.073578595317725,0.9752991291530602
10.093645484949834,0.971269792053254
10.113712374581938,0.9663000482799269
10.133779264214047,0.9603937534884609
10.153846153846153,0.9535557939143318
10.17391304347826,0.9457920872392336
10.193979933110368,0.9371095837088154
10.214046822742475,0.927516267649977
10.234113712374581,0.9170211595745726
10.254180602006688,0.9056343191034887
10.274247491638796,0.8933668490020238
10.294314381270903,0.8802309006877133
10.31438127090301,0.8662396816587727
10.334448160535118,0.8514074654003465
10.354515050167223,0.8357496044634841
10.37458193979933,0.8192825475866897
10.394648829431437,0.8020238619548342
10.414715719063544,0.7839922619802653
10.434782608695652,0.7652076463691335
10.454849498327757,0.7456911457325716
10.474916387959865,0.7254651836596342
10.494983277591974,0.7045535550467527
10.515050167224079,0.6829815266612884
10.535117056856187,0.6607759665255112
10.555183946488295,0.6379655109165747
10.5752508361204,0.614580780843893
10.595317725752508,0.5906546641647401
10.615384615384615,0.5662226855964069
10.635451505016722,0.5413234956309323
10.65551839464883,0.5159995220588096
10.675585284280936,0.4902978464706431
10.695652173913043,0.4642713958620893
