Frequency (Hz),Amplitude
0.0,1.3477406503067346
0.019801980198019802,1.3567494574545862
0.039603960396039604,1.383389288435297
0.0594059405940594,1.4265721739478954
0.07920792079207921,1.4846947242546507
0.09900990099009901,1.5558698423843969
0.1188118811881188,1.6381374656930643
0.13861386138613863,1.7296169503728414
0.15841584158415842,1.8285951401670684
0.1782178217821782,1.9335627497630705
0.19801980198019803,2.0432168885479243
0.21782178217821782,2.1564451196590704
0.2376237623762376,2.2723016781106935
0.25742574257425743,2.38998213085476
0.27722772277227725,2.508799690205764
0.297029702970297,2.6281645128816753
0.31683168316831684,2.7475662896266786
0.33663366336633666,2.8665599320154453
0.3564356435643564,2.9847539629233757
0.37623762376237624,3.10180117138276
0.39603960396039606,3.2173911187399886
0.4158415841584158,3.3312441371247496
0.43564356435643564,3.44310652128441
0.45544554455445546,3.5527466709081046
0.4752475247524752,3.6599519889641745
0.495049504950495,3.7645263816142647
0.5148514851485149,3.866288237585387
0.5346534653465347,3.965068790588222
0.5544554455445545,4.060710788645754
0.5742574257425742,4.153067410116018
0.594059405940594,4.242001378669241
0.613861386138614,4.327384239257548
0.6336633663366337,4.409095764787084
0.6534653465346534,4.487023469236486
0.6732673267326733,4.5610622077228875
0.6930693069306931,4.631113847781812
0.7128712871287128,4.697086999116958
0.7326732673267327,4.758896791459736
0.7524752475247525,4.816464692087221
0.7722772277227723,4.869718356082306
0.7920792079207921,4.918591503660611
0.8118811881188118,4.963023819895804
0.8316831683168316,5.002960872998095
0.8514851485148516,5.038354047976097
0.8712871287128713,5.069160493071069
0.891089108910891,5.095343076818209
0.9108910891089109,5.116870353980518
0.9306930693069307,5.133716538933725
0.9504950495049505,5.145861485365817
0.9702970297029703,5.153290671404797
0.99009900990099,5.1559951895099285
1.00990099009901,5.153971740662925
1.0297029702970297,5.147222632582938
1.0495049504950495,5.135755781868299
1.0693069306930694,5.11958472014374
1.0891089108910892,5.09872860447065
1.108910891089109,5.073212232463756
1.1287128712871286,5.043066062757408
1.1485148514851484,5.00832624168409
1.1683168316831685,4.969034637273913
1.188118811881188,4.925238881965592
1.2079207920792079,4.876992425746432
1.227722772277228,4.824354601823196
1.2475247524752475,4.767390707382919
1.2673267326732673,4.706172102550653
1.2871287128712872,4.640776331313372
1.3069306930693068,4.5712872689849675
1.3267326732673268,4.497795301773277
1.3465346534653466,4.420397545223356
1.3663366336633662,4.339198109811975
1.3861386138613863,4.254308423832864
1.405940594059406,4.165847626039834
1.4257425742574257,4.073943043432539
1.4455445544554455,3.9787307732415846
1.4653465346534653,3.8803563928078
1.4851485148514851,3.778975826929922
1.504950495049505,3.674756409727555
1.5247524752475248,3.567878187586889
1.5445544554455446,3.458535521902377
1.5643564356435644,3.346939065823329
1.5841584158415842,3.2333182089536154
1.6039603960396038,3.117924108989456
1.6237623762376237,3.0010334607857567
1.6435643564356437,2.8829531924406067
1.6633663366336633,2.7640263253921753
1.683168316831683,2.644639290741168
1.7029702970297032,2.525231053781968
1.7227722772277227,2.4063044540235845
1.7425742574257426,2.2884401985716383
1.7623762376237624,2.172313911695394
1.782178217821782,2.0587164656754253
1.801980198019802,1.9485773620790974
1.8217821782178218,1.8429899789136794
1.8415841584158414,1.7432357346008067
1.8613861386138615,1.650801299031134
1.881188118811881,1.5673787762525535
1.900990099009901,1.494833983573717
1.920792079207921,1.4351250560328552
1.9405940594059405,1.3901576261960078
1.9603960396039604,1.3615796998869951
1.98019801980198,1.3505496745597128
2.0,1.357541646247835
2.01980198019802,1.3822580973999257
2.0396039603960396,1.423685475385684
2.0594059405940595,1.48026975846935
2.0792079207920793,1.5501462848602177
2.099009900990099,1.6313552178907251
2.118811881188119,1.7220013877278755
2.1386138613861387,1.8203494073328532
2.1584158415841586,1.9248652397401205
2.1782178217821784,2.034221894291846
2.1980198019801978,2.147285093771692
2.217821782178218,2.263090086538808
2.237623762376238,2.380816329265206
2.257425742574257,2.499763546242555
2.2772277227722775,2.6193306707185036
2.297029702970297,2.7389980648572583
2.3168316831683167,2.858312867629475
2.336633663366337,2.9768770928872184
2.3564356435643563,3.0943380404813468
2.376237623762376,3.2103806033121813
2.3960396039603964,3.3247211050782424
2.4158415841584158,3.437102363242166
2.4356435643564356,3.547289728368122
2.455445544554456,3.65506790024621
2.4752475247524752,3.7602383621522906
2.495049504950495,3.8626173077205603
2.514851485148515,3.9620339613026356
2.5346534653465347,4.05832921352811
2.5544554455445545,4.15135451015548
2.5742574257425743,4.240970945138859
2.594059405940594,4.32704851889663
2.6138613861386135,4.409465530662506
2.633663366336634,4.488108080006253
2.6534653465346536,4.562869657505153
2.673267326732673,4.633650808418208
2.6930693069306932,4.700358856288414
2.712871287128713,4.762907675847629
2.7326732673267324,4.8212175065592415
2.7524752475247527,4.875214799709699
2.7722772277227725,4.924832093233068
2.792079207920792,4.970007909486016
2.811881188118812,5.010686672033914
2.8316831683168315,5.0468186382008415
2.8514851485148514,5.0783598447084355
2.8712871287128716,5.105272064204468
2.891089108910891,5.127522770881923
2.910891089108911,5.145085113728487
2.9306930693069306,5.157937896237807
2.9504950495049505,5.16606556166757
2.9702970297029703,5.169458183154953
2.99009900990099,5.1681114582037715
3.00990099009901,5.162026707247195
3.0297029702970297,5.15121087617011
3.0495049504950495,5.135676542852187
3.0693069306930694,5.1154419279715135
3.089108910891089,5.090530910494603
3.108910891089109,5.060973048477467
3.128712871287129,5.026803606020453
3.148514851485148,4.9880635874638095
3.1683168316831685,4.944799780189868
3.1881188118811883,4.897064807720628
3.2079207920792077,4.8449171951794865
3.227722772277228,4.788421449636176
3.2475247524752473,4.727648158393891
3.267326732673267,4.662674108929372
3.2871287128712874,4.593582434988892
3.3069306930693068,4.520462794311963
3.3267326732673266,4.443411584646053
3.346534653465347,4.362532206187766
3.366336633663366,4.2779353804144336
3.386138613861386,4.189739537550588
3.4059405940594063,4.0980712877705
3.4257425742574257,4.003065994830809
3.4455445544554455,3.904868475362741
3.4653465346534653,3.8036338527979523
3.485148514851485,3.6995286021995426
3.504950495049505,3.5927318315609136
3.5247524752475248,3.483436856981157
3.5445544554455446,3.371853144232959
3.564356435643564,3.258208708475363
3.5841584158415842,3.142753088260582
3.603960396039604,3.025761040690156
3.6237623762376234,2.907537142711142
3.6435643564356437,2.7884215298574646
3.6633663366336635,2.6687970578764455
3.683168316831683,2.549098231702741
3.702970297029703,2.4298223018458365
3.722772277227723,2.311542961646979
3.7425742574257423,2.1949270518230644
3.762376237623762,2.080754519023825
3.7821782178217824,1.969941455106122
3.801980198019802,1.8635651551629198
3.8217821782178216,1.7628884738682915
3.841584158415842,1.669377987584036
3.8613861386138613,1.5847064181531993
3.881188118811881,1.5107250092783842
3.9009900990099013,1.449388310543755
3.9207920792079207,1.4026168241443138
3.9405940594059405,1.3720981605988483
3.96039603960396,1.3590562911809059
3.98019801980198,1.3640499295837087
4.0,1.386870827696801
4.01980198019802,1.4265828530044526
4.03960396039604,1.481685721360063
4.0594059405940595,1.5503412603622495
4.079207920792079,1.630592480887112
4.099009900990099,1.7205305453236222
4.118811881188119,1.8183971619147845
4.138613861386139,1.9226317980530967
4.158415841584159,2.0318810096974564
4.178217821782178,2.144986073680604
4.198019801980198,2.260960630887444
4.217821782178218,2.3789655297624632
4.237623762376238,2.4982847001900486
4.257425742574258,2.6183037620044534
4.2772277227722775,2.7384918748684792
4.297029702970297,2.858386733641562
4.316831683168317,2.9775823546442903
4.336633663366336,3.0957192220397416
4.356435643564357,3.2124763754511814
4.376237623762377,3.3275650684125884
4.3960396039603955,3.440723686044783
4.415841584158416,3.551713667186951
4.435643564356436,3.66031622615458
4.455445544554455,3.766329711042734
4.475247524752476,3.8695674694107356
4.4950495049504955,3.969856119276919
4.514851485148514,4.067034144779047
4.534653465346535,4.160950752709502
4.554455445544555,4.251464939356434
4.574257425742574,4.338444727450428
4.594059405940594,4.421766541153746
4.613861386138614,4.501314693428286
4.633663366336633,4.576980965163821
4.653465346534653,4.648664259438521
4.673267326732674,4.716270317451628
4.693069306930693,4.779711485192149
4.712871287128713,4.838906521927351
4.732673267326733,4.893780443218062
4.752475247524752,4.944264392478435
4.772277227722772,4.990295536161273
4.792079207920793,5.03181697851763
4.811881188118812,5.068777692590855
4.8316831683168315,5.101132464693347
4.851485148514852,5.128841850102873
4.871287128712871,5.151872138125722
4.891089108910891,5.170195325021449
4.910891089108912,5.183789093582309
4.930693069306931,5.192636798419901
4.9504950495049505,5.196727456241399
4.97029702970297,5.196055740605349
4.99009900990099,5.190621980839534
5.00990099009901,5.180432164985624
5.02970297029703,5.165497946814491
5.0495049504950495,5.145836657135665
5.069306930693069,5.121471319811347
5.089108910891089,5.092430673084406
5.108910891089109,5.058749197047594
5.128712871287129,5.020467148324595
5.148514851485149,4.9776306033109945
5.1683168316831685,4.93029151164403
5.188118811881188,4.878507761946867
5.207920792079208,4.822343262338999
5.227722772277227,4.761868038739023
5.247524752475248,4.6971583546301865
5.267326732673268,4.628296856741569
5.2871287128712865,4.555372752054195
5.306930693069307,4.478482022715665
5.326732673267327,4.397727686898057
5.346534653465346,4.313220115433345
5.366336633663367,4.225077416304012
5.3861386138613865,4.13342590187404
5.405940594059405,4.038400657273517
5.425742574257426,3.940146232799763
5.445544554455446,3.8388174888290014
5.465346534653465,3.7345806288792316
5.485148514851486,3.627614465556027
5.504950495049505,3.5181119756935453
5.524752475247524,3.4062822157586647
5.544554455445545,3.292352687359581
5.564356435643565,3.1765722664931832
5.584158415841584,3.0592148400952945
5.603960396039604,2.940583830622075
5.623762376237624,2.821017834542543
5.643564356435643,2.700897653476624
5.663366336633663,2.58065505456635
5.683168316831684,2.4607836517611736
5.702970297029703,2.3418523344026343
5.7227722772277225,2.2245216478990635
5.742574257425743,2.1095633854147673
5.762376237623762,1.997883258936007
5.782178217821782,1.890545685500223
5.801980198019803,1.7887981618646833
5.821782178217822,1.6940900715946767
5.841584158415841,1.6080768831711203
5.861386138613861,1.5325960206766573
5.881188118811881,1.4695972310410135
5.900990099009901,1.421012418057754
5.920792079207921,1.388563520368469
5.9405940594059405,1.3735343685331305
5.96039603960396,1.3765640615798678
5.98019801980198,1.3975323690263681
6.0,1.4355824890700895
6.01980198019802,1.4892717783043543
6.03960396039604,1.5567927405279114
6.0594059405940595,1.636194363023327
6.079207920792079,1.7255556293243866
6.099009900990099,1.8230952492003512
6.118811881188119,1.9272249007316276
6.138613861386139,2.0365626407987056
6.158415841584159,2.149922879794329
6.178217821782178,2.2662951229326174
6.198019801980198,2.3848191409811985
6.217821782178218,2.5047607499544795
6.237623762376237,2.62549012801426
6.257425742574258,2.746463305999004
6.2772277227722775,2.867206803942367
6.297029702970296,2.98730509067924
6.316831683168317,3.1063904472380663
6.336633663366337,3.224134816255927
6.356435643564356,3.3402432633558834
6.376237623762377,3.4544487334491643
6.396039603960396,3.5665078415002354
6.415841584158415,3.6761974876649015
6.435643564356436,3.7833121291513536
6.455445544554456,3.8876615758080146
6.475247524752475,3.989069204218919
6.495049504950495,4.0873705071088136
6.514851485148515,4.182411912210662
6.534653465346534,4.274049818377887
6.554455445544554,4.362149807420341
6.574257425742575,4.446585998544096
6.594059405940594,4.52724051888404
6.6138613861386135,4.604003068830596
6.633663366336634,4.676770564975189
6.653465346534653,4.7454468467723805
6.673267326732673,4.809942435624755
6.693069306930694,4.870174337183761
6.712871287128713,4.9260658793364
6.732673267326732,4.9775465797017375
6.752475247524753,5.024552037559095
6.772277227722772,5.067023846025487
6.792079207920792,5.1049095210341076
6.811881188118813,5.138162444272082
6.8316831683168315,5.166741817739495
6.851485148514851,5.19061262801426
6.871287128712871,5.209745618665262
6.891089108910891,5.224117269562587
6.910891089108911,5.2337097821002425
6.930693069306931,5.238511069582095
6.9504950495049505,5.238514752234393
6.97029702970297,5.233720156504205
6.99009900990099,5.2241323184891995
7.00990099009901,5.2097619915254105
7.02970297029703,5.190625658141893
7.0495049504950495,5.166745546779459
7.069306930693069,5.138149653871326
7.089108910891089,5.104871772101926
7.108910891089109,5.066951525904137
7.128712871287128,5.024434415532753
7.148514851485149,4.977371871372147
7.1683168316831685,4.925821320511802
7.188118811881187,4.8698462680676435
7.207920792079208,4.80951639625855
7.227722772277228,4.744907684887616
7.247524752475247,4.67610255765448
7.267326732673268,4.603190059673167
7.287128712871287,4.526266072733907
7.306930693069306,4.445433576283083
7.326732673267327,4.360802963875415
7.346534653465347,4.272492427068608
7.366336633663366,4.18062842150153
7.3861386138613865,4.085346233375342
7.405940594059406,3.9867906689392854
7.425742574257425,3.885116895122394
7.445544554455446,3.780491466474981
7.465346534653466,3.6730935825058064
7.485148514851485,3.5631166308523246
7.504950495049505,3.450770086166274
7.524752475247524,3.3362818529507767
7.544554455445544,3.2199011638159023
7.564356435643565,3.10190217380377
7.584158415841584,2.982588427629488
7.603960396039604,2.862298420614618
7.623762376237624,2.7414125254876813
7.643564356435643,2.620361613517577
7.663366336633663,2.4996377522525663
7.683168316831684,2.37980739672691
7.702970297029703,2.2615274723457346
7.7227722772277225,2.1455646114570706
7.742574257425743,2.0328174380060764
7.762376237623762,1.9243410088794917
7.782178217821782,1.8213710427764904
7.801980198019803,1.7253430723345762
7.821782178217822,1.6378979421545379
7.841584158415841,1.5608605306235614
7.861386138613862,1.496175004899565
7.881188118811881,1.4457813869203842
7.900990099009901,1.4114303734340319
7.92079207920792,1.3944590124297809
7.9405940594059405,1.3955810672924456
7.96039603960396,1.4147613891140014
7.980198019801979,1.4512230398317567
8.0,1.5035842028522277
8.01980198019802,1.5700722279413681
8.03960396039604,1.6487456802658305
8.05940594059406,1.737673533767748
8.07920792079208,1.8350520752693595
8.099009900990099,1.9392644425034387
8.118811881188119,2.048898530456019
8.138613861386139,2.162739698815203
8.158415841584159,2.279750909360557
8.178217821782178,2.399048422958422
8.198019801980198,2.5198776038260053
8.217821782178218,2.641591006842537
8.237623762376238,2.763629534156005
8.257425742574258,2.885506716415507
8.277227722772277,3.0067958372666714
8.297029702970297,3.1271194994747837
8.316831683168317,3.246141219716104
8.336633663366337,3.3635586763962935
8.356435643564357,3.479098289110031
8.376237623762377,3.5925108640783026
8.396039603960396,3.7035680903650894
8.415841584158416,3.812059714623283
8.435643564356436,3.9177912574193114
8.455445544554456,4.020582162609389
8.475247524752476,4.1202642938473195
8.495049504950495,4.216680710158907
8.514851485148515,4.3096846665689785
8.534653465346535,4.399138796809612
8.554455445544555,4.484914443819835
8.574257425742575,4.566891110581956
8.594059405940595,4.644956009233575
8.613861386138613,4.719003690663136
8.633663366336634,4.788935740186545
8.653465346534654,4.854660527604137
8.673267326732672,4.916093002099268
8.693069306930694,4.973154524176967
8.712871287128714,5.02577272824374
8.732673267326732,5.073881410567021
8.752475247524753,5.117420438280365
8.772277227722773,5.156335675860821
8.792079207920791,5.190578926132456
8.811881188118813,5.220107883371582
8.831683168316832,5.24488609652577
8.85148514851485,5.264882940928893
8.871287128712872,5.2800735972104755
8.891089108910892,5.29043903637253
8.91089108910891,5.295966010249525
8.930693069306932,5.296647046785288
8.950495049504951,5.292480449762089
8.97029702970297,5.283470302807028
8.990099009900991,5.269626477686226
9.00990099009901,5.250964647082471
9.029702970297029,5.2275063022432615
9.04950495049505,5.19927877608925
9.06930693069307,5.166315272593622
9.089108910891088,5.12865490348914
9.10891089108911,5.086342733638351
9.12871287128713,5.0394298367244446
9.148514851485148,4.987973363296644
9.16831683168317,4.932036623649338
9.188118811881187,4.871689188545328
9.207920792079207,4.807007011433683
9.227722772277229,4.738072576587706
9.247524752475247,4.664975078534044
9.267326732673267,4.587810639303249
9.287128712871288,4.506682571460736
9.306930693069306,4.421701696646183
9.326732673267326,4.332986731549477
9.346534653465348,4.240664755999243
9.366336633663366,4.144871781284793
9.386138613861386,4.045753441167308
9.405940594059407,3.9434658335080903
9.425742574257425,3.838176547368475
9.445544554455445,3.730065919223272
9.465346534653467,3.6193285730907405
9.485148514851485,3.5061753135603073
9.504950495049505,3.390835458680563
9.524752475247526,3.273559722383084
9.544554455445544,3.1546237845907603
9.564356435643564,3.0343327223896726
9.584158415841586,2.9130265182955206
9.603960396039604,2.7910869114099044
9.623762376237623,2.6689459115933687
9.643564356435645,2.547096348516661
9.663366336633663,2.4261048604775044
9.683168316831683,2.3066277096262127
9.702970297029704,2.189429679474986
9.722772277227723,2.075405959229761
9.742574257425742,1.9656061708031067
9.762376237623764,1.8612582891826095
9.782178217821782,1.7637878351741123
9.801980198019802,1.6748241806524122
9.821782178217823,1.5961814314196052
9.841584158415841,1.5297977774030131
9.861386138613861,1.4776181717748649
9.881188118811881,1.441416103444316
9.900990099009901,1.4225741491001658
9.92079207920792,1.4218733666197039
9.94059405940594,1.4393588489381843
9.96039603960396,1.4743324229728745
9.98019801980198,1.5254753463537032
10.0,1.59105384289272
10.01980198019802,1.6691401208133978
10.03960396039604,1.7577960731251774
10.05940594059406,1.8551969287008196
10.07920792079208,1.9596971974462245
10.099009900990099,2.069853430447008
10.118811881188119,2.1844200550525263
10.138613861386139,2.30233123816155
10.158415841584159,2.4226773464718083
10.178217821782178,2.544680928024836
10.198019801980198,2.6676746586114795
10.217821782178218,2.7910822092795193
10.237623762376238,2.914402189230202
10.257425742574258,3.037194935610951
10.277227722772277,3.1590717737239515
10.297029702970297,3.2796863441950355
10.316831683168317,3.3987276226956493
10.336633663366337,3.5159143080821758
10.356435643564357,3.630990308930235
10.376237623762377,3.7437211085447646
10.396039603960396,3.853890831718999
10.415841584158416,3.9612998723155988
10.435643564356436,4.065762969737637
10.455445544554454,4.167107645517824
10.475247524752476,4.265172929605027
10.495049504950495,4.359808320403772
10.514851485148514,4.450872934021457
10.534653465346535,4.538234807153386
10.554455445544555,4.621770325110505
10.574257425742573,4.701363752083276
10.594059405940595,4.776906845161177
10.613861386138614,4.848298537144325
10.633663366336632,4.915444675987853
10.653465346534654,4.978257810964936
10.673267326732674,5.036657017438467
10.693069306930692,5.090567753588571
10.712871287128714,5.1399217436250195
10.732673267326733,5.184656882976925
10.752475247524751,5.224717161742692
10.772277227722773,5.260052603334446
10.792079207920793,5.2906192157929945
10.81188118811881,5.31637895370289
