Frequency (Hz),Amplitude
0.0,1.0117641091864336
0.020066889632107024,1.011563264497235
0.04013377926421405,1.0109613168902165
0.060200668896321065,1.0099600258718768
0.0802675585284281,1.0085623243599782
0.10033444816053512,1.0067723192628688
0.12040133779264213,1.0045952922272572
0.14046822742474915,1.0020377004893983
0.1605351170568562,0.9991071777427631
0.1806020066889632,0.9958125349117029
0.20066889632107024,0.9921637606941786
0.22073578595317725,0.9881720217067071
0.24080267558528426,0.983849662031656
0.2608695652173913,0.979210201929335
0.2809364548494983,0.9742683354353819
0.3010033444816054,0.9690399265170594
0.3210702341137124,0.963542003410009
0.34113712374581934,0.9577927506999498
0.3612040133779264,0.9518114986511153
0.3812709030100334,0.9456187092165244
0.4013377926421405,0.9392359580938144
0.42140468227424743,0.9326859121163603
0.4414715719063545,0.9259923011941088
0.4615384615384615,0.9191798839442262
0.4816053511705685,0.9122744060814527
0.5016722408026756,0.9053025505755148
0.5217391304347826,0.8982918785331341
0.5418060200668896,0.891270759730697
0.5618729096989966,0.8842682917167836
0.5819397993311036,0.8773142064295308
0.6020066889632107,0.8704387633397949
0.6220735785953176,0.8636726282460754
0.6421404682274248,0.8570467370188293
0.6622073578595318,0.8505921438286326
0.6822742474916387,0.8443398536985998
0.7023411371237458,0.8383206396017032
0.7224080267558528,0.8325648447758068
0.7424749163879598,0.8271021714488155
0.7625418060200668,0.8219614577420361
0.7826086956521738,0.8171704451336909
0.802675585284281,0.8127555394923124
0.8227424749163879,0.808741569300482
0.8428093645484949,0.8051515452470667
0.862876254180602,0.8020064258306717
0.882943143812709,0.7993248939494859
0.903010033444816,0.7971231496142898
0.923076923076923,0.7954147238833544
0.9431438127090299,0.794210318858734
0.963210702341137,0.7935176780982053
0.983277591973244,0.793341491094436
1.0033444816053512,0.7936833345798501
1.0234113712374582,0.7945416523735286
1.0434782608695652,0.7959117743498906
1.0635451505016722,0.7977859739402707
1.0836120401337792,0.8001535624434638
1.1036789297658862,0.8030010173820376
1.1237458193979932,0.8063121412520726
1.1438127090301002,0.8100682463158918
1.1638795986622072,0.814248360606563
1.1839464882943145,0.8188294500582949
1.2040133779264215,0.8237866516419405
1.2240802675585283,0.8290935125494094
1.2441471571906353,0.8347222308040492
1.2642140468227423,0.8406438931390285
1.2842809364548495,0.8468287065422488
1.3043478260869565,0.8532462204749588
1.3244147157190636,0.8598655373964424
1.3444816053511706,0.8666555098376124
1.3645484949832773,0.8735849228387167
1.3846153846153846,0.8806226610824666
1.4046822742474916,0.8877378605030605
1.4247491638795986,0.8949000445285639
1.4448160535117056,0.902079245418178
1.4648829431438126,0.9092461113903717
1.4849498327759196,0.9163720004083664
1.5050167224080266,0.9234290616033765
1.5250836120401337,0.9303903053815786
1.5451505016722407,0.9372296632862126
1.5652173913043477,0.9439220386797987
1.5852842809364547,0.9504433492801347
1.605351170568562,0.9567705625346862
1.625418060200669,0.9628817247561298
1.6454849498327757,0.9687559848725308
1.6655518394648827,0.9743736135721797
1.6856187290969897,0.9797160185486611
1.705685618729097,0.9847657564788602
1.725752508361204,0.9895065422961973
1.745819397993311,0.9939232562553733
1.765886287625418,0.9980019492234138
1.7859531772575248,1.0017298465754922
1.806020066889632,1.005095351022909
1.826086956521739,1.008088044654438
1.846153846153846,1.010698690431217
1.866220735785953,1.0129192333386785
1.8862876254180598,1.0147428013664512
1.9063545150501673,1.0161637064583728
1.926421404682274,1.0171774455491203
1.9464882943143813,1.0177807017809677
1.966555183946488,1.017971345973518
1.9866220735785953,1.0177484384001554
2.0066889632107023,1.0171122309072256
2.026755852842809,1.0160641693947479
2.0468227424749164,1.0146068966606305
2.0668896321070234,1.0127442555930732
2.0869565217391304,1.0104812926777993
2.1070234113712374,1.0078242617674018
2.1270903010033444,1.0047806280386973
2.1471571906354514,1.0013590720402599
2.1672240802675584,0.9975694937054114
2.1872909698996654,0.9934230161755904
2.2073578595317724,0.9889319892442238
2.2274247491638794,0.9841099921917292
2.2474916387959865,0.9789718357373792
2.267558528428094,0.9735335627828696
2.2876254180602005,0.9678124475652489
2.3076923076923075,0.9618269927728815
2.3277591973244145,0.9555969241074173
2.3478260869565215,0.9491431816972355
2.367892976588629,0.9424879076841102
2.3879598662207355,0.9356544292157095
2.408026755852843,0.9286672359835936
2.4280936454849495,0.9215519513517269
2.4481605351170566,0.9143352960271419
2.468227424749164,0.9070450431364141
2.4882943143812706,0.8997099634942972
2.508361204013378,0.8923597597901699
2.5284280936454846,0.8850249883822412
2.548494983277592,0.877736967387013
2.568561872909699,0.8705276697927258
2.5886287625418056,0.8634296004211673
2.608695652173913,0.8564756557232546
2.6287625418060196,0.8496989656309155
2.648829431438127,0.8431327170101027
2.668896321070234,0.8368099586737623
2.688963210702341,0.830763388421546
2.709030100334448,0.8250251231717469
2.7290969899665547,0.8196264539299238
2.749163879598662,0.8145975880795397
2.769230769230769,0.8099673822544389
2.789297658862876,0.805763069825116
2.809364548494983,0.8020099877550108
2.82943143812709,0.7987313082098966
2.849498327759197,0.7959477807794365
2.869565217391304,0.7936774914448367
2.8896321070234112,0.7919356444571174
2.9096989966555182,0.7907343730460702
2.9297658862876252,0.7900825843474035
2.9498327759197323,0.7899858431228494
2.9698996655518393,0.7904462977848943
2.9899665551839463,0.7914626509758048
3.0100334448160533,0.7930301755587795
3.0301003344481603,0.7951407754381541
3.0501672240802673,0.7977830892209792
3.0702341137123748,0.8009426334462436
3.0903010033444813,0.8046019810108634
3.1103678929765888,0.8087409695678083
3.1304347826086953,0.8133369340939073
3.1505016722408024,0.8183649575341185
3.1705685618729094,0.8237981334147532
3.1906354515050164,0.8296078345524114
3.210702341137124,0.8357639824262323
3.2307692307692304,0.8422353123797462
3.250836120401338,0.8489896305220114
3.270903010033445,0.8559940589559187
3.2909698996655514,0.8632152667290024
3.311036789297659,0.8706196846413196
3.3311036789297654,0.8781737027271648
3.351170568561873,0.8858438498327996
3.3712374581939795,0.8935969552296542
3.391304347826087,0.901400292627143
3.411371237458194,0.9092217072831741
3.4314381270903005,0.9170297271591299
3.451505016722408,0.9247936592385357
3.471571906354515,0.9324836722345883
3.491638795986622,0.940070866962632
3.511705685618729,0.9475273356598753
3.531772575250836,0.954826211506044
3.551839464882943,0.9619417095446651
3.5719063545150496,0.9688491601326413
3.591973244147157,0.9755250359622426
3.612040133779264,0.9819469736101682
3.632107023411371,0.9880937904766244
3.652173913043478,0.9939454978871353
3.672240802675585,0.9994833110426051
3.692307692307692,1.0046896564213297
3.712374581939799,1.0095481771607369
3.732441471571906,1.014043736877117
3.752508361204013,1.0181624223191017
3.7725752508361197,1.0218915451945478
3.7926421404682276,1.0252196434609344
3.8127090301003346,1.0281364823257042
3.832775919732441,1.030633055164862
3.852842809364548,1.032701584534954
3.872909698996655,1.034335523424666
3.8929765886287626,1.03552955686733
3.9130434782608696,1.0362796040137134
3.933110367892976,1.0365828207453527
3.953177257525083,1.036437602891491
3.9732441471571907,1.0358435900971517
3.9933110367892977,1.0348016703750935
4.013377926421405,1.0333139853602173
4.033444816053511,1.031383936270502
4.053511705685618,1.0290161905632234
4.073578595317726,1.0262166892588218
4.093645484949833,1.0229926548859285
4.113712374581939,1.0193525999799884
4.133779264214047,1.0153063360430585
4.153846153846153,1.010864982843525
4.173913043478261,1.00604097790066
4.193979933110368,1.000848085959057
4.214046822742475,0.9953014082115988
4.234113712374581,0.9894173909753391
4.254180602006689,0.98321383346178
4.274247491638796,0.976709894210964
4.294314381270903,0.9699260956759614
4.314381270903009,0.962884326351169
4.334448160535117,0.9556078397332015
4.354515050167224,0.948121249287692
4.374581939799331,0.9404505184692025
4.394648829431437,0.9326229447068003
4.414715719063545,0.9246671361262782
4.434782608695651,0.9166129796357809
4.454849498327759,0.9084915988597246
4.474916387959866,0.9003353002730767
4.494983277591973,0.8921775057737734
4.5150501672240795,0.8840526698459615
4.535117056856188,0.8759961794248263
4.555183946488294,0.8680442345901457
4.575250836120401,0.8602337083083678
4.595317725752508,0.8526019836296965
4.615384615384615,0.845186767046424
4.635451505016722,0.8380258771476021
4.655518394648829,0.8311570082764403
4.6755852842809364,0.8246174696165105
4.695652173913043,0.8184439009988973
4.71571906354515,0.8126719677198625
4.735785953177258,0.8073360377588319
4.7558528428093645,0.8024688459452042
4.775919732441471,0.7981011507784883
4.795986622073578,0.794261390686194
4.816053511705686,0.7909753474221773
4.8361204013377925,0.7882658249780776
4.856187290969899,0.7861523527186864
4.8762541806020065,0.7846509213909793
4.896321070234113,0.7837737601529048
4.916387959866221,0.7835291618110893
4.936454849498328,0.7839213620739418
4.956521739130435,0.7849504768843467
4.976588628762541,0.7866124998953679
4.996655518394649,0.7888993600197676
5.016722408026756,0.791799036860519
5.036789297658863,0.7952957298534625
5.056856187290969,0.7993700752492021
5.076923076923077,0.8039994037251876
5.096989966555184,0.8091580305114765
5.117056856187291,0.8148175694572558
5.137123745819398,0.8209472624437332
5.157190635451505,0.8275143159169176
5.177257525083611,0.834484237000281
5.197324414715719,0.8418211625700549
5.217391304347826,0.8494881757481039
5.237458193979933,0.8574476054064911
5.257525083612039,0.8656613054123437
5.277591973244148,0.8740909114137826
5.297658862876254,0.882698073935392
5.317725752508361,0.8914446673888182
5.337792642140468,0.9002929752974135
5.357859531772575,0.909205852582215
5.377926421404682,0.9181468661670991
5.397993311036789,0.9270804154464326
5.418060200668896,0.9359718343359172
5.438127090301003,0.9447874767138672
5.458193979933109,0.9534947870745211
5.478260869565218,0.9620623581733042
5.498327759197324,0.9704599773616174
5.518394648829431,0.978658663198551
5.538461538461538,0.9866306937995695
5.558528428093646,0.9943496282463108
5.578595317725752,1.0017903222436981
5.598662207357859,1.0089289390756826
5.618729096989966,1.0157429567824199
5.638795986622073,1.0222111723618714
5.65886287625418,1.0283137036892047
5.678929765886288,1.0340319897482235
5.698996655518394,1.039348789681158
5.719063545150501,1.0442481810852628
5.739130434782608,1.0487155579172338
5.759197324414716,1.052737628308003
5.7792642140468224,1.0563024125406164
5.799331103678929,1.0593992414015645
5.8193979933110365,1.062018755080398
5.839464882943144,1.0641529027627914
5.8595317725752505,1.065794943037554
5.879598662207358,1.0669394452179468
5.8996655518394645,1.0675822916607032
5.919732441471571,1.0677206811526307
5.9397993311036785,1.0673531334227613
5.959866220735786,1.0664794948282306
5.9799331103678925,1.0651009452528515
5.999999999999999,1.0632200062488262
6.020066889632107,1.060840550442831
6.040133779264214,1.0579678122179588
6.060200668896321,1.0546083996713114
6.080267558528428,1.050770307832973
6.100334448160535,1.0464629331148902
6.120401337792642,1.0416970889365857
6.1404682274247495,1.036485022447918
6.160535117056856,1.030840432235967
6.180602006688963,1.0247784868621101
6.200668896321069,1.0183158440255218
6.2207357859531776,1.0114706700883411
6.240802675585284,1.0042626596247846
6.260869565217391,0.9967130545689106
6.280936454849498,0.9888446624325
6.301003344481605,0.9806818729430654
6.321070234113712,0.9722506723115132
6.341137123745819,0.9635786541772464
6.361204013377926,0.9546950260957422
6.381270903010033,0.9456306102289466
6.40133779264214,0.9364178366743907
6.421404682274248,0.9270907276270357
6.441471571906354,0.9176848703141226
6.461538461538461,0.9082373763855692
6.481605351170568,0.8987868251922614
6.501672240802676,0.8893731881573208
6.521739130434782,0.8800377312620105
6.54180602006689,0.8708228925526001
6.561872909698996,0.8617721315585049
6.581939799331103,0.8529297476289425
6.60200668896321,0.8443406644831742
6.622073578595318,0.8360501787653958
6.642140468227424,0.828103671134536
6.662207357859531,0.8205462794275805
6.682274247491639,0.8134225347256547
6.702341137123746,0.806775962716479
6.722408026755852,0.800648654550031
6.742474916387959,0.7950808133588695
6.762541806020066,0.7901102846581611
6.782608695652174,0.7857720808165906
6.80267558528428,0.7820979115355287
6.822742474916388,0.7791157336123262
6.842809364548494,0.776849334021314
6.862876254180601,0.775317960376223
6.882943143812709,0.7745360120421474
6.903010033444816,0.7745128035162
6.9230769230769225,0.7752524092472705
6.94314381270903,0.7767535959558907
6.963210702341137,0.7790098449578946
6.983277591973244,0.782009463255391
7.0033444816053505,0.7857357785224389
7.023411371237458,0.7901674098536823
7.0434782608695645,0.7952786034911331
7.063545150501672,0.8010396208555366
7.083612040133779,0.8074171651607935
7.103678929765886,0.8143748326751653
7.123745819397993,0.8218735752314256
7.143812709030099,0.8298721617450698
7.1638795986622075,0.8383276281085643
7.183946488294314,0.8471957067156096
7.204013377926421,0.8564312288655525
7.224080267558528,0.8659884952637834
7.2441471571906355,0.8758216116579981
7.264214046822742,0.8858847882580377
7.2842809364548495,0.896132602934591
7.304347826086956,0.9065202292657025
7.324414715719063,0.9170036313055615
7.34448160535117,0.9275397275107408
7.364548494983278,0.938086526606147
7.384615384615384,0.9486032383427585
7.404682274247491,0.959050362128136
7.424749163879598,0.9693897564334908
7.444816053511706,0.979584691727803
7.464882943143812,0.9895998894866351
7.48494983277592,0.9994015495914902
7.505016722408026,1.0089573681916797
7.525083612040134,1.0182365478567363
7.545150501672239,1.0272098016125897
7.565217391304348,1.0358493522344359
7.585284280936455,1.0441289279675885
7.605351170568561,1.0520237556659218
7.625418060200669,1.0595105521767092
7.645484949832775,1.066567514659873
7.665551839464882,1.073174310408374
7.685618729096991,1.0793120666327383
7.705685618729096,1.0849633605853175
7.725752508361204,1.0901122103269054
7.74581939799331,1.0947440663781476
7.765886287625418,1.0988458044493068
7.785953177257525,1.1024057194025918
7.806020066889631,1.1054135205703361
7.826086956521739,1.1078603285285635
7.846153846153847,1.1097386734075254
7.866220735785952,1.1110424948078885
7.88628762541806,1.1117671433825824
7.906354515050166,1.1119093841386825
7.926421404682274,1.1114674015109967
7.946488294314381,1.1104408062578215
7.966555183946488,1.1088306442298428
7.986622073578595,1.106639407063885
8.006688963210701,1.1038710448543971
8.02675585284281,1.1005309808557067
8.046822742474916,1.096626128267073
8.066889632107022,1.092164909149411
8.08695652173913,1.087157275516032
8.107023411371236,1.0816147326293808
8.127090301003344,1.0755503645195779
8.147157190635452,1.0689788617177571
8.167224080267557,1.0619165511654713
8.187290969899665,1.054381428219096
8.207357859531772,1.046393190612745
8.227424749163879,1.0379732741716425
8.247491638795987,1.0291448899778148
8.267558528428093,1.0199330625766234
8.2876254180602,1.0103646686734746
8.307692307692307,1.000468475599575
8.327759197324415,0.9902751786204477
8.347826086956522,0.9798174359158572
8.367892976588628,0.9691298997717369
8.387959866220736,0.958249242189752
8.408026755852843,0.9472141727372191
8.42809364548495,0.9360654460301497
8.448160535117056,0.9248458557692764
8.468227424749163,0.9136002117430254
8.488294314381271,0.9023752956886537
8.508361204013378,0.8912197913875364
8.528428093645484,0.8801841838989877
8.548494983277592,0.869320622455135
8.568561872909697,0.858682741308998
8.588628762541806,0.8483254328211877
8.608695652173914,0.8383045673727534
8.628762541806019,0.8286766553930844
8.648829431438127,0.8194984479812775
8.668896321070234,0.8108264743533669
8.68896321070234,0.8027165167127307
8.709030100334449,0.7952230261171769
8.729096989966555,0.7883984864371981
8.749163879598662,0.7822927374176605
8.769230769230768,0.7769522719292254
8.789297658862875,0.7724195263993514
8.809364548494983,0.7687321867492872
8.82943143812709,0.7659225345081508
8.849498327759196,0.7640168587292429
8.869565217391303,0.7630349585884897
8.889632107023411,0.762989758947873
8.909698996655518,0.7638870567670054
8.929765886287624,0.765725410315713
8.949832775919733,0.7684961761533131
8.96989966555184,0.7721836914181971
8.989966555183946,0.7767655917950916
9.010033444816054,0.7822132492429391
9.030100334448159,0.788492308691348
9.050167224080267,0.7955632997745387
9.070234113712376,0.8033822983764861
9.09030100334448,0.8119016132073679
9.110367892976589,0.8210704745498918
9.130434782608695,0.8308357053295141
9.150501672240802,0.8411423583559318
9.17056856187291,0.8519343075542699
9.190635451505017,0.863154784909323
9.210702341137123,0.8747468584254989
9.23076923076923,0.886653849488515
9.250836120401337,0.8988196905159027
9.270903010033445,0.9111892256851812
9.290969899665551,0.9237084588648143
9.311036789297658,0.936324753710773
9.331103678929765,0.9489869913143857
9.351170568561873,0.9616456908830389
9.37123745819398,0.9742530987886427
9.391304347826086,0.9867632510034355
9.411371237458194,0.999132013521431
9.4314381270903,1.0113171048859977
9.451505016722408,1.0232781044470989
9.471571906354516,1.034976449483271
9.49163879598662,1.0463754238607559
9.511705685618729,1.0574401404776546
9.531772575250837,1.0681375193595462
9.551839464882942,1.0784362629373003
9.57190635451505,1.088306829747104
9.591973244147155,1.0977214075443205
9.612040133779264,1.1066538866136655
9.632107023411372,1.1150798338841408
9.652173913043477,1.1229764683139651
9.672240802675585,1.1303226378949576
9.692307692307692,1.1370987985325895
9.712374581939798,1.1432869949852629
9.732441471571907,1.148870843989557
9.752508361204013,1.153835519656187
9.77257525083612,1.1581677411904445
9.792642140468226,1.1618557629698525
9.812709030100335,1.1648893669989324
9.832775919732441,1.1672598577541824
9.852842809364548,1.168960059431506
9.872909698996656,1.1699843156115097
9.89297658862876,1.1703284913649028
9.91304347826087,1.1699899778300495
9.933110367892976,1.1689676993065887
9.953177257525082,1.1672621229227413
9.97324414715719,1.1648752709488657
9.993311036789297,1.161810735845468
10.013377926421404,1.1580736981496458
10.033444816053512,1.1536709473196964
10.053511705685617,1.148610905671991
10.073578595317725,1.1429036555571654
10.093645484949834,1.1365609699327592
10.113712374581938,1.12959634649554
10.133779264214047,1.122025045537661
10.153846153846153,1.1138641316842577
10.17391304347826,1.105132519653986
10.193979933110368,1.095851024155499
10.214046822742475,1.0860424139881073
10.234113712374581,1.0757314703500063
10.254180602006688,1.0649450492662937
10.274247491638796,1.0537121479265332
10.294314381270903,1.0420639745586262
10.31438127090301,1.0300340212551005
10.334448160535118,1.0176581388983583
10.354515050167223,1.0049746129924015
10.37458193979933,0.9920242387877858
10.394648829431437,0.9788503935720293
10.414715719063544,0.9654991033771108
10.434782608695652,0.9520191006204054
10.454849498327757,0.9384618683391748
10.474916387959865,0.9248816657040415
10.494983277591974,0.9113355284163218
10.515050167224079,0.8978832364368533
10.535117056856187,0.884587240310791
10.555183946488295,0.8715125362228249
10.5752508361204,0.8587264789544492
10.595317725752508,0.8462985212714446
10.615384615384615,0.8342998681394329
10.635451505016722,0.8228030347763264
10.65551839464883,0.8118812991521261
10.675585284280936,0.8016080423830523
10.695652173913043,0.792055974735562
10.71571906354515,0.7832962507528667
10.735785953177256,0.7753974842743289
10.755852842809364,0.7684246825427109
10.775919732441471,0.7624381276219988
