Time (s),Filtered Signal
0.0,-0.010114125266003167
0.033370165745856356,-0.13238842273331905
0.06674033149171271,-0.2037020653893079
0.10011049723756907,-0.18832182166247094
0.13348066298342542,-0.07657510808122114
0.16685082872928178,0.11239254120337983
0.20022099447513814,0.3366040566577261
0.2335911602209945,0.5439315765931184
0.26696132596685085,0.6871916461518754
0.30033149171270723,0.7367170250233952
0.33370165745856356,0.6866752284272531
0.3670718232044199,0.5538931851474076
0.4004419889502763,0.37058373316106
0.43381215469613266,0.17410677531704125
0.467182320441989,-0.002743095921928692
0.5005524861878453,-0.13828878510381803
0.5339226519337017,-0.2242453283049384
0.5672928176795581,-0.26413201508275075
0.6006629834254145,-0.26928366535373427
0.6340331491712707,-0.2542371846831351
0.6674033149171271,-0.23289965502733548
0.7007734806629835,-0.21614615585862165
0.7341436464088398,-0.21074912425775236
0.7675138121546962,-0.21912583039127878
0.8008839779005525,-0.23941955362728548
0.8342541436464089,-0.2657848787867496
0.8676243093922653,-0.28914150830057933
0.9009944751381216,-0.2987802184578237
0.934364640883978,-0.28489659045370636
0.9677348066298344,-0.2415320665053031
1.0011049723756906,-0.16889693131011377
1.0344751381215471,-0.07401918183663739
1.0678453038674034,0.030772003985838108
1.1012154696132597,0.13110606863682425
1.1345856353591162,0.2143728637869739
1.1679558011049724,0.272653248468307
1.201325966850829,0.30383931185820706
1.2346961325966852,0.3108892616147234
1.2680662983425415,0.29994920138912873
1.301436464088398,0.2783408472162793
1.3348066298342542,0.2530890301947671
1.3681767955801105,0.23005914070956018
1.401546961325967,0.21335892022254263
1.4349171270718233,0.20471102678681452
1.4682872928176796,0.2029122916434642
1.501657458563536,0.2038509392915537
1.5350276243093923,0.2014719773517225
1.5683977900552488,0.18954087171935
1.601767955801105,0.1634531836813203
1.6351381215469614,0.12119646983338618
1.6685082872928179,0.06310118629483258
1.7018784530386741,-0.009112752108746307
1.7352486187845306,-0.09295316067460721
1.768618784530387,-0.18469873431673864
1.8019889502762432,-0.2781493580774188
1.8353591160220997,-0.36386033033036347
1.868729281767956,-0.43026073605933063
1.9020994475138122,-0.46701804267142993
1.9354696132596687,-0.4693858083344498
1.968839779005525,-0.44116222993877463
2.0022099447513813,-0.3941659295946126
2.0355801104972375,-0.3438143138744317
2.0689502762430942,-0.302571702808337
2.1023204419889505,-0.27444826075026857
2.135690607734807,-0.2534831019850913
2.169060773480663,-0.22724264667522193
2.2024309392265193,-0.1837482114145828
2.235801104972376,-0.11832151822602871
2.2691712707182323,-0.03672542958254064
2.3025414364640886,0.04714660068198819
2.335911602209945,0.11787353734062027
2.369281767955801,0.16591807522990887
2.402651933701658,0.19194757596577094
2.436022099447514,0.20589832835525762
2.4693922651933704,0.22147979530202935
2.5027624309392267,0.24916503852325816
2.536132596685083,0.29127696701130895
2.5695027624309392,0.3413835113216919
2.602872928176796,0.3878029592643845
2.636243093922652,0.4190105882131741
2.6696132596685085,0.4281560910407439
2.7029834254143648,0.41484482881431006
2.736353591160221,0.38404164838504873
2.7697237569060777,0.34336382489953143
2.803093922651934,0.30043607076601464
2.8364640883977903,0.2613810054071999
2.8698342541436466,0.23048471590028677
2.903204419889503,0.2103202283741091
2.936574585635359,0.20154455641823985
2.969944751381216,0.2021348109243706
3.003314917127072,0.20655813156627667
3.0366850828729284,0.20577950798495453
3.0700552486187846,0.18882608341223572
3.103425414364641,0.14591405615772934
3.1367955801104976,0.07223827891413293
3.170165745856354,-0.02915168461531419
3.20353591160221,-0.14705229463128416
3.2369060773480665,-0.26534386854905134
3.2702762430939227,-0.3692849154217226
3.3036464088397794,-0.4526241739942703
3.3370165745856357,-0.5220304532276111
3.370386740331492,-0.5955332749851454
3.4037569060773483,-0.6938473321288722
3.4371270718232045,-0.8271224552446463
3.4704972375690613,-0.9831334905824486
3.5038674033149175,-1.1239874839896582
3.537237569060774,-1.1956480156606473
3.57060773480663,-1.148536458819175
3.6039779005524863,-0.9609652116475277
3.6373480662983426,-0.65395325406804
3.6707182320441993,-0.2885890389673197
3.7040883977900556,0.05503418253294429
3.737458563535912,0.30897633512122125
3.770828729281768,0.4446588199212793
3.8041988950276244,0.4832918625929605
3.837569060773481,0.48436947313519046
3.8709392265193374,0.5172916045311338
3.9043093922651937,0.6288376530733306
3.93767955801105,0.820858221122705
3.9710497237569062,1.047786476002958
4.0044198895027625,1.234831406150513
4.037790055248619,1.3088738654265921
4.071160220994475,1.2288353836894987
4.104530386740332,1.0027884784977064
4.1379005524861885,0.6850733218682804
4.171270718232044,0.3554629579659635
4.204640883977901,0.08990898892197875
4.238011049723757,-0.06481729223502089
4.271381215469614,-0.10315249285757369
4.30475138121547,-0.05661126990214711
4.338121546961326,0.02252480023625427
4.371491712707183,0.08178184459430748
4.404861878453039,0.08540448284529754
4.438232044198895,0.022614807933514922
4.471602209944752,-0.09382865014595487
4.504972375690608,-0.2365278829447546
4.538342541436465,-0.37566388295689734
4.5717127071823205,-0.48996771313590276
4.605082872928177,-0.5727137896346273
4.638453038674034,-0.6309009481895742
4.67182320441989,-0.6783475556662778
4.7051933701657465,-0.7258994767841291
4.738563535911602,-0.7733260438287376
4.771933701657459,-0.8069448738738075
4.805303867403316,-0.8045034287387555
4.8386740331491715,-0.7453150135088312
4.872044198895028,-0.6208122345899368
4.905414364640884,-0.44016660655690243
4.938784530386741,-0.2279623879631709
4.972154696132597,-0.015027783891409558
5.005524861878453,0.17283141736186217
5.03889502762431,0.3224201743641068
5.072265193370166,0.43353801310260087
5.105635359116023,0.5128527107972031
5.1390055248618784,0.5656281089181694
5.172375690607735,0.5906196756980433
5.205745856353592,0.5811999613447765
5.239116022099448,0.53177137551337
5.272486187845304,0.4451899419478825
5.30585635359116,0.3361959360832306
5.339226519337017,0.22809863278437545
5.372596685082874,0.14387621339316486
5.4059668508287295,0.09620689516636327
5.439337016574586,0.08183949169446073
5.472707182320442,0.08358325529760163
5.506077348066299,0.07915690377163709
5.5394475138121555,0.052388483599914645
5.572817679558011,0.0009037774042720373
5.606187845303868,-0.06370168871998105
5.639558011049724,-0.12311163062253072
5.672928176795581,-0.16277141616414317
5.706298342541437,-0.17962386865536517
5.739668508287293,-0.18267429333645405
5.77303867403315,-0.18606184883472887
5.806408839779006,-0.19870256855983395
5.839779005524862,-0.2167366377482032
5.873149171270718,-0.223612763452259
5.906519337016575,-0.1983419550589969
5.939889502762432,-0.1276642511997501
5.9732596685082875,-0.015402937647513144
6.006629834254144,0.11636024417666581
6.04,0.23523142537189606
6.073370165745857,0.31161744670237185
6.1067403314917135,0.33047922716636735
6.140110497237569,0.29624381069524897
6.173480662983426,0.22916524589070225
6.206850828729282,0.15562039389069662
6.240220994475139,0.09725021878578474
6.273591160220995,0.0636267230312982
6.306961325966851,0.05086764981730187
6.340331491712708,0.045777371991761774
6.373701657458564,0.03298342181636116
6.40707182320442,0.00180706821208886
6.440441988950277,-0.04978829667300775
6.473812154696133,-0.11533336455898195
6.50718232044199,-0.1834701093668588
6.5405524861878455,-0.24306850472386274
6.573922651933702,-0.2874203413757484
6.607292817679559,-0.31576587436537257
6.640662983425415,-0.3318448675429343
6.674033149171271,-0.3405930131700717
6.707403314917127,-0.3448051496786248
6.740773480662984,-0.34330828498680194
6.774143646408841,-0.3312431569772405
6.8075138121546965,-0.3020346453403194
6.840883977900553,-0.25001492660706487
6.874254143646409,-0.17260001213802534
6.907624309392266,-0.07129004814180023
6.9409944751381225,0.048653581388125616
6.974364640883978,0.17941719409492615
7.007734806629835,0.31191109041610443
7.041104972375691,0.4363235524539486
7.074475138121548,0.5417178904624195
7.107845303867403,0.6153509788644407
7.14121546961326,0.6431228239242213
7.174585635359117,0.6124346441856954
7.207955801104973,0.5174414080319596
7.241325966850829,0.36475805966785624
7.274696132596685,0.176339608967887
7.308066298342542,-0.01333056438769878
7.341436464088399,-0.1662285881026102
7.3748066298342545,-0.25316438554323106
7.408176795580111,-0.26441419602841737
7.441546961325967,-0.21358189721508963
7.474917127071824,-0.13242528524365982
7.5082872928176805,-0.05854283985317102
7.541657458563536,-0.021230732539148048
7.575027624309393,-0.03166028021647604
7.608397790055249,-0.08132676786873477
7.641767955801106,-0.14866309635257038
7.675138121546962,-0.20994515419287044
7.708508287292818,-0.2490328227432814
7.741878453038675,-0.26171468123884944
7.775248618784531,-0.25358064856071943
7.808618784530387,-0.2336620108564483
7.841988950276244,-0.2078839262127833
7.8753591160221,-0.1759309322387009
7.908729281767957,-0.13287858886451054
7.9420994475138125,-0.07419219783318083
7.975469613259669,-0.000891006052434094
8.008839779005525,0.07828300005633476
8.042209944751383,0.14907266405805863
8.075580110497238,0.19719312538831396
8.108950276243094,0.214227895960108
8.14232044198895,0.20093806762804411
8.175690607734808,0.16647422859591163
8.209060773480664,0.12413532323501669
8.24243093922652,0.08593148359466105
8.275801104972377,0.05850608900439125
8.309171270718233,0.04197924755665988
8.342541436464089,0.03167480486976331
8.375911602209946,0.021372552163395474
8.409281767955802,0.006294835319759074
8.442651933701658,-0.015435877055045217
8.476022099447514,-0.043061796811393556
8.509392265193371,-0.07439038060693857
8.542762430939227,-0.10676990600241423
8.576132596685083,-0.13706954425026166
8.60950276243094,-0.16078740130409214
8.642872928176796,-0.17125757863012814
8.676243093922652,-0.1601682995020372
8.709613259668508,-0.11998932590125222
8.742983425414366,-0.047696506876123236
8.776353591160222,0.051944478004081474
8.809723756906077,0.16557289136570894
8.843093922651935,0.2740651986829181
8.87646408839779,0.35840709579155067
8.909834254143647,0.406236603807085
8.943204419889504,0.4159157311670171
8.97657458563536,0.39582399363930215
9.009944751381216,0.3588137419062269
9.043314917127072,0.3143818920144977
9.07668508287293,0.26266190339973294
9.110055248618785,0.19378573368327467
9.143425414364641,0.09355856345694527
9.176795580110499,-0.04700773546586265
9.210165745856354,-0.22309346835082666
9.24353591160221,-0.4130948619066745
9.276906077348068,-0.5833710553597978
9.310276243093924,-0.6990503038860723
9.34364640883978,-0.7362628987993821
9.377016574585635,-0.6904915572911113
9.410386740331493,-0.5775960695072261
9.443756906077349,-0.4274318266834083
9.477127071823205,-0.273135247909238
9.510497237569062,-0.14064113492984337
9.543867403314918,-0.04232228375963154
9.577237569060774,0.023610774764497647
9.610607734806631,0.06887190189974503
9.643977900552487,0.10858000401345519
9.677348066298343,0.15516656483250837
9.710718232044199,0.21441487979609897
9.744088397790057,0.28405988792886516
9.777458563535912,0.3546151477966446
9.810828729281768,0.4120096916861838
9.844198895027626,0.44173712326400105
9.877569060773482,0.43392934262714766
9.910939226519337,0.3879517518697836
9.944309392265193,0.314395565719889
9.97767955801105,0.23264896960506734
10.011049723756907,0.1639820449643305
10.044419889502763,0.122607684579864
10.07779005524862,0.1089421451708765
10.111160220994476,0.10887791870113181
10.144530386740332,0.10011764344196009
10.17790055248619,0.062880529314652
10.211270718232045,-0.010240821275056993
10.244640883977901,-0.11023825551711149
10.278011049723757,-0.21543747796055787
10.311381215469615,-0.3009913988709511
10.34475138121547,-0.34927065200313856
10.378121546961326,-0.3561766139544315
10.411491712707184,-0.33079836267149365
10.44486187845304,-0.28927436765638215
10.478232044198895,-0.24637390651270938
10.511602209944753,-0.2090024592921223
10.544972375690609,-0.1744842120060353
10.578342541436465,-0.13394434309539563
10.61171270718232,-0.07867367819086624
10.645082872928178,-0.006109376501862056
10.678453038674034,0.07749859440302212
10.71182320441989,0.15884997996865755
10.745193370165747,0.22266993521399506
10.778563535911603,0.2574817618888817
10.811933701657459,0.2594043015735343
10.845303867403315,0.232582495858622
10.878674033149172,0.1866511341486207
10.912044198895028,0.13291902799398464
10.945414364640884,0.08114381601586676
10.978784530386742,0.03795299678885323
11.012154696132598,0.00680730471664618
11.045524861878453,-0.011360104521434222
11.078895027624311,-0.017680214081856018
11.112265193370167,-0.015286779436425209
11.145635359116023,-0.009203261038206113
11.179005524861878,-0.005537732453998677
11.212375690607736,-0.009812616177708393
11.245745856353592,-0.025030282262675393
11.279116022099448,-0.05054095593658892
11.312486187845305,-0.08250061416606595
11.345856353591161,-0.11577678109674727
11.379226519337017,-0.14618142042556592
11.412596685082875,-0.1715955934637197
11.44596685082873,-0.1912169130668192
11.479337016574586,-0.20346427316983876
11.512707182320442,-0.20418180345983034
11.5460773480663,-0.18689144230114407
11.579447513812156,-0.14572537047564615
11.612817679558011,-0.07989539269749281
11.646187845303869,0.002803838477442703
11.679558011049725,0.08598378550110446
11.71292817679558,0.14916321793155113
11.746298342541436,0.17545747585263632
11.779668508287294,0.1591663678731223
11.81303867403315,0.10949363886132603
11.846408839779006,0.048060131722786635
11.879779005524863,0.0006755623933537096
11.91314917127072,-0.013290630038488092
11.946519337016575,0.010872642569667282
11.979889502762433,0.06139690299716367
12.013259668508288,0.1157041335744158
12.046629834254144,0.15105385846694055
12.08,0.15515357952492317
12.113370165745858,0.13166344592603388
12.146740331491714,0.0979978224414561
12.18011049723757,0.07657505626649753
12.213480662983427,0.08378241360862453
12.246850828729283,0.12187111127671901
12.280220994475139,0.17740816841518028
12.313591160220996,0.22671125824737987
12.346961325966852,0.2455372500899512
12.380331491712708,0.21867317455421867
12.413701657458564,0.1455632245557896
12.447071823204421,0.040169844888435446
12.480441988950277,-0.07427247622519291
12.513812154696133,-0.17319799392946658
12.54718232044199,-0.23838207488220675
12.580552486187846,-0.2628938897130474
12.613922651933702,-0.25199892510460364
12.64729281767956,-0.21999218564670098
12.680662983425416,-0.18417978122867182
12.714033149171271,-0.15817336314292343
12.747403314917127,-0.14702447528572882
12.780773480662985,-0.14619157640363223
12.81414364640884,-0.14484724801624305
12.847513812154697,-0.13206910220278428
12.880883977900554,-0.10295560994849591
12.91425414364641,-0.061590224711079
12.947624309392266,-0.01930406151842379
12.980994475138122,0.010858828679308562
13.01436464088398,0.02054848241176102
13.047734806629835,0.010043618629641468
13.081104972375691,-0.012226294291813595
13.114475138121549,-0.03413459914274412
13.147845303867404,-0.045854220019105586
13.18121546961326,-0.044370777735401774
13.214585635359118,-0.034445372271866725
13.247955801104974,-0.02580968751383181
13.28132596685083,-0.028116163093229066
13.314696132596685,-0.04602513550247767
13.348066298342543,-0.07655788742662206
13.381436464088399,-0.10975554975450086
13.414806629834255,-0.13228768310581596
13.448176795580112,-0.1324754152410422
13.481546961325968,-0.10462137731660125
13.514917127071824,-0.05078665396150584
13.548287292817681,0.020792277796658768
13.581657458563537,0.09992644745972444
13.615027624309393,0.17925182212139162
13.648397790055249,0.2569929732340652
13.681767955801106,0.33595877240507604
13.715138121546962,0.4189120575546571
13.748508287292818,0.5025747561704761
13.781878453038676,0.5737415201123206
13.815248618784532,0.6104644547303022
13.848618784530387,0.5890387114035179
13.881988950276245,0.494493610890559
13.9153591160221,0.3299687279163041
13.948729281767957,0.12006995352333047
13.982099447513813,-0.0944841437961311
14.01546961325967,-0.269702321096714
14.048839779005526,-0.37364636750916863
14.082209944751382,-0.39761521162374736
14.11558011049724,-0.35815199585643376
14.148950276243095,-0.2890167672743079
14.182320441988951,-0.22691579206771265
14.215690607734807,-0.19747962722014822
14.249060773480664,-0.20742572435471449
14.28243093922652,-0.24551893166898478
14.315801104972376,-0.290725416330748
14.349171270718234,-0.32294527002291107
14.38254143646409,-0.3311596394909611
14.415911602209945,-0.31569385301333924
14.449281767955803,-0.2844687234440254
14.482651933701659,-0.24603230479507054
14.516022099447515,-0.20350932163365465
14.54939226519337,-0.15281401579765488
14.582762430939228,-0.08599359727744295
14.616132596685084,0.002302122290409037
14.64950276243094,0.10896202332301855
14.682872928176797,0.22055481291158974
14.716243093922653,0.3166600870932902
14.749613259668509,0.3768289810458823
14.782983425414367,0.387874070396669
14.816353591160222,0.34830521935942554
14.849723756906078,0.2683828937465553
14.883093922651934,0.16633308955631615
14.916464088397792,0.0626610275405891
14.949834254143648,-0.02523498477395649
14.983204419889503,-0.08656875370975482
15.016574585635361,-0.11817437971879319
15.049944751381217,-0.12328255803491742
15.083314917127073,-0.10894435446212754
15.116685082872928,-0.08327378183921175
15.150055248618786,-0.0535894455375544
15.183425414364642,-0.026012309153079945
15.216795580110498,-0.006226580438171339
15.250165745856355,-0.0002931763671264022
15.283535911602211,-0.014133605214359973
15.316906077348067,-0.05093940962313601
15.350276243093925,-0.10718925979061
15.38364640883978,-0.16946743777892181
15.417016574585636,-0.21486487304241922
15.450386740331492,-0.21668024174092806
15.48375690607735,-0.1545534688724937
15.517127071823205,-0.025212719239426477
15.550497237569061,0.15157905796386334
15.583867403314919,0.3361900591841967
15.617237569060775,0.4818878475817982
15.65060773480663,0.5527596586001784
15.683977900552488,0.5388580215407186
15.717348066298344,0.4608319092724091
15.7507182320442,0.3606357904482668
15.784088397790056,0.28163030773251296
15.817458563535913,0.24718241186572687
15.85082872928177,0.2484912335645827
15.884198895027625,0.24844680876977585
15.917569060773483,0.20042997295735404
15.950939226519338,0.07306592826289927
15.984309392265194,-0.13156828986534339
16.01767955801105,-0.3756981729968916
16.051049723756908,-0.6007794239236144
16.084419889502765,-0.7519784745117288
16.11779005524862,-0.8000083446682709
16.151160220994477,-0.750144390158714
16.18453038674033,-0.6353744912318411
16.21790055248619,-0.4986695376775066
16.251270718232046,-0.3740102487998298
16.2846408839779,-0.2750940554318071
16.318011049723758,-0.1956500355885001
16.351381215469615,-0.11912810510184921
16.38475138121547,-0.031421110837857924
16.418121546961327,0.07010604070407685
16.451491712707185,0.17511209846355844
16.48486187845304,0.26590695243573637
16.518232044198896,0.32647688972704664
16.551602209944754,0.35009594520669945
16.584972375690608,0.3419884701720166
16.618342541436466,0.3161925832460996
16.651712707182323,0.28851218185640354
16.685082872928177,0.26908962665653735
16.718453038674035,0.2581166099892909
16.751823204419892,0.24665014117726772
16.785193370165747,0.2221183434711342
16.818563535911604,0.17590244643328812
16.851933701657458,0.10932102620801068
16.885303867403316,0.034936777277982
16.918674033149173,-0.027814301346797108
16.952044198895027,-0.06096326005223458
16.985414364640885,-0.05651890345917441
17.018784530386743,-0.020970361011640872
17.052154696132597,0.026699279528622104
17.085524861878454,0.06287355512661114
17.118895027624312,0.06944176105056829
17.152265193370166,0.041356190236484326
17.185635359116024,-0.012028506070416672
17.21900552486188,-0.07233298184862688
