Frequency (Hz),Amplitude
0.0,0.5162028204190074
0.019867549668874173,0.5160368312359621
0.039735099337748346,0.5155392024587483
0.059602649006622516,0.5147109510573765
0.07947019867549669,0.5135537741691907
0.09933774834437085,0.5120700524027549
0.11920529801324503,0.5102628545090897
0.13907284768211922,0.5081359434656466
0.15894039735099338,0.5056937840308807
0.17880794701986755,0.5029415518393334
0.1986754966887417,0.49988514411827717
0.2185430463576159,0.49653119211709207
0.23841059602649006,0.4928870753492255
0.2582781456953642,0.48896093775291755
0.27814569536423844,0.4847617058805011
0.2980132450331126,0.480299109225412
0.31788079470198677,0.4755837027903101
0.33774834437086093,0.470626891986691
0.3576158940397351,0.465440959934131
0.3774834437086093,0.460039097193077
0.3973509933774834,0.4544354339154933
0.4172185430463576,0.4486450743284141
0.4370860927152318,0.44268413337191426
0.45695364238410596,0.43656977518860723
0.4768211920529801,0.43032025300066906
0.49668874172185434,0.42395494970348013
0.5165562913907285,0.4174944182450067
0.5364238410596026,0.4109604205375244
0.5562913907284769,0.40437596325470543
0.5761589403973509,0.3977653283963018
0.5960264900662252,0.3911540959499706
0.6158940397350993,0.3845691553479316
0.6357615894039735,0.3780387017154512
0.6556291390728477,0.37159221216229577
0.6754966887417219,0.3652603966189648
0.695364238410596,0.3590751170305249
0.7152317880794702,0.35306926818501705
0.7350993377483444,0.3472766131924288
0.7549668874172186,0.34173156679725525
0.7748344370860927,0.3364689204765295
0.7947019867549668,0.3315235048255874
0.8145695364238411,0.3269297872229593
0.8344370860927152,0.32272140628536283
0.8543046357615894,0.31893064915330205
0.8741721854304636,0.3155878830011517
0.8940397350993378,0.3127209579530034
0.9139072847682119,0.3103546042079142
0.9337748344370861,0.3085098508646694
0.9536423841059603,0.30720349684748416
0.9735099337748344,0.30644766471338947
0.9933774834437087,0.30624946547445014
1.0132450331125828,0.3066107968218971
1.033112582781457,0.30752828873052734
1.0529801324503312,0.3089934002716854
1.0728476821192052,0.3109926608253753
1.0927152317880795,0.31350803910877595
1.1125827814569538,0.31651741571041214
1.1324503311258278,0.31999512992934614
1.1523178807947019,0.32391256995706996
1.1721854304635762,0.3282387766009445
1.1920529801324504,0.33294103424552957
1.2119205298013245,0.3379854277834307
1.2317880794701985,0.34333734998770227
1.2516556291390728,0.3489619495131267
1.271523178807947,0.3548245148631362
1.2913907284768211,0.36089079391251955
1.3112582781456954,0.3671272517996345
1.3311258278145695,0.37350127221143364
1.3509933774834437,0.379981308396318
1.370860927152318,0.38653699081963777
1.390728476821192,0.39313919840580475
1.410596026490066,0.39976009995822537
1.4304635761589404,0.4063731717581888
1.4503311258278146,0.41295319663009983
1.4701986754966887,0.4194762490070187
1.4900662251655628,0.42591966979415535
1.5099337748344372,0.4322620341455842
1.5298013245033113,0.43848311465918527
1.5496688741721854,0.44456384196601767
1.5695364238410596,0.45048626424165406
1.5894039735099337,0.45623350679485714
1.609271523178808,0.46178973258480854
1.6291390728476822,0.46714010427425706
1.6490066225165563,0.4722707482329271
1.6688741721854303,0.47716872075544403
1.6887417218543048,0.48182197664314913
1.7086092715231789,0.48621934021305857
1.728476821192053,0.49035047873398746
1.7483443708609272,0.4942058782449731
1.7682119205298013,0.49777682168062554
1.7880794701986755,0.5010553692086924
1.8079470198675496,0.5040343406742634
1.8278145695364238,0.5067073000409801
1.847682119205298,0.5090685417202341
1.8675496688741722,0.5111130786838195
1.8874172185430464,0.5128366322626094
1.9072847682119205,0.5142356235428702
1.9271523178807946,0.5153071662824218
1.9470198675496688,0.5160490612801045
1.9668874172185429,0.516459792144389
1.9867549668874174,0.5165385224193222
2.0066225165562916,0.5162850940389649
2.0264900662251657,0.5157000270944999
2.0463576158940397,0.5147845209112848
2.066225165562914,0.5135404564462179
2.086092715231788,0.5119704000289216
2.1059602649006623,0.5100776084831664
2.1258278145695364,0.5078660356776263
2.1456953642384105,0.5053403405674668
2.165562913907285,0.502505896800028
2.185430463576159,0.4993688039687258
2.205298013245033,0.4959359006091938
2.2251655629139075,0.4922147790395423
2.2450331125827816,0.4882138021524385
2.2649006622516556,0.48394212226903965
2.2847682119205297,0.4794097021629614
2.3046357615894038,0.4746273383546475
2.324503311258278,0.4696066867611097
2.3443708609271523,0.4643602907605179
2.364238410596027,0.45890161169283267
2.384105960264901,0.453245061762635
2.403973509933775,0.4474060392345851
2.423841059602649,0.44140096570996157
2.443708609271523,0.43524732513837316
2.463576158940397,0.4289637040448595
2.4834437086092715,0.4225698322313335
2.5033112582781456,0.4160866229337087
2.52317880794702,0.4095362110735901
2.543046357615894,0.4029419878279973
2.562913907284768,0.39632862924588275
2.5827814569536423,0.3897221160638844
2.6026490066225163,0.38314974122029166
2.622516556291391,0.37664010084902855
2.642384105960265,0.3702230637834902
2.662251655629139,0.36392971386034956
2.6821192052980134,0.35779225865824205
2.7019867549668874,0.35184389783613557
2.7218543046357615,0.3461186440826428
2.741721854304636,0.3406510900104995
2.76158940397351,0.3354761153076533
2.781456953642384,0.33062853026465217
2.801324503311258,0.3261426545795927
2.821192052980132,0.32205183416204275
2.8410596026490067,0.31838790345195694
2.8609271523178808,0.31518060629727956
2.8807947019867552,0.3124569942431911
2.9006622516556293,0.31024082652194923
2.9205298013245033,0.30855200029207014
2.9403973509933774,0.30740604192661314
2.9602649006622515,0.3068136896933004
2.9801324503311255,0.306780594617212
3.0,0.30730715973966427
3.0198675496688745,0.30838852896833874
3.0397350993377485,0.3100147262888646
3.0596026490066226,0.3121709355862315
3.0794701986754967,0.3148379020327157
3.0993377483443707,0.3179924290254151
3.119205298013245,0.3216079406558641
3.1390728476821192,0.3256550788077212
3.1589403973509933,0.3301023058783777
3.1788079470198674,0.3349164881400482
3.198675496688742,0.3400634400722825
3.218543046357616,0.3455084157951427
3.23841059602649,0.35121653932996577
3.2582781456953644,0.35715317033127514
3.2781456953642385,0.36328420589867166
3.2980132450331126,0.36957632200526774
3.3178807947019866,0.37599716001871486
3.3377483443708607,0.3825154648768403
3.3576158940397347,0.3891011818859617
3.3774834437086096,0.3957255190150037
3.3973509933774837,0.4023609811260318
3.4172185430463577,0.4089813819471815
3.437086092715232,0.4155618388624077
3.456953642384106,0.4220787548396185
3.47682119205298,0.4285097910953969
3.4966887417218544,0.4348338334313346
3.5165562913907285,0.4410309545898352
3.5364238410596025,0.447082374471297
3.556291390728477,0.4529704196284529
3.576158940397351,0.45867848310138787
3.596026490066225,0.4641909853707561
3.615894039735099,0.4694933369778017
3.6357615894039736,0.4745719031799577
3.6556291390728477,0.47941397087104953
3.6754966887417218,0.48400771788918817
3.695364238410596,0.4883421847560197
3.7152317880794703,0.49240724883353765
3.7350993377483444,0.4961936008440095
3.754966887417219,0.49969272367156087
3.774834437086093,0.5028968733470772
3.794701986754967,0.5057990621095303
3.814569536423841,0.5083930434338871
3.834437086092715,0.5106732989179261
3.854304635761589,0.5126350269252293
3.8741721854304636,0.5142741328896575
3.8940397350993377,0.5155872211958242
3.9139072847682117,0.5165715885611651
3.9337748344370858,0.5172252188566661
3.9536423841059607,0.5175467793156545
3.9735099337748347,0.517535618092776
3.993377483443709,0.5171917631481212
4.013245033112583,0.5165159224445797
4.033112582781457,0.5155094854596823
4.052980132450331,0.5141745260261747
4.072847682119205,0.5125138065287508
4.0927152317880795,0.5105307834972586
4.112582781456953,0.5082296146492216
4.132450331125828,0.5056151674468341
4.152317880794702,0.5026930292450481
4.172185430463576,0.49946951911807147
4.19205298013245,0.4959517014608255
4.211920529801325,0.4921474014692803
4.231788079470199,0.48806522260839813
4.251655629139073,0.48371456617763453
4.271523178807947,0.47910565308024594
4.291390728476821,0.4742495478929562
4.311258278145695,0.46915818531400033
4.33112582781457,0.46384439903857216
4.3509933774834435,0.45832195306763557
4.370860927152318,0.4526055753949198
4.390728476821192,0.44671099393394814
4.410596026490066,0.4406549744352931
4.43046357615894,0.43445535999870427
4.450331125827815,0.42813111159697664
4.470198675496689,0.4217023487907919
4.490066225165563,0.4151903895169367
4.509933774834438,0.4086177874683818
4.529801324503311,0.40200836514527544
4.549668874172186,0.39538724013623955
4.569536423841059,0.3887808415886558
4.589403973509934,0.38221691315169004
4.6092715231788075,0.37572449794426144
4.629139072847682,0.3693339003462001
4.649006622516556,0.3630766186882337
4.66887417218543,0.35698524230589124
4.688741721854305,0.35109330603371525
4.708609271523179,0.34543509518980997
4.728476821192054,0.340045394603395
4.748344370860927,0.334959176449513
4.768211920529802,0.33021122374544026
4.788079470198675,0.32583568945646535
4.80794701986755,0.3218655952860572
4.827814569536423,0.3183322792742649
4.847682119205298,0.3152648069956355
4.867549668874172,0.31268936691974586
4.887417218543046,0.3106286756658225
4.9072847682119205,0.30910142262261997
4.927152317880794,0.308121784905771
4.947019867549669,0.30769904226378364
4.966887417218543,0.3078373170596261
4.986754966887418,0.30853545706918617
5.006622516556291,0.3097870692804989
5.026490066225166,0.3115807022873942
5.04635761589404,0.31390016458808273
5.066225165562914,0.3167249574037885
5.086092715231788,0.32003079449707894
5.105960264900662,0.32379017839951874
5.125827814569536,0.3279730024464122
5.14569536423841,0.33254715061829015
5.1655629139072845,0.3374790716748036
5.185430463576159,0.34273430960024637
5.205298013245033,0.34827797817682754
5.225165562913908,0.3540751729360496
5.245033112582782,0.360091318392713
5.264900662251656,0.36629245212787037
5.28476821192053,0.37264544991505794
5.304635761589404,0.3791181977582868
5.324503311258278,0.3856797175796072
5.344370860927152,0.392300253537022
5.364238410596027,0.39895132574580083
5.3841059602649,0.4056057576733669
5.403973509933775,0.41223768280669854
5.4238410596026485,0.418822535447822
5.443708609271523,0.42533702974509535
5.463576158940397,0.4317591303601837
5.483443708609272,0.43806801752891683
5.503311258278146,0.4442440487104064
5.52317880794702,0.4502687185366557
5.543046357615895,0.45612461837083645
5.562913907284768,0.4617953964500512
5.582781456953643,0.4672657193199186
5.602649006622516,0.47252123505419114
5.622516556291391,0.4775485385851219
5.642384105960264,0.4823351393409025
5.662251655629139,0.48686943128871435
5.682119205298013,0.4911406654091554
5.701986754966887,0.49513892457569475
5.7218543046357615,0.49885510077614176
5.741721854304636,0.5022808745894392
5.7615894039735105,0.505408696816601
5.781456953642384,0.5082317721578999
5.801324503311259,0.510744044827041
5.821192052980132,0.5129401859959718
5.841059602649007,0.5148155829700983
5.860927152317881,0.5163663300018929
5.880794701986755,0.5175892206607731
5.900662251655629,0.518481741688349
5.920529801324503,0.5190420682798813
5.940397350993377,0.5192690607452084
5.960264900662251,0.5191622625153405
5.980132450331126,0.5187218994736531
6.0,0.5179488806039474
6.0198675496688745,0.5168447999606653
6.039735099337749,0.5154119399797458
6.059602649006623,0.5136532761615948
6.079470198675497,0.5115724831704935
6.099337748344371,0.5091739424073226
6.119205298013245,0.506462751124433
6.139072847682119,0.503444733162847
6.158940397350993,0.5001264514021923
6.178807947019867,0.49651522202246123
6.198675496688741,0.4926191306832419
6.218543046357616,0.48844705072991856
6.23841059602649,0.484008663535851
6.258278145695365,0.4793144810841996
6.2781456953642385,0.47437587088045946
6.298013245033113,0.46920508326514887
6.317880794701987,0.4638152811626199
6.337748344370861,0.4582205722533363
6.357615894039735,0.4524360434890708
6.377483443708609,0.44647779777839625
6.397350993377484,0.440362992547768
6.417218543046357,0.43410987972466647
6.437086092715232,0.42773784648570745
6.456953642384105,0.42126745585640263
6.47682119205298,0.4147204859310411
6.496688741721854,0.4081199660930264
6.516556291390729,0.40149020815046566
6.5364238410596025,0.39485682975532177
6.556291390728477,0.3882467668482223
6.5761589403973515,0.38168827117502746
6.596026490066225,0.3752108881781517
6.6158940397351,0.3688454098152079
6.635761589403973,0.36262379616202484
6.655629139072848,0.35657905910600673
6.675496688741721,0.350745101149292
6.695364238410596,0.3451565024683757
6.715231788079469,0.33984825009064074
6.735099337748344,0.3348554045280977
6.754966887417219,0.3302127016132189
6.774834437086093,0.3259540907111125
6.794701986754967,0.32211221492580216
6.814569536423841,0.3187178442068968
6.8344370860927155,0.31579927802675883
6.854304635761589,0.31338173995694885
6.874172185430464,0.31148679127146445
6.894039735099337,0.31013179380755135
6.913907284768212,0.3093294529536785
6.933774834437086,0.30908746928563835
6.95364238410596,0.3094083219187392
6.973509933774834,0.3102891984727082
6.993377483443709,0.311722076531327
7.013245033112583,0.313693950846394
7.033112582781457,0.3161871906336057
7.052980132450331,0.31918000334027613
7.072847682119205,0.3226469760670106
7.0927152317880795,0.32655966373965
7.112582781456954,0.33088719399745814
7.132450331125828,0.33559686203706995
7.152317880794702,0.3406546935494761
7.172185430463576,0.3460259595751339
7.19205298013245,0.351675632838921
7.211920529801324,0.3575687803491474
7.231788079470198,0.36367089140213954
7.251655629139073,0.3699481434721146
7.271523178807947,0.3763676107861728
7.291390728476822,0.38289742179253244
7.311258278145695,0.3895068723883116
7.33112582781457,0.396166501860933
7.3509933774834435,0.40284813818476084
7.370860927152318,0.4095249187497833
7.390728476821192,0.4161712918979693
7.410596026490066,0.42276300389333726
7.430463576158941,0.4292770752131082
7.450331125827814,0.435691769358424
7.470198675496689,0.4419865567643254
7.490066225165562,0.44814207585058385
7.509933774834438,0.4541400927965472
7.52980132450331,0.4599634612422426
7.549668874172186,0.4655960828055581
7.569536423841059,0.4710228690541984
7.589403973509934,0.4762297053720074
7.6092715231788075,0.48120341700374997
7.629139072847682,0.4859317374433226
7.649006622516557,0.49040327924051236
7.66887417218543,0.4946075072353053
7.6887417218543055,0.4985347141815608
7.708609271523178,0.5021759986894503
7.728476821192054,0.5055232453952002
7.748344370860927,0.5085691072547669
7.768211920529802,0.5113069898531187
7.788079470198675,0.5137310376206918
7.80794701986755,0.5158361218527273
7.827814569536423,0.5176178304337028
7.847682119205298,0.5190724591782198
7.8675496688741715,0.5201970047098012
7.887417218543046,0.5209891588104114
7.907284768211921,0.521447304185792
7.927152317880795,0.5215705116040303
7.9470198675496695,0.5213585383777369
7.966887417218543,0.520811828173362
7.986754966887418,0.5199315121442267
8.006622516556291,0.5187194113969548
8.026490066225167,0.5171780408143644
8.046357615894038,0.5153106142706741
8.066225165562914,0.5131210512876256
8.086092715231787,0.5106139851926842
8.105960264900663,0.5077947728521097
8.125827814569536,0.5046695060627279
8.14569536423841,0.5012450246959815
8.165562913907285,0.49752893169571627
8.185430463576159,0.493529610037066
8.205298013245034,0.4892562417557243
8.225165562913906,0.48471882915527553
8.245033112582782,0.4799282182920188
8.264900662251655,0.47489612482124993
8.28476821192053,0.4696351622631047
8.304635761589404,0.4641588727075884
8.324503311258278,0.458481759922878
8.344370860927151,0.4526193247549989
8.364238410596027,0.44658810260425813
8.3841059602649,0.4404057026293183
8.403973509933774,0.4340908481550823
8.42384105960265,0.427663417538929
8.443708609271523,0.42114448447183606
8.463576158940398,0.41455635634798566
8.483443708609272,0.40792260892104826
8.503311258278146,0.40126811497040665
8.52317880794702,0.3946190641250521
8.543046357615895,0.388002970339619
8.562913907284768,0.38144866280109613
8.582781456953642,0.37498625529397805
8.602649006622515,0.3686470883127691
8.62251655629139,0.3624636375564464
8.642384105960264,0.35646938196864214
8.66225165562914,0.35069862433142635
8.682119205298013,0.3451862577375753
8.701986754966887,0.3399674722339346
8.721854304635762,0.3350773977214507
8.741721854304636,0.3305506819590725
8.76158940397351,0.32642100631454873
8.781456953642383,0.3227205466744584
8.801324503311259,0.3194793924319153
8.821192052980132,0.3167249422693713
8.841059602649008,0.3144813008980969
8.86092715231788,0.31276870521090466
8.880794701986755,0.3116030106199914
8.90066225165563,0.3109952679876771
8.920529801324504,0.3109514181166067
8.940397350993377,0.3114721243017717
8.960264900662251,0.31255275452124054
8.980132450331126,0.31418351447237136
9.0,0.3163497221382236
9.019867549668875,0.3190322052209938
9.039735099337747,0.32220779569876346
9.059602649006623,0.3258498916232876
9.079470198675496,0.32992905524238847
9.099337748344372,0.3344136182962036
9.119205298013245,0.33927026925219955
9.139072847682119,0.3444646024961202
9.158940397350994,0.3499616152696796
9.178807947019868,0.3557261437556668
9.198675496688743,0.36172323466588835
9.218543046357615,0.367918452706925
9.23841059602649,0.37427812728611365
9.258278145695364,0.3807695438185743
9.27814569536424,0.3873610861338185
9.298013245033111,0.39402233692885086
9.317880794701987,0.40072414315245974
9.33774834437086,0.40743865279511765
9.357615894039736,0.4141393289388593
9.37748344370861,0.4208009461970082
9.397350993377483,0.4273995739234598
9.417218543046358,0.4339125498462152
9.437086092715232,0.440318447113274
9.456953642384107,0.446597037146575
9.47682119205298,0.4527292501881395
9.496688741721854,0.4586971349906664
9.516556291390728,0.46448381874699074
9.536423841059603,0.4700734680616888
9.556291390728477,0.47545125153458
9.57615894039735,0.48060330434224635
9.596026490066224,0.48551669506024286
9.6158940397351,0.4901793948600727
9.635761589403973,0.49458024913309895
9.655629139072847,0.4987089515341733
9.675496688741722,0.5025560203954654
9.695364238410596,0.5061127774327743
9.715231788079471,0.5093713286487
9.735099337748345,0.5123245473276266
9.754966887417218,0.5149660590140914
9.774834437086092,0.5172902283677014
9.794701986754967,0.5192921477924266
9.814569536423841,0.5209676277458762
9.834437086092716,0.5223131886433906
9.854304635761588,0.5233260542824784
9.874172185430464,0.5240041467248766
9.894039735099337,0.5243460825856662
9.913907284768213,0.5243511706916939
9.933774834437086,0.5240194110844365
9.95364238410596,0.5233514953556658
9.973509933774835,0.5223488083174099
9.993377483443709,0.5210134310209574
10.013245033112582,0.519348145152761
10.033112582781456,0.5173564388480484
10.052980132450331,0.5150425139755832
10.072847682119205,0.5124112949593209
10.09271523178808,0.5094684392140155
10.112582781456952,0.506220349282632
10.132450331125828,0.5026741867722427
10.152317880794701,0.4988378881924438
10.172185430463577,0.4947201828044139
10.192052980132452,0.49033061258975547
10.211920529801324,0.48567955444359456
10.2317880794702,0.4807782446856781
10.251655629139073,0.4756388059636406
10.271523178807948,0.47027427659176957
10.29139072847682,0.46469864232340236
10.311258278145695,0.45892687049174224
10.331125827814569,0.45297494636720137
10.350993377483444,0.44685991146433696
10.370860927152318,0.4405999033810495
10.390728476821192,0.43421419655948396
10.410596026490065,0.427723243114275
10.43046357615894,0.42114871256979197
10.450331125827816,0.4145135289761842
10.470198675496688,0.40784190342655613
10.490066225165563,0.40115935946936515
10.509933774834437,0.39449274830213166
10.529801324503312,0.3878702499510986
10.549668874172186,0.3813213559074716
10.56953642384106,0.37487682793787025
