Frequency (Hz),Amplitude
0.0,0.22967704169257241
0.019867549668874173,0.23654034552667944
0.039735099337748346,0.2560038165962259
0.059602649006622516,0.28543507911035443
0.07947019867549669,0.32201475339320557
0.09933774834437085,0.36346984140681077
0.11920529801324503,0.40817934224469105
0.13907284768211922,0.4550341951364509
0.15894039735099338,0.5032755914943602
0.17880794701986755,0.5523736849556862
0.1986754966887417,0.6019473395548639
0.2185430463576159,0.6517130770655131
0.23841059602649006,0.7014527634823007
0.2582781456953642,0.7509929546120946
0.27814569536423844,0.800191478857599
0.2980132450331126,0.8489285589182348
0.31788079470198677,0.8971008257414372
0.33774834437086093,0.9446172090775349
0.3576158940397351,0.9913960684682873
0.3774834437086093,1.0373631592100596
0.3973509933774834,1.0824501702121503
0.4172185430463576,1.126593660015076
0.4370860927152318,1.1697342742673462
0.45695364238410596,1.2118161649897756
0.4768211920529801,1.252786556397214
0.49668874172185434,1.2925954184345165
0.5165562913907285,1.3311952203356499
0.5364238410596026,1.368540744211878
0.5562913907284769,1.4045889440592154
0.5761589403973509,1.4392988393884436
0.5960264900662252,1.4726314354145698
0.6158940397350993,1.5045496637231732
0.6357615894039735,1.5350183387825824
0.6556291390728477,1.5640041267437523
0.6754966887417219,1.591475523772052
0.695364238410596,1.6174028417588648
0.7152317880794702,1.641758199720813
0.7350993377483444,1.6645155195458978
0.7549668874172186,1.6856505250184428
0.7748344370860927,1.7051407432663896
0.7947019867549668,1.7229655079408104
0.8145695364238411,1.739105963569109
0.8344370860927152,1.7535450706284044
0.8543046357615894,1.766267610969941
0.8741721854304636,1.777260193293547
0.8940397350993378,1.7865112584279503
0.9139072847682119,1.7940110842184953
0.9337748344370861,1.7997517898632756
0.9536423841059603,1.803727339572044
0.9735099337748344,1.8059335454505796
0.9933774834437087,1.8063680695393822
1.0132450331125828,1.8050304249581506
1.033112582781457,1.801921976129411
1.0529801324503312,1.7970459380752855
1.0728476821192052,1.790407374801785
1.0927152317880795,1.7820131968062507
1.1125827814569538,1.7718721577655503
1.1324503311258278,1.7599948504867122
1.1523178807947019,1.7463937022287745
1.1721854304635762,1.7310829695348111
1.1920529801324504,1.7140787327492815
1.2119205298013245,1.6953988904373312
1.2317880794701985,1.6750631539736576
1.2516556291390728,1.6530930426295591
1.271523178807947,1.6295118795616994
1.2913907284768211,1.6043447891996208
1.3112582781456954,1.577618696644476
1.3311258278145695,1.549362329838176
1.3509933774834437,1.519606225447415
1.370860927152318,1.4883827396444431
1.390728476821192,1.455726065272555
1.410596026490066,1.4216722572819773
1.4304635761589404,1.3862592688429667
1.4503311258278146,1.3495270012317222
1.4701986754966887,1.3115173715033457
1.4900662251655628,1.2722744032015605
1.5099337748344372,1.231844347035035
1.5298013245033113,1.190275840756187
1.5496688741721854,1.147620120679949
1.5695364238410596,1.1039313017759111
1.5894039735099337,1.0592667496586263
1.609271523178808,1.013687577006269
1.6291390728476822,0.9672593103801509
1.6490066225165563,0.92005279333637
1.6688741721854303,0.8721454216971092
1.6887417218543048,0.8236228526994414
1.7086092715231789,0.7745814010692833
1.728476821192053,0.7251314479835801
1.7483443708609272,0.67540237076227
1.7682119205298013,0.6255497989685428
1.7880794701986755,0.5757664971922344
1.8079470198675496,0.5262990029831289
1.8278145695364238,0.4774735297800941
1.847682119205298,0.42973687805503974
1.8675496688741722,0.38372136241609245
1.8874172185430464,0.3403460862568279
1.9072847682119205,0.30096425174596886
1.9271523178807946,0.267535432414758
1.9470198675496688,0.24269069689620454
1.9668874172185429,0.22934927757912166
1.9867549668874174,0.22958144091366686
2.0066225165562916,0.24334823262010186
2.0264900662251657,0.268528727298791
2.0463576158940397,0.3021995420446892
2.066225165562914,0.3417495698488212
2.086092715231788,0.3852416296418674
2.1059602649006623,0.4313396464957017
2.1258278145695364,0.4791360632796007
2.1456953642384105,0.5280060394761388
2.165562913907285,0.5775075888114334
2.185430463576159,0.627317630500261
2.205298013245033,0.6771916980126838
2.2251655629139075,0.7269384191661697
2.2450331125827816,0.7764031149918527
2.2649006622516556,0.8254570651174101
2.2847682119205297,0.8739903459635574
2.3046357615894038,0.9219069622110873
2.324503311258278,0.9691214782797326
2.3443708609271523,1.0155566495084234
2.364238410596027,1.0611417317140908
2.384105960264901,1.1058112589891165
2.403973509933775,1.1495041498740741
2.423841059602649,1.1921630472416604
2.443708609271523,1.2337338267939797
2.463576158940397,1.274165228732611
2.4834437086092715,1.3134085804328601
2.5033112582781456,1.351417587046906
2.52317880794702,1.3881481732766663
2.543046357615894,1.4235583640022247
2.562913907284768,1.4576081946181398
2.5827814569536423,1.4902596442114715
2.6026490066225163,1.5214765863785236
2.622516556291391,1.551224753700035
2.642384105960265,1.5794717128049545
2.662251655629139,1.6061868476346608
2.6821192052980134,1.6313413490362012
2.7019867549668874,1.6549082092074097
2.7218543046357615,1.6768622198198804
2.741721854304636,1.69717997288138
2.76158940397351,1.7158398635831442
2.781456953642384,1.7328220945225188
2.801324503311258,1.748108680806505
2.821192052980132,1.7616834556341896
2.8410596026490067,1.7735320760300533
2.8609271523178808,1.7836420284613825
2.8807947019867552,1.7920026341225292
2.9006622516556293,1.7986050537108882
2.9205298013245033,1.8034422915542263
2.9403973509933774,1.8065091989796036
2.9602649006622515,1.8078024768403056
2.9801324503311255,1.8073206771411428
3.0,1.8050642037238904
3.0198675496688745,1.8010353119954152
3.0397350993377485,1.7952381077007116
3.0596026490066226,1.7876785447634769
3.0794701986754967,1.778364422237214
3.0993377483443707,1.7673053804325276
3.119205298013245,1.7545128963104564
3.1390728476821192,1.740000278259196
3.1589403973509933,1.7237826604037343
3.1788079470198674,1.7058769966342326
3.198675496688742,1.6863020545841767
3.218543046357616,1.665078409841887
3.23841059602649,1.6422284407444316
3.2582781456953644,1.6177763241830916
3.2781456953642385,1.5917480329490885
3.2980132450331126,1.564171335273604
3.3178807947019866,1.535075797374166
3.3377483443708607,1.5044927900212033
3.3576158940397347,1.4724555003977151
3.3774834437086096,1.438998950860841
3.3973509933774837,1.4041600266524095
3.4172185430463577,1.367977515183145
3.437086092715232,1.330492160282315
3.456953642384106,1.2917467358335
3.47682119205298,1.2517861446100191
3.4966887417218544,1.210657550028646
3.5165562913907285,1.1684105511738103
3.5364238410596025,1.1250974151279123
3.556291390728477,1.0807733858556572
3.576158940397351,1.035497096364641
3.596026490066225,0.9893311217266714
3.615894039735099,0.942342726564665
3.6357615894039736,0.8946048846032998
3.6556291390728477,0.8461976844089576
3.6754966887417218,0.7972102920199767
3.695364238410596,0.7477437303814046
3.7152317880794703,0.6979148787953658
3.7350993377483444,0.6478623300257349
3.754966887417219,0.5977551328788413
3.774834437086093,0.5478061067288791
3.794701986754967,0.4982925340851353
3.814569536423841,0.44958892405872847
3.834437086092715,0.40221957824369275
3.854304635761589,0.3569429102479443
3.8741721854304636,0.31488244942828914
3.8940397350993377,0.27770876567871355
3.9139072847682117,0.24781128904030303
3.9337748344370858,0.22820864669927024
3.9536423841059607,0.22173490615229707
3.9735099337748347,0.22953069233103573
3.993377483443709,0.25023949225664505
4.013245033112583,0.28095172074704117
4.033112582781457,0.31868824124671014
4.052980132450331,0.3611305101687346
4.072847682119205,0.4066677333959958
4.0927152317880795,0.45421760676954465
4.112582781456953,0.5030483237642058
4.132450331125828,0.5526525176207784
4.152317880794702,0.6026665460026275
4.172185430463576,0.6528202190846633
4.19205298013245,0.7029054391451907
4.211920529801325,0.7527563624234871
4.231788079470199,0.8022366105174286
4.251655629139073,0.8512308571392551
4.271523178807947,0.8996391813487029
4.291390728476821,0.9473732051942623
4.311258278145695,0.9943534054301814
4.33112582781457,1.0405072126649897
4.3509933774834435,1.0857676482621443
4.370860927152318,1.130072334732159
4.390728476821192,1.1733627696181381
4.410596026490066,1.215583787968158
4.43046357615894,1.2566831615745906
4.450331125827815,1.2966112985979374
4.470198675496689,1.3353210176752495
4.490066225165563,1.3727673778345408
4.509933774834438,1.4089075505801787
4.529801324503311,1.4437007240810116
4.549668874172186,1.4771080319472156
4.569536423841059,1.509092500930725
4.589403973509934,1.539619013237388
4.6092715231788075,1.5686542801395111
4.629139072847682,1.5961668243241418
4.649006622516556,1.6221269689748539
4.66887417218543,1.6465068320122833
4.688741721854305,1.6692803242459389
4.708609271523179,1.69042315044312
4.728476821192054,1.7099128125172354
4.748344370860927,1.7277286141928487
4.768211920529802,1.7438516666267252
4.788079470198675,1.7582648945617088
4.80794701986755,1.7709530426687268
4.827814569536423,1.7819026817955792
4.847682119205298,1.79110221489343
4.867549668874172,1.7985418824350192
4.887417218543046,1.8042137671747365
4.9072847682119205,1.8081117981315957
4.927152317880794,1.8102317537027257
4.947019867549669,1.8105712638386768
4.966887417218543,1.8091298112330596
4.986754966887418,1.8059087314989326
5.006622516556291,1.8009112123232784
5.026490066225166,1.7941422916096432
5.04635761589404,1.7856088546381155
5.066225165562914,1.7753196302918866
5.086092715231788,1.7632851864212176
5.105960264900662,1.7495179244402201
5.125827814569536,1.734032073278737
5.14569536423841,1.7168436828440532
5.1655629139072845,1.6979706171845925
5.185430463576159,1.6774325475927503
5.205298013245033,1.6552509459391878
5.225165562913908,1.6314490785975189
5.245033112582782,1.6060520014018864
5.264900662251656,1.5790865561836291
5.28476821192053,1.5505813695643877
5.304635761589404,1.5205668548492781
5.324503311258278,1.4890752180773865
5.344370860927152,1.4561404695621045
5.364238410596027,1.4217984426126873
5.3841059602649,1.3860868215997681
5.403973509933775,1.3490451821518916
5.4238410596026485,1.3107150471045703
5.443708609271523,1.2711399629508906
5.463576158940397,1.2303656030786867
5.483443708609272,1.1884399061975257
5.503311258278146,1.145413261311435
5.52317880794702,1.101338754758067
5.543046357615895,1.0562725007891578
5.562913907284768,1.010274085791314
5.582781456953643,0.9634071689268329
5.602649006622516,0.9157403009088494
5.622516556291391,0.8673480513734001
5.642384105960264,0.8183125797384725
5.662251655629139,0.7687258543940944
5.682119205298013,0.7186928374017992
5.701986754966887,0.668336135967367
5.7218543046357615,0.617802929826301
5.741721854304636,0.5672755086208907
5.7615894039735105,0.516987662772939
5.781456953642384,0.46725075934208093
5.801324503311259,0.4184960777957954
5.821192052980132,0.3713444608962976
5.841059602649007,0.3267203433152102
5.860927152317881,0.2860293348333964
5.880794701986755,0.251390320254863
5.900662251655629,0.22577534772640925
5.920529801324503,0.21259092400205468
5.940397350993377,0.21420186112520515
5.960264900662251,0.23029430638222176
5.980132450331126,0.2581211571055498
6.0,0.2942829668967035
6.0198675496688745,0.3359830406881422
6.039735099337749,0.3812729980167725
6.059602649006623,0.42886749021467
6.079470198675497,0.4779188060009236
6.099337748344371,0.5278538879736099
6.119205298013245,0.5782714199082393
6.139072847682119,0.6288791832613154
6.158940397350993,0.6794559111615124
6.178807947019867,0.7298277000999062
6.198675496688741,0.7798531129645869
6.218543046357616,0.8294135560851004
6.23841059602649,0.8784069239039379
6.258278145695365,0.9267433134504466
6.2781456953642385,0.9743420788806277
6.298013245033113,1.02112977195869
6.317880794701987,1.0670386798586635
6.337748344370861,1.1120057730970292
6.357615894039735,1.155971939841933
6.377483443708609,1.1988814232938358
6.397350993377484,1.240681405108084
6.417218543046357,1.2813216951983886
6.437086092715232,1.320754499930747
6.456953642384105,1.3589342486813478
6.47682119205298,1.3958174642450305
6.496688741721854,1.4313626664487338
6.516556291390729,1.465530301074226
6.5364238410596025,1.4982826881702467
6.556291390728477,1.5295839852722306
6.5761589403973515,1.5594001621044635
6.596026490066225,1.5876989841230018
6.6158940397351,1.6144500028461977
6.635761589403973,1.6396245513632295
6.655629139072848,1.6631957437506089
6.675496688741721,1.6851384773867133
6.695364238410596,1.7054294373568546
6.715231788079469,1.7240471022990964
6.735099337748344,1.7409717511656018
6.754966887417219,1.756185470472957
6.774834437086093,1.7696721616940172
6.794701986754967,1.7814175485078343
6.814569536423841,1.7914091836761723
6.8344370860927155,1.799636455358019
6.854304635761589,1.8060905927093296
6.874172185430464,1.8107646706455436
6.894039735099337,1.813653613670152
6.913907284768212,1.8147541986951712
6.933774834437086,1.8140650568004224
6.95364238410596,1.8115866738958568
6.973509933774834,1.8073213902697411
6.993377483443709,1.801273399021896
7.013245033112583,1.793448743398394
7.033112582781457,1.7838553130615618
7.052980132450331,1.7725028393482047
7.072847682119205,1.7594028895888212
7.0927152317880795,1.7445688605845713
7.112582781456954,1.7280159713643013
7.132450331125828,1.7097612553755932
7.152317880794702,1.689823552300303
7.172185430463576,1.6682234997295369
7.19205298013245,1.6449835249873068
7.211920529801324,1.620127837458842
7.231788079470198,1.5936824218626264
7.251655629139073,1.5656750330099731
7.271523178807947,1.5361351927286475
7.291390728476822,1.5050941897955445
7.311258278145695,1.4725850839425754
7.33112582781457,1.4386427152826529
7.3509933774834435,1.4033037208744064
7.370860927152318,1.3666065606352653
7.390728476821192,1.3285915554674674
7.410596026490066,1.289300941344822
7.430463576158941,1.2487789443082074
7.450331125827814,1.2070718829709506
7.470198675496689,1.1642283074325728
7.490066225165562,1.1202991867373995
7.509933774834438,1.0753381616302664
7.52980132450331,1.0294018860406093
7.549668874172186,0.9825504905279752
7.569536423841059,0.934848215542692
7.589403973509934,0.8863642845339994
7.6092715231788075,0.8371741212079996
7.629139072847682,0.7873610692368463
7.649006622516557,0.7370188596113773
7.66887417218543,0.6862552137937004
7.6887417218543055,0.6351972116008786
7.708609271523178,0.5839994680517345
7.728476821192054,0.5328568966245508
7.748344370860927,0.48202515745246005
7.768211920529802,0.43185429854133706
7.788079470198675,0.38284545878835224
7.80794701986755,0.335747932618126
7.827814569536423,0.291723897203022
7.847682119205298,0.252608189099905
7.8675496688741715,0.2212179091513805
7.887417218543046,0.20135314684546946
7.907284768211921,0.19662922500679642
7.927152317880795,0.20810141153268594
7.9470198675496695,0.23335681459767382
7.966887417218543,0.2684539785385108
7.986754966887418,0.3099574722177019
8.006622516556291,0.3554984543860947
8.026490066225167,0.40356455586793777
8.046357615894038,0.4531939673461055
8.066225165562914,0.5037576809889113
8.086092715231787,0.5548273072769485
8.105960264900663,0.6060978249409353
8.125827814569536,0.6573422349361225
8.14569536423841,0.7083843954756963
8.165562913907285,0.7590823250856598
8.185430463576159,0.8093176637779536
8.205298013245034,0.8589888497681951
8.225165562913906,0.908006596738988
8.245033112582782,0.9562908315572237
8.264900662251655,1.0037685811562786
8.28476821192053,1.0503724898591824
8.304635761589404,1.096039763904689
8.324503311258278,1.1407114108032834
8.344370860927151,1.184331685589314
8.364238410596027,1.2268476844780158
8.3841059602649,1.2682090449902121
8.403973509933774,1.3083677239279294
8.42384105960265,1.3472778329020985
8.443708609271523,1.384895516816182
8.463576158940398,1.4211788646756547
8.483443708609272,1.4560878448895378
8.503311258278146,1.489584259226178
8.52317880794702,1.521631711026466
8.543046357615895,1.552195584331453
8.562913907284768,1.5812430313575265
8.582781456953642,1.608742966331824
8.602649006622515,1.6346660641363377
8.62251655629139,1.6589847625396725
8.642384105960264,1.6816732670487275
8.66225165562914,1.7027075576083164
8.682119205298013,1.722065396528581
8.701986754966887,1.7397263371400096
8.721854304635762,1.7556717327695124
8.741721854304636,1.7698847457074944
8.76158940397351,1.7823503558955367
8.781456953642383,1.7930553691138729
8.801324503311259,1.8019884244884796
8.821192052980132,1.809140001170516
8.841059602649008,1.8145024240696788
8.86092715231788,1.818069868546189
8.880794701986755,1.8198383639877243
8.90066225165563,1.8198057962151708
8.920529801324504,1.8179719086786414
8.940397350993377,1.8143383024195077
8.960264900662251,1.8089084347899946
8.980132450331126,1.801687616935739
9.0,1.7926830100616444
9.019867549668875,1.7819036205170664
9.039735099337747,1.769360293752488
9.059602649006623,1.7550657072189366
9.079470198675496,1.739034362301976
9.099337748344372,1.721282575406343
9.119205298013245,1.7018284683360918
9.139072847682119,1.6806919581491921
9.158940397350994,1.6578947467071334
9.178807947019868,1.6334603101907188
9.198675496688743,1.607413888916952
9.218543046357615,1.5797824778703922
9.23841059602649,1.5505948184627263
9.258278145695364,1.5198813921615675
9.27814569536424,1.4876744167933453
9.298013245033111,1.4540078465375574
9.317880794701987,1.4189173769077814
9.33774834437086,1.382440456381943
9.357615894039736,1.3446163068329042
9.37748344370861,1.3054859555693499
9.397350993377483,1.2650922826907582
9.417218543046358,1.2234800886900115
9.437086092715232,1.1806961889465049
9.456953642384107,1.1367895441572362
9.47682119205298,1.0918114391835034
9.496688741721854,1.0458157277499778
9.516556291390728,0.9988591677143372
9.536423841059603,0.951001882491245
9.556291390728477,0.9023080007179636
9.57615894039735,0.8528465517962269
9.596026490066224,0.8026927353208071
9.6158940397351,0.7519297476577408
9.635761589403973,0.7006514569835764
9.655629139072847,0.648966401748706
9.675496688741722,0.5970039085547518
9.695364238410596,0.5449237034177108
9.715231788079471,0.49293146282822803
9.735099337748345,0.4413047985608058
9.754966887417218,0.39043816592020353
9.774834437086092,0.3409230035962849
9.794701986754967,0.2936939343800095
9.814569536423841,0.2502928554720512
9.834437086092716,0.21329759769760578
9.854304635761588,0.18674731488166804
9.874172185430464,0.17557577208661296
9.894039735099337,0.18267646274733826
9.913907284768213,0.20614955203889876
9.933774834437086,0.24119058862773296
9.95364238410596,0.2834350999316527
9.973509933774835,0.3299974181018207
9.993377483443709,0.3791421422036334
10.013245033112582,0.4298243839564028
10.033112582781456,0.48139016481850677
10.052980132450331,0.533408571078589
10.072847682119205,0.5855799156010759
10.09271523178808,0.6376846017071325
10.112582781456952,0.689553760613617
10.132450331125828,0.7410518129728483
10.152317880794701,0.792065768085984
10.172185430463577,0.8424984567139335
10.192052980132452,0.8922641339263901
10.211920529801324,0.9412855524779828
10.2317880794702,0.9894919734996143
10.251655629139073,1.0368177894577917
10.271523178807948,1.0832015560407016
10.29139072847682,1.1285853027052601
10.311258278145695,1.1729140365918806
10.331125827814569,1.216135382829971
10.350993377483444,1.258199322463958
10.370860927152318,1.2990580011679673
10.390728476821192,1.338665589884365
10.410596026490065,1.3769781839296609
10.43046357615894,1.4139537308378332
10.450331125827816,1.4495519798164669
10.470198675496688,1.4837344475374292
10.490066225165563,1.5164643963075508
10.509933774834437,1.5477068216261318
10.529801324503312,1.57742844684115
10.549668874172186,1.6055977231388354
10.56953642384106,1.6321848334927929
10.589403973509933,1.6571616994945253
10.609271523178808,1.6805019902128038
10.629139072847682,1.7021811324029448
10.649006622516556,1.7221763215213206
10.66887417218543,1.7404665331059106
