Time (s),Filtered Signal
0.0,-0.1008218604866243
0.033370165745856356,-0.19551205147379008
0.06674033149171271,-0.2953293930738503
0.10011049723756907,-0.39625992733845056
0.13348066298342542,-0.4795651149027144
0.16685082872928178,-0.5177741837731943
0.20022099447513814,-0.4880615084454258
0.2335911602209945,-0.3860256793651714
0.26696132596685085,-0.23209998332442727
0.30033149171270723,-0.06623857524698575
0.33370165745856356,0.06751317411656806
0.3670718232044199,0.13951963598715417
0.4004419889502763,0.14710744252966051
0.43381215469613266,0.1148367242187388
0.467182320441989,0.08222444591322436
0.5005524861878453,0.08492575675731022
0.5339226519337017,0.13852058578446935
0.5672928176795581,0.23245067171240197
0.6006629834254145,0.3363139557365459
0.6340331491712707,0.41462149533815934
0.6674033149171271,0.44243899371232887
0.7007734806629835,0.4147135960699391
0.7341436464088398,0.34590137905737245
0.7675138121546962,0.26145735541589293
0.8008839779005525,0.1862519430492713
0.8342541436464089,0.1355375943512599
0.8676243093922653,0.11188355492468173
0.9009944751381216,0.10804616140587905
0.934364640883978,0.11296303665563284
0.9677348066298344,0.1172438183484047
1.0011049723756906,0.11575283260347603
1.0344751381215471,0.10709722991840807
1.0678453038674034,0.09159261269421774
1.1012154696132597,0.0696105287121852
1.1345856353591162,0.04118975254193893
1.1679558011049724,0.006387722615148406
1.201325966850829,-0.03479083153978031
1.2346961325966852,-0.08342480058186053
1.2680662983425415,-0.14283878568192596
1.301436464088398,-0.21815970007055968
1.3348066298342542,-0.31305961795709597
1.3681767955801105,-0.42440406220026894
1.401546961325967,-0.5376823110609573
1.4349171270718233,-0.6268894704196597
1.4682872928176796,-0.6610116517500125
1.501657458563536,-0.6158717988593968
1.5350276243093923,-0.48656593869585213
1.5683977900552488,-0.29420281409816273
1.601767955801105,-0.0824315470166406
1.6351381215469614,0.09620361063225705
1.6685082872928179,0.19892692608275542
1.7018784530386741,0.20836785598634527
1.7352486187845306,0.13818561431731072
1.768618784530387,0.026291302366238563
1.8019889502762432,-0.08097079519499953
1.8353591160220997,-0.14638990653692532
1.868729281767956,-0.15369456207804832
1.9020994475138122,-0.10942131055113186
1.9354696132596687,-0.035582205728066425
1.968839779005525,0.04218929382941506
2.0022099447513813,0.10510628629533841
2.0355801104972375,0.14608414951398513
2.0689502762430942,0.1681329989589126
2.1023204419889505,0.17865898983089884
2.135690607734807,0.1835827224192538
2.169060773480663,0.18449184248653117
2.2024309392265193,0.1797581931569126
2.235801104972376,0.16807686926148407
2.2691712707182323,0.1516225697285103
2.3025414364640886,0.13657602026583365
2.335911602209945,0.13065475717391728
2.369281767955801,0.13923989116059737
2.402651933701658,0.1625217793351111
2.436022099447514,0.1953721686285428
2.4693922651933704,0.22995099973425723
2.5027624309392267,0.2594872350940671
2.536132596685083,0.2811577680301792
2.5695027624309392,0.29670468905109154
2.602872928176796,0.310785971005681
2.636243093922652,0.3281570981008799
2.6696132596685085,0.35106265552040705
2.7029834254143648,0.3777557702530311
2.736353591160221,0.40239446611123597
2.7697237569060777,0.41616905716929
2.803093922651934,0.4094506395959307
2.8364640883977903,0.37471262670293304
2.8698342541436466,0.30966969844736264
2.903204419889503,0.2195378948667794
2.936574585635359,0.11695497848853073
2.969944751381216,0.018456127291978652
3.003314917127072,-0.062238812587797225
3.0366850828729284,-0.12184863992757365
3.0700552486187846,-0.17215533678479328
3.103425414364641,-0.2378027199984551
3.1367955801104976,-0.34599051076834403
3.170165745856354,-0.5112050433259231
3.20353591160221,-0.7223493724073162
3.2369060773480665,-0.9409209068342719
3.2702762430939227,-1.1153328897107122
3.3036464088397794,-1.2085015480679446
3.3370165745856357,-1.2266968065099115
3.370386740331492,-1.232494391358687
3.4037569060773483,-1.3279431074561332
3.4371270718232045,-1.606669958993113
3.4704972375690613,-2.0911719791383954
3.5038674033149175,-2.685223346369646
3.537237569060774,-3.17203067126399
3.57060773480663,-3.272471205168447
3.6039779005524863,-2.7494435627291165
3.6373480662983426,-1.5174150209153163
3.6707182320441993,0.2937830985706472
3.7040883977900556,2.356420862754784
3.737458563535912,4.243317146702397
3.770828729281768,5.568563135473253
3.8041988950276244,6.111391979159217
3.837569060773481,5.872701162860703
3.8709392265193374,5.046172316856332
3.9043093922651937,3.9243610030992815
3.93767955801105,2.7853042182751957
3.9710497237569062,1.8069739269308378
4.0044198895027625,1.0379736789625036
4.037790055248619,0.42501702796878493
4.071160220994475,-0.12553053025619698
4.104530386740332,-0.6845018677025936
4.1379005524861885,-1.2622670995806626
4.171270718232044,-1.8080442514782102
4.204640883977901,-2.239921191398233
4.238011049723757,-2.4871185076353544
4.271381215469614,-2.5235707452475826
4.30475138121547,-2.378762118074514
4.338121546961326,-2.1236600513447192
4.371491712707183,-1.8407926148089189
4.404861878453039,-1.5933451360859736
4.438232044198895,-1.4067598799055234
4.471602209944752,-1.2691015509920658
4.504972375690608,-1.147184543870642
4.538342541436465,-1.0085818066163572
4.5717127071823205,-0.8382089643002824
4.605082872928177,-0.6424267039764864
4.638453038674034,-0.44086980864804876
4.67182320441989,-0.25247134367533947
4.7051933701657465,-0.08428104515940867
4.738563535911602,0.07093818684860304
4.771933701657459,0.2277813580082941
4.805303867403316,0.3965131143538912
4.8386740331491715,0.5734767859670262
4.872044198895028,0.7390721044783993
4.905414364640884,0.8647196707103311
4.938784530386741,0.9256234251001247
4.972154696132597,0.9131714285388107
5.005524861878453,0.8408250339235217
5.03889502762431,0.7403102618129856
5.072265193370166,0.649457932659995
5.105635359116023,0.5969984629230901
5.1390055248618784,0.5911126296878025
5.172375690607735,0.6168692448277393
5.205745856353592,0.643661017959126
5.239116022099448,0.6392629053838659
5.272486187845304,0.5842064550525521
5.30585635359116,0.48006855830993755
5.339226519337017,0.3480548918277354
5.372596685082874,0.21871675165889223
5.4059668508287295,0.11778430265692288
5.439337016574586,0.05495810978075517
5.472707182320442,0.02105345606514773
5.506077348066299,-0.005301246189878652
5.5394475138121555,-0.04510941728183835
5.572817679558011,-0.10732384036449741
5.606187845303868,-0.1842207033097896
5.639558011049724,-0.2561019420833197
5.672928176795581,-0.30245180163957536
5.706298342541437,-0.31318368978942696
5.739668508287293,-0.2937494057320019
5.77303867403315,-0.26153250898585606
5.806408839779006,-0.23597418532302453
5.839779005524862,-0.2283628517463614
5.873149171270718,-0.23716075539233494
5.906519337016575,-0.25125017165302577
5.939889502762432,-0.2587077377971906
5.9732596685082875,-0.2555389319202792
6.006629834254144,-0.2490688520189404
6.04,-0.2540807946047813
6.073370165745857,-0.2841209904051555
6.1067403314917135,-0.3430132557950979
6.140110497237569,-0.4211473783893404
6.173480662983426,-0.498115665337545
6.206850828729282,-0.5498136788991749
6.240220994475139,-0.556262072428291
6.273591160220995,-0.5069368538320262
6.306961325966851,-0.40247336807303374
6.340331491712708,-0.2535500646794963
6.373701657458564,-0.07835393844676378
6.40707182320442,0.10062312817447708
6.440441988950277,0.26050631291296017
6.473812154696133,0.3826680630839311
6.50718232044199,0.45714451097818953
6.5405524861878455,0.4850955683853793
6.573922651933702,0.47781167347163456
6.607292817679559,0.452200190560986
6.640662983425415,0.42445222104540165
6.674033149171271,0.40455826927695837
6.707403314917127,0.3939112724186908
6.740773480662984,0.3866986880223929
6.774143646408841,0.37403307574024863
6.8075138121546965,0.34869930738548033
6.840883977900553,0.30843439279699125
6.874254143646409,0.25662795431528596
6.907624309392266,0.20063487999120916
6.9409944751381225,0.1488436156361528
6.974364640883978,0.10783856870787883
7.007734806629835,0.08050654156247321
7.041104972375691,0.06523622015762774
7.074475138121548,0.055974824272180555
7.107845303867403,0.043036647897961085
7.14121546961326,0.014927394424546948
7.174585635359117,-0.03848064733098564
7.207955801104973,-0.121671344526447
7.241325966850829,-0.22942062918511053
7.274696132596685,-0.34511376505101277
7.308066298342542,-0.4434312450798252
7.341436464088399,-0.4978073373934333
7.3748066298342545,-0.4905637026180879
7.408176795580111,-0.4214745297544156
7.441546961325967,-0.31019271709023405
7.474917127071824,-0.19019283603921724
7.5082872928176805,-0.09595116227442463
7.541657458563536,-0.04890695552213713
7.575027624309393,-0.048987122976252545
7.608397790055249,-0.07605639119224425
7.641767955801106,-0.10066737353756793
7.675138121546962,-0.09866672572210662
7.708508287292818,-0.06229515297296858
7.741878453038675,-0.00244661413653519
7.775248618784531,0.058497291258829784
7.808618784530387,0.09903545430985816
7.841988950276244,0.10954008093783703
7.8753591160221,0.09640357920766943
7.908729281767957,0.07761704377703137
7.9420994475138125,0.07243403880215092
7.975469613259669,0.09064741785199289
8.008839779005525,0.12706744790395724
8.042209944751383,0.1640567353594249
8.075580110497238,0.18079927831790468
8.108950276243094,0.16446371569348617
8.14232044198895,0.11741122289387491
8.175690607734808,0.05667156220281371
8.209060773480664,0.005981372408931531
8.24243093922652,-0.015447358971171889
8.275801104972377,-0.001670634488797366
8.309171270718233,0.03799134943279748
8.342541436464089,0.08429328518927628
8.375911602209946,0.11756812058865922
8.409281767955802,0.12639891310328522
8.442651933701658,0.11138581300123274
8.476022099447514,0.082838718229461
8.509392265193371,0.054355811814933666
8.542762430939227,0.035951036975827196
8.576132596685083,0.03000785494194856
8.60950276243094,0.03140257349158752
8.642872928176796,0.030922582737113933
8.676243093922652,0.019785385211592923
8.709613259668508,-0.006892096511173938
8.742983425414366,-0.04878454877880669
8.776353591160222,-0.10108722308049774
8.809723756906077,-0.15641054872612697
8.843093922651935,-0.20689728172104954
8.87646408839779,-0.24596208108362663
8.909834254143647,-0.2693901615930913
8.943204419889504,-0.27564362295022826
8.97657458563536,-0.26524280933521777
9.009944751381216,-0.23931613256560014
9.043314917127072,-0.197942673511151
9.07668508287293,-0.1394153452902716
9.110055248618785,-0.06145120662014241
9.143425414364641,0.03562923297615637
9.176795580110499,0.14522719117920152
9.210165745856354,0.2527425424770807
9.24353591160221,0.3377861593881659
9.276906077348068,0.380363358279466
9.310276243093924,0.3686557813481418
9.34364640883978,0.304661526940547
9.377016574585635,0.2046131613163537
9.410386740331493,0.09356175178106312
9.443756906077349,-0.003544952005141916
9.477127071823205,-0.0702071942056311
9.510497237569062,-0.1024706337851508
9.543867403314918,-0.10741746103114504
9.577237569060774,-0.09755282630240003
9.610607734806631,-0.08438784507400747
9.643977900552487,-0.07435617276314291
9.677348066298343,-0.06839003675107773
9.710718232044199,-0.06427700581855844
9.744088397790057,-0.05964366703779602
9.777458563535912,-0.0536402572007718
9.810828729281768,-0.046722259895722054
9.844198895027626,-0.03935062565956126
9.877569060773482,-0.031056928686053583
9.910939226519337,-0.02083730561491883
9.944309392265193,-0.008665014004556536
9.97767955801105,0.0031076859404555283
10.011049723756907,0.009819716636445814
10.044419889502763,0.006518501354360645
10.07779005524862,-0.008934545169510876
10.111160220994476,-0.03342122383265948
10.144530386740332,-0.05838668742202859
10.17790055248619,-0.07240978061128814
10.211270718232045,-0.06560255250850908
10.244640883977901,-0.03399750361945212
10.278011049723757,0.0179345456323304
10.311381215469615,0.07772389080658622
10.34475138121547,0.1282899042175656
10.378121546961326,0.15329030192049867
10.411491712707184,0.1428098689773754
10.44486187845304,0.0975288239546673
10.478232044198895,0.029722660313159097
10.511602209944753,-0.0397790623996169
10.544972375690609,-0.0881980200587345
10.578342541436465,-0.0989226112224756
10.61171270718232,-0.06801120574071752
10.645082872928178,-0.006164685974980917
10.678453038674034,0.06505317523620562
10.71182320441989,0.12143010663657673
10.745193370165747,0.1453243238600365
10.778563535911603,0.13192348216467653
10.811933701657459,0.08995212394207924
10.845303867403315,0.03682485554802005
10.878674033149172,-0.009264512200575956
10.912044198895028,-0.03664838266308187
10.945414364640884,-0.0438473387497798
10.978784530386742,-0.03852913616111535
11.012154696132598,-0.03289836767978819
11.045524861878453,-0.037951410441458895
11.078895027624311,-0.05900717891985498
11.112265193370167,-0.09394176049564053
11.145635359116023,-0.1343353553005684
11.179005524861878,-0.1687979647886321
11.212375690607736,-0.18719479074583908
11.245745856353592,-0.18428390925253882
11.279116022099448,-0.16143159980371613
11.312486187845305,-0.12568608338434495
11.345856353591161,-0.08651725195878149
11.379226519337017,-0.05160089024974773
11.412596685082875,-0.023578591953879676
11.44596685082873,0.0006392175885278988
11.479337016574586,0.02765232976426522
11.512707182320442,0.06349594385958186
11.5460773480663,0.10971828512888245
11.579447513812156,0.16158650413276807
11.612817679558011,0.20941256752078766
11.646187845303869,0.24250711756920398
11.679558011049725,0.25394547257104194
11.71292817679558,0.24377652852327752
11.746298342541436,0.2188626815122434
11.779668508287294,0.18910010006039057
11.81303867403315,0.16170860116779948
11.846408839779006,0.13661757625194262
11.879779005524863,0.10582418418522144
11.91314917127072,0.05775007310233687
11.946519337016575,-0.015145968138470491
11.979889502762433,-0.10942191600142158
12.013259668508288,-0.2084833458419619
12.046629834254144,-0.2871314136255507
12.08,-0.32128817096638534
12.113370165745858,-0.29849254959213256
12.146740331491714,-0.2241384123729901
12.18011049723757,-0.12039178605339616
12.213480662983427,-0.01818439632506324
12.246850828729283,0.054167049382706674
12.280220994475139,0.08080871561308378
12.313591160220996,0.06268776241870382
12.346961325966852,0.015039663462607563
12.380331491712708,-0.04025768038385336
12.413701657458564,-0.0836640837624554
12.447071823204421,-0.10430456916336509
12.480441988950277,-0.1013629287278095
12.513812154696133,-0.08091443625588896
12.54718232044199,-0.05075841235538268
12.580552486187846,-0.016408226368512104
12.613922651933702,0.019813779482636327
12.64729281767956,0.05683622707783003
12.680662983425416,0.09213855280386772
12.714033149171271,0.12068701056763037
12.747403314917127,0.136543533821162
12.780773480662985,0.13611643338298188
12.81414364640884,0.12070131631835199
12.847513812154697,0.0963213724299585
12.880883977900554,0.07066825119181928
12.91425414364641,0.048927045809287216
12.947624309392266,0.031101670041706043
12.980994475138122,0.012609930787437499
13.01436464088398,-0.012045798558540178
13.047734806629835,-0.04460128103437142
13.081104972375691,-0.08012908699211976
13.114475138121549,-0.10787362393397251
13.147845303867404,-0.11585475363810428
13.18121546961326,-0.09719867516994468
13.214585635359118,-0.05497800917152568
13.247955801104974,-0.0027267321590209704
13.28132596685083,0.04030698060260322
13.314696132596685,0.05750146312371857
13.348066298342543,0.043059756981690296
13.381436464088399,0.005909092841940017
13.414806629834255,-0.03321720410906583
13.448176795580112,-0.05090218407956764
13.481546961325968,-0.032513494556666314
13.514917127071824,0.01955488002805013
13.548287292817681,0.0854935533431717
13.581657458563537,0.13664602670698606
13.615027624309393,0.14954475745430154
13.648397790055249,0.11861267271281797
13.681767955801106,0.06069073366732861
13.715138121546962,0.008200711582937295
13.748508287292818,-0.006530989245310936
13.781878453038676,0.0316009510057759
13.815248618784532,0.11062639215200128
13.848618784530387,0.19449516719128432
13.881988950276245,0.23827664912037366
13.9153591160221,0.20870258150809765
13.948729281767957,0.10022253795245734
13.982099447513813,-0.061304501479517874
14.01546961325967,-0.22914402346359955
14.048839779005526,-0.35530406267572023
14.082209944751382,-0.40978513278011347
14.11558011049724,-0.3906202069198761
14.148950276243095,-0.3208953567595312
14.182320441988951,-0.23550389437321023
14.215690607734807,-0.16495169046326089
14.249060773480664,-0.123964365624671
14.28243093922652,-0.10923732724434235
14.315801104972376,-0.10566236523650599
14.349171270718234,-0.0964891011266605
14.38254143646409,-0.07186034669919676
14.415911602209945,-0.03200739904856929
14.449281767955803,0.015304248803982432
14.482651933701659,0.060593177068230454
14.516022099447515,0.09809771073578978
14.54939226519337,0.12801638407729862
14.582762430939228,0.15485380120693124
14.616132596685084,0.18335656012579996
14.64950276243094,0.21466900762736366
14.682872928176797,0.2449370170479538
14.716243093922653,0.26698305787523346
14.749613259668509,0.2738774094996459
14.782983425414367,0.2623024393769329
14.816353591160222,0.23399131163976775
14.849723756906078,0.1948009210383438
14.883093922651934,0.1522475983876419
14.916464088397792,0.1128682794097386
14.949834254143648,0.08046014759563291
14.983204419889503,0.05553875523825362
15.016574585635361,0.035791502793721536
15.049944751381217,0.017135391352098475
15.083314917127073,-0.004926949026897557
15.116685082872928,-0.03388893354486451
15.150055248618786,-0.07103621950146975
15.183425414364642,-0.11476563147629162
15.216795580110498,-0.16062273615454495
15.250165745856355,-0.20203603132614048
15.283535911602211,-0.23157132746213488
15.316906077348067,-0.24253232517155338
15.350276243093925,-0.23078424206660925
15.38364640883978,-0.1965767093892872
15.417016574585636,-0.14583884677887127
15.450386740331492,-0.09013448367555695
15.48375690607735,-0.04456053398148841
15.517127071823205,-0.02355071985334673
15.550497237569061,-0.035623378976224196
15.583867403314919,-0.0790341543885845
15.617237569060775,-0.14044835241565531
15.65060773480663,-0.19785337596658775
15.683977900552488,-0.2272626430876787
15.717348066298344,-0.21104248935061984
15.7507182320442,-0.1447366483557715
15.784088397790056,-0.03957170625059003
15.817458563535913,0.0806471967988617
15.85082872928177,0.18738073976344216
15.884198895027625,0.25714049040935116
15.917569060773483,0.27950312052462783
15.950939226519338,0.26015460269617185
15.984309392265194,0.21759711273618293
16.01767955801105,0.1747060293251592
16.051049723756908,0.1486329864924683
16.084419889502765,0.1435371949452915
16.11779005524862,0.14959065898107232
16.151160220994477,0.1488551447470416
16.18453038674033,0.12524099222366
16.21790055248619,0.07360244764273648
16.251270718232046,0.003351011677537679
16.2846408839779,-0.06529472258590874
16.318011049723758,-0.11056360826979293
16.351381215469615,-0.11925220473084554
16.38475138121547,-0.09270112570014845
16.418121546961327,-0.04581360138754434
16.451491712707185,0.0001367033112213466
16.48486187845304,0.02713151587310487
16.518232044198896,0.02773625098842969
16.551602209944754,0.0068864529511382016
16.584972375690608,-0.022129539807703557
16.618342541436466,-0.044923007473881255
16.651712707182323,-0.052658378534640074
16.685082872928177,-0.04504389965208909
16.718453038674035,-0.028792084647235056
16.751823204419892,-0.013048528537488802
16.785193370165747,-0.004610064081325713
16.818563535911604,-0.005449271055808535
16.851933701657458,-0.013420100364398939
16.885303867403316,-0.02503129560168256
16.918674033149173,-0.03802312530640607
16.952044198895027,-0.051871258591203805
16.985414364640885,-0.06601611882922141
17.018784530386743,-0.07745110467558901
17.052154696132597,-0.08000269192369941
17.085524861878454,-0.0666303852284894
17.118895027624312,-0.03396075386584361
17.152265193370166,0.01356333673559639
17.185635359116024,0.06282983225629395
