Frequency (Hz),Amplitude
0.0,0.5536780476016991
0.019867549668874173,0.5601775817612047
0.039735099337748346,0.579214013609335
0.059602649006622516,0.6095435277996551
0.07947019867549669,0.6494762645912086
0.09933774834437085,0.6972216538463285
0.11920529801324503,0.7511221319648594
0.13907284768211922,0.8097588796895016
0.15894039735099338,0.8719692864209774
0.17880794701986755,0.9368206884765943
0.1986754966887417,1.003569862926718
0.2185430463576159,1.0716229612618968
0.23841059602649006,1.140501413499729
0.2582781456953642,1.2098148610030057
0.27814569536423844,1.2792404005869025
0.2980132450331126,1.3485069319184608
0.31788079470198677,1.4173834317004792
0.33774834437086093,1.485670176451365
0.3576158940397351,1.5531921548844443
0.3774834437086093,1.6197941005479588
0.3973509933774834,1.6853367246165674
0.4172185430463576,1.7496938409607812
0.4370860927152318,1.812750158149977
0.45695364238410596,1.8743995730889096
0.4768211920529801,1.934543844510206
0.49668874172185434,1.99309155610352
0.5165562913907285,2.049957302015318
0.5364238410596026,2.1050610442229973
0.5562913907284769,2.158327603609695
0.5761589403973509,2.2096862556769277
0.5960264900662252,2.259070408612537
0.6158940397350993,2.306417346512361
0.6357615894039735,2.3516680243866133
0.6556291390728477,2.394766904493222
0.6754966887417219,2.4356618257661293
0.695364238410596,2.4743038998200495
0.7152317880794702,2.51064742834028
0.7350993377483444,2.5446498377011917
0.7549668874172186,2.5762716274689246
0.7748344370860927,2.6054763300851227
0.7947019867549668,2.6322304795379154
0.8145695364238411,2.65650358723391
0.8344370860927152,2.678268123613166
0.8543046357615894,2.6974995043149566
0.8741721854304636,2.7141760799198495
0.8940397350993378,2.7282791284727623
0.9139072847682119,2.7397928501407183
0.9337748344370861,2.748704363485119
0.9536423841059603,2.7550037029351464
0.9735099337748344,2.758683817142276
0.9933774834437087,2.75974056797838
1.0132450331125828,2.7581727300140626
1.033112582781457,2.753981990383668
1.0529801324503312,2.7471729490093404
1.0728476821192052,2.7377531192220808
1.0927152317880795,2.7257329288845336
1.1125827814569538,2.7111257221901184
1.1324503311258278,2.693947762388916
1.1523178807947019,2.6742182357748705
1.1721854304635762,2.6519592573639392
1.1920529801324504,2.627195878803333
1.2119205298013245,2.5999560991811097
1.2317880794701985,2.5702708795596467
1.2516556291390728,2.5381741622417815
1.271523178807947,2.5037028960038143
1.2913907284768211,2.4668970688058334
1.3112582781456954,2.4277997498306054
1.3311258278145695,2.3864571431269974
1.3509933774834437,2.342918655664574
1.370860927152318,2.2972369832760973
1.390728476821192,2.2494682188131874
1.410596026490066,2.1996719879244595
1.4304635761589404,2.147911619257609
1.4503311258278146,2.0942543576863613
1.4701986754966887,2.038771631505647
1.4900662251655628,1.981539387606082
1.5099337748344372,1.9226385126858403
1.5298013245033113,1.8621553639312611
1.5496688741721854,1.8001824397828385
1.5695364238410596,1.7368192310752522
1.5894039735099337,1.6721733059472084
1.609271523178808,1.6063616997894425
1.6291390728476822,1.5395127060057567
1.6490066225165563,1.471768197117132
1.6688741721854303,1.403286652361215
1.6887417218543048,1.3342471323320988
1.7086092715231789,1.2648545297450215
1.728476821192053,1.1953465457066919
1.7483443708609272,1.1260030002751502
1.7682119205298013,1.0571582869550662
1.7880794701986755,0.9892180079817693
1.8079470198675496,0.9226810184693065
1.8278145695364238,0.858168087604711
1.847682119205298,0.7964577350020037
1.8675496688741722,0.7385276358103033
1.8874172185430464,0.6855947221365503
1.9072847682119205,0.6391366754454006
1.9271523178807946,0.6008615201944493
1.9470198675496688,0.5725781781501667
1.9668874172185429,0.5559332575297967
1.9867549668874174,0.5520489500098197
2.0066225165562916,0.5612063829663634
2.0264900662251657,0.5827573240299002
2.0463576158940397,0.6153225750348603
2.066225165562914,0.6571501827826767
2.086092715231788,0.7064486633637987
2.1059602649006623,0.761594770624417
2.1258278145695364,0.8212169326543388
2.1456953642384105,0.8841995061238933
2.165562913907285,0.9496507471702135
2.185430463576159,1.0168608390417446
2.205298013245033,1.0852623182115846
2.2251655629139075,1.1543971317901607
2.2450331125827816,1.2238907895572497
2.2649006622516556,1.293432670804892
2.2847682119205297,1.3627612256363446
2.3046357615894038,1.4316529086502543
2.324503311258278,1.499913901284748
2.3443708609271523,1.5673738994145632
2.364238410596027,1.6338814272100923
2.384105960264901,1.6993002810496152
2.403973509933775,1.7635068137167278
2.423841059602649,1.826387846989184
2.443708609271523,1.8878390572205903
2.463576158940397,1.947763719403381
2.4834437086092715,2.0060717248299054
2.5033112582781456,2.0626788090151864
2.52317880794702,2.11750594229236
2.543046357615894,2.170478847069399
2.562913907284768,2.221527614301892
2.5827814569536423,2.2705863981171297
2.6026490066225163,2.3175931723107377
2.622516556291391,2.3624895360501372
2.642384105960265,2.405220558867239
2.662251655629139,2.445734657125024
2.6821192052980134,2.4839834957636704
2.7019867549668874,2.5199219103878767
2.7218543046357615,2.553507845738194
2.741721854304636,2.5847023073594078
2.76158940397351,2.613469323887873
2.781456953642384,2.639775917864337
2.801324503311258,2.6635920833664946
2.821192052980132,2.684890769068219
2.8410596026490067,2.703647865586441
2.8609271523178808,2.7198421961842945
2.8807947019867552,2.733455510070818
2.9006622516556293,2.7444724776805685
2.9205298013245033,2.752880687437249
2.9403973509933774,2.7586706436089106
2.9602649006622515,2.761835764952331
2.9801324503311255,2.762372383923739
3.0,2.7602797463064204
3.0198675496688745,2.7555600111729035
3.0397350993377485,2.748218251165112
3.0596026490066226,2.738262453140528
3.0794701986754967,2.7257035192989667
3.0993377483443707,2.7105552689743106
3.119205298013245,2.6928344413520766
3.1390728476821192,2.6725606994585696
3.1589403973509933,2.649756635863689
3.1788079470198674,2.6244477806520177
3.198675496688742,2.59666261234857
3.218543046357616,2.566432572643379
3.23841059602649,2.5337920859488943
3.2582781456953644,2.498778585056035
3.2781456953642385,2.461432544438785
3.2980132450331126,2.421797523109031
3.3178807947019866,2.379920219361787
3.3377483443708607,2.3358505403007013
3.3576158940397347,2.2896416897281178
3.3774834437086096,2.2413502788661646
3.3973509933774837,2.1910364655036942
3.4172185430463577,2.1387641286162498
3.437086092715232,2.0846010873880543
3.456953642384106,2.028619376019368
3.47682119205298,1.9708955889260318
3.4966887417218544,1.9115113151997307
3.5165562913907285,1.850553686873253
3.5364238410596025,1.7881160731449193
3.556291390728477,1.7242989629931862
3.576158940397351,1.6592110925835486
3.596026490066225,1.5929708929868949
3.615894039735099,1.5257083600379102
3.6357615894039736,1.457567484539403
3.6556291390728477,1.3887094314636912
3.6754966887417218,1.3193167267615438
3.695364238410596,1.249598806973839
3.7152317880794703,1.1797994185644167
3.7350993377483444,1.110206528950501
3.754966887417219,1.0411656319621174
3.774834437086093,0.973097578793687
3.794701986754967,0.9065222675775989
3.814569536423841,0.8420894728605255
3.834437086092715,0.78061729287195
3.854304635761589,0.7231360901980465
3.8741721854304636,0.6709295483640201
3.8940397350993377,0.6255522948186137
3.9139072847682117,0.5887856677708323
3.9337748344370858,0.5624802763494157
3.9536423841059607,0.548255607669193
3.9735099337748347,0.5471139465721988
3.993377483443709,0.5591417082221354
4.013245033112583,0.5834816869813695
4.033112582781457,0.6185950212762024
4.052980132450331,0.6626469576199784
4.072847682119205,0.7138296772910211
4.0927152317880795,0.7705440065664637
4.112582781456953,0.8314596332986446
4.132450331125828,0.8955049893188388
4.152317880794702,0.9618283837103592
4.172185430463576,1.029753736816926
4.19205298013245,1.09874093041735
4.211920529801325,1.1683536607718086
4.231788079470199,1.2382346009136205
4.251655629139073,1.3080866574116772
4.271523178807947,1.3776589711835532
4.291390728476821,1.446736490035029
4.311258278145695,1.515132188391102
4.33112582781457,1.5826812373280175
4.3509933774834435,1.6492366110583907
4.370860927152318,1.7146657546837059
4.390728476821192,1.778848040040363
4.410596026490066,1.8416728104662745
4.43046357615894,1.9030378686968303
4.450331125827815,1.9628483005852932
4.470198675496689,2.021015555159326
4.490066225165563,2.077456721719774
4.509933774834438,2.1320939594310975
4.529801324503311,2.1848540456846344
4.549668874172186,2.2356680175282655
4.569536423841059,2.284470886423507
4.589403973509934,2.33120141106754
4.6092715231788075,2.375801916398597
4.629139072847682,2.4182181494748507
4.649006622516556,2.458399164886165
4.66887417218543,2.496297233876183
4.688741721854305,2.5318677725302976
4.708609271523179,2.565069285305032
4.728476821192054,2.595863320897656
4.748344370860927,2.6242144380268115
4.768211920529802,2.6500901791504488
4.788079470198675,2.6734610505123793
4.80794701986755,2.6943005072032364
4.827814569536423,2.712584942161228
4.847682119205298,2.728293678233994
4.867549668874172,2.7414089625854627
4.887417218543046,2.7519159628669345
4.9072847682119205,2.7598027646863375
4.927152317880794,2.765060370008206
4.947019867549669,2.767682696202628
4.966887417218543,2.7676665755382195
4.986754966887418,2.765011754984241
5.006622516556291,2.759720896252447
5.026490066225166,2.751799576073137
5.04635761589404,2.741256286762978
5.066225165562914,2.728102437207999
5.086092715231788,2.712352354454093
5.105960264900662,2.69402328617369
5.125827814569536,2.673135404361886
5.14569536423841,2.6497118107125024
5.1655629139072845,2.62377854423752
5.185430463576159,2.5953645918269532
5.205298013245033,2.564501902605809
5.225165562913908,2.5312254071382267
5.245033112582782,2.4955730427646516
5.264900662251656,2.4575857866483117
5.28476821192053,2.417307698467304
5.304635761589404,2.3747859751384106
5.324503311258278,2.3300710205241275
5.344370860927152,2.2832165337900165
5.364238410596027,2.234279620991364
5.3841059602649,2.1833209356366905
5.403973509933775,2.1304048554849517
5.4238410596026485,2.0755997047933934
5.443708609271523,2.0189780337986147
5.463576158940397,1.9606169705928966
5.483443708609272,1.9005986650430062
5.503311258278146,1.8390108503936007
5.52317880794702,1.7759475562692575
5.543046357615895,1.7115100177375526
5.562913907284768,1.6458078400520382
5.582781456953643,1.5789604992659148
5.602649006622516,1.5110992873798939
5.622516556291391,1.442369850301837
5.642384105960264,1.3729355222020387
5.662251655629139,1.302981737122712
5.682119205298013,1.2327219062601324
5.701986754966887,1.1624052973613874
5.7218543046357615,1.09232765137969
5.741721854304636,1.0228455249435888
5.7615894039735105,0.9543956360401127
5.781456953642384,0.8875207297880708
5.801324503311259,0.8229034253797477
5.821192052980132,0.7614085527391721
5.841059602649007,0.7041313548034093
5.860927152317881,0.652441343655996
5.880794701986755,0.607996872048764
5.900662251655629,0.572684524243913
5.920529801324503,0.5484251856671687
5.940397350993377,0.5368230576844466
5.960264900662251,0.5387458134126792
5.980132450331126,0.5540481041322625
6.0,0.5816206658214831
6.0198675496688745,0.6197305383258722
6.039735099337749,0.666438996151586
6.059602649006623,0.7199114566780056
6.079470198675497,0.778569072965453
6.099337748344371,0.8411226719261754
6.119205298013245,0.9065464183140636
6.139072847682119,0.9740310792971064
6.158940397350993,1.0429369101128858
6.178807947019867,1.1127536443652284
6.198675496688741,1.1830690114750437
6.218543046357616,1.2535448622632537
6.23841059602649,1.3238993730800632
6.258278145695365,1.3938938651324557
6.2781456953642385,1.4633230436962459
6.298013245033113,1.5320077450814333
6.317880794701987,1.5997895176013603
6.337748344370861,1.6665265463622159
6.357615894039735,1.7320905672456308
6.377483443708609,1.796364513552408
6.397350993377484,1.859240709136717
6.417218543046357,1.9206194722135406
6.437086092715232,1.9804080301166678
6.456953642384105,2.0385196712622875
6.47682119205298,2.0948730793744863
6.496688741721854,2.1493918087234514
6.516556291390729,2.2020038691717265
6.5364238410596025,2.252641397245002
6.556291390728477,2.3012403949662925
6.5761589403973515,2.3477405223326633
6.596026490066225,2.392084932439622
6.6158940397351,2.4342201406358637
6.635761589403973,2.4740959209113087
6.655629139072848,2.511665224125115
6.675496688741721,2.546884113769617
6.695364238410596,2.579711715817429
6.715231788079469,2.610110179867973
6.735099337748344,2.6380446493395397
6.754966887417219,2.663483238874907
6.774834437086093,2.686397017466779
6.794701986754967,2.7067599960829667
6.814569536423841,2.724549118793122
6.8344370860927155,2.739744256581743
6.854304635761589,2.7523282031831076
6.874172185430464,2.7622866724001196
6.894039735099337,2.76960829647672
6.913907284768212,2.77428462518535
6.933774834437086,2.776310125372311
6.95364238410596,2.775682180775906
6.973509933774834,2.772401091999085
6.993377483443709,2.7664700765808967
7.013245033112583,2.7578952691720624
7.033112582781457,2.7466857218816245
7.052980132450331,2.7328534049249504
7.072847682119205,2.7164132077715526
7.0927152317880795,2.6973829410658485
7.112582781456954,2.6757833396777966
7.132450331125828,2.6516380673370676
7.152317880794702,2.6249737234169768
7.172185430463576,2.5958198525680256
7.19205298013245,2.5642089580613696
7.211920529801324,2.5301765198972537
7.231788079470198,2.493761018971449
7.251655629139073,2.455003968886933
7.271523178807947,2.4139499573637537
7.291390728476822,2.3706466996577436
7.311258278145695,2.3251451069765325
7.33112582781457,2.2774993736140052
7.3509933774834435,2.2277670874612605
7.370860927152318,2.1760093697572467
7.390728476821192,2.122291051502956
7.410596026490066,2.0666808959992675
7.430463576158941,2.009251879642922
7.450331125827814,1.9500815466543775
7.470198675496689,1.8892524581299248
7.490066225165562,1.8268527621497412
7.509933774834438,1.762976920256296
7.52980132450331,1.6977266373292952
7.549668874172186,1.6312120579880587
7.569536423841059,1.563553314965161
7.589403973509934,1.4948825460257857
7.6092715231788075,1.4253465397059908
7.629139072847682,1.3551102317635115
7.649006622516557,1.2843613613019722
7.66887417218543,1.2133167182825995
7.6887417218543055,1.142230585597675
7.708609271523178,1.0714062131655764
7.728476821192054,1.0012114670826016
7.748344370860927,0.9321001566461834
7.768211920529802,0.8646408619434688
7.788079470198675,0.799555072274971
7.80794701986755,0.7377653541056961
7.827814569536423,0.6804504493339962
7.847682119205298,0.6290946726517068
7.8675496688741715,0.5855002280338262
7.887417218543046,0.5517048944340691
7.907284768211921,0.5297359136538077
7.927152317880795,0.5211857620350814
7.9470198675496695,0.526746270028179
7.966887417218543,0.5459692785024552
7.986754966887418,0.5774249565901528
8.006622516556291,0.6191422615128366
8.026490066225167,0.6690600749021759
8.046357615894038,0.7253147220090751
8.066225165562914,0.7863525436600629
8.086092715231787,0.850932475314734
8.105960264900663,0.9180812932012847
8.125827814569536,0.9870382702361552
8.14569536423841,1.0572050760294895
8.165562913907285,1.1281054821505947
8.185430463576159,1.1993546760534908
8.205298013245034,1.270636483439233
8.225165562913906,1.341686637128706
8.245033112582782,1.412280512682771
8.264900662251655,1.4822241137984515
8.28476821192053,1.5513474104552776
8.304635761589404,1.6194993820180377
8.324503311258278,1.6865443012806969
8.344370860927151,1.7523589274729428
8.364238410596027,1.8168303700299953
8.3841059602649,1.8798544513034536
8.403973509933774,1.9413344434322597
8.42384105960265,2.0011800880679513
8.443708609271523,2.0593068316080694
8.463576158940398,2.115635225858601
8.483443708609272,2.1700904565823405
8.503311258278146,2.2226019715621192
8.52317880794702,2.2731031865703555
8.543046357615895,2.3215312526623353
8.562913907284768,2.367826871973467
8.582781456953642,2.4119341520402697
8.602649006622515,2.453800490822593
8.62251655629139,2.4933764862564427
8.642384105960264,2.5306158654400104
8.66225165562914,2.565475429543806
8.682119205298013,2.5979150113077
8.701986754966887,2.627897442595172
8.721854304635762,2.655388529955467
8.741721854304636,2.6803570365280147
8.76158940397351,2.7027746689302727
8.781456953642383,2.72261606801932
8.801324503311259,2.7398588026194837
8.821192052980132,2.7544833654748238
8.841059602649008,2.766473170823071
8.86092715231788,2.775814553103462
8.880794701986755,2.782496766409201
8.90066225165563,2.7865119843801627
8.920529801324504,2.787855300306222
8.940397350993377,2.7865247272788727
8.960264900662251,2.782521198290712
8.980132450331126,2.775848566241378
9.0,2.7665136038662292
9.019867549668875,2.754526003662521
9.039735099337747,2.7398983779486383
9.059602649006623,2.7226462592578144
9.079470198675496,2.7027881013398303
9.099337748344372,2.680345281126524
9.119205298013245,2.6553421021112067
9.139072847682119,2.627805799703087
9.158940397350994,2.5977665492501862
9.178807947019868,2.5652574775829207
9.198675496688743,2.5303146791244786
9.218543046357615,2.4929772378521178
9.23841059602649,2.4532872566878874
9.258278145695364,2.4112898962650164
9.27814569536424,2.367033425478187
9.298013245033111,2.3205692868104024
9.317880794701987,2.271952180174013
9.33774834437086,2.2212401699589455
9.357615894039736,2.168494821215816
9.37748344370861,2.1137813725075354
9.397350993377483,2.057168955067967
9.417218543046358,1.9987308706859381
9.437086092715232,1.9385449444314324
9.456953642384107,1.8766939733019552
9.47682119205298,1.8132662985764834
9.496688741721854,1.7483565388136788
9.516556291390728,1.6820665330150508
9.536423841059603,1.614506560929449
9.556291390728477,1.545796931894674
9.57615894039735,1.47607006805007
9.596026490066224,1.4054732566825263
9.6158940397351,1.3341723164113777
9.635761589403973,1.2623565222975643
9.655629139072847,1.1902452790637528
9.675496688741722,1.1180972372370328
9.695364238410596,1.046222835428592
9.715231788079471,0.9750016411162897
9.735099337748345,0.904906344146402
9.754966887417218,0.8365357338305212
9.774834437086092,0.7706591136013938
9.794701986754967,0.7082734166386047
9.814569536423841,0.6506695369376749
9.834437086092716,0.5994918083203765
9.854304635761588,0.556748974178213
9.874172185430464,0.524699475774613
9.894039735099337,0.5055234530787294
9.913907284768213,0.5007861120163032
9.933774834437086,0.5109133069631463
9.95364238410596,0.5350289308683626
9.973509933774835,0.5712817727082844
9.993377483443709,0.617413549177921
10.013245033112582,0.6712329467204297
10.033112582781456,0.7308594402849533
10.052980132450331,0.7947820564835337
10.072847682119205,0.8618240818236126
10.09271523178808,0.9310780991551125
10.112582781456952,1.0018421037177683
10.132450331125828,1.0735669853306224
10.152317880794701,1.1458165285378263
10.172185430463577,1.218237989796745
10.192052980132452,1.2905407648499223
10.211920529801324,1.3624809760015322
10.2317880794702,1.4338503083536294
10.251655629139073,1.5044678762459796
10.271523178807948,1.5741742523076736
10.29139072847682,1.6428270473140294
10.311258278145695,1.7102976099851113
10.331125827814569,1.776468542282117
10.350993377483444,1.8412318137866504
10.370860927152318,1.9044873201562547
10.390728476821192,1.966141773696138
10.410596026490065,2.0261078444643195
10.43046357615894,2.0843034919293504
10.450331125827816,2.1406514426889554
10.470198675496688,2.195078780958537
10.490066225165563,2.2475166267076054
10.509933774834437,2.2978998823307673
10.529801324503312,2.3461670331962003
10.549668874172186,2.3922599907464708
10.56953642384106,2.4361239693375554
10.589403973509933,2.4777073899084474
10.609271523178808,2.5169618050324556
10.629139072847682,2.553841841025095
10.649006622516556,2.588305153655491
10.66887417218543,2.6203123946894635
10.688741721854305,2.6498271870284995
10.70860927152318,2.6768161066327933
10.728476821192054,2.7012486697553535
