Frequency (Hz),Amplitude
0.0,4.1579387343643965
0.020066889632107024,4.156247389104536
0.04013377926421405,4.151175933676957
0.060200668896321065,4.142732114075167
0.0802675585284281,4.1309288568523135
0.10033444816053512,4.115784294339407
0.12040133779264213,4.097321800703241
0.14046822742474915,4.075570039614824
0.1605351170568562,4.050563024546435
0.1806020066889632,4.022340192983345
0.20066889632107024,3.9909464961308756
0.22073578595317725,3.9564325060244103
0.24080267558528426,3.918854542316015
0.2608695652173913,3.8782748214236817
0.2809364548494983,3.8347616311954837
0.3010033444816054,3.788389534769761
0.3210702341137124,3.7392396079124732
0.34113712374581934,3.687399714792712
0.3612040133779264,3.6329648279256554
0.3812709030100334,3.5760373988751386
0.4013377926421405,3.5167277872696854
0.42140468227424743,3.4551547567440006
0.4414715719063545,3.391446047561677
0.4615384615384615,3.3257390368794146
0.4816053511705685,3.2581814988300066
0.5016722408026756,3.188932477750827
0.5217391304347826,3.1181632888354414
0.5418060200668896,3.046058661036762
0.5618729096989966,2.972818036896077
0.5819397993311036,2.8986570426651634
0.6020066889632107,2.823809138982684
0.6220735785953176,2.74852745655273
0.6421404682274248,2.6730868115026607
0.6622073578595318,2.5977858797046505
0.6822742474916387,2.522949486192362
0.7023411371237458,2.4489309322946125
0.7224080267558528,2.3761142363391357
0.7424749163879598,2.304916100972598
0.7625418060200668,2.2357873395191703
0.7826086956521738,2.169213396138134
0.802675585284281,2.1057134856048587
0.8227424749163879,2.045837772370114
0.8428093645484949,1.9901619310921246
0.862876254180602,1.9392784223615511
0.882943143812709,1.8937839307975963
0.903010033444816,1.8542627038609354
0.923076923076923,1.8212660356819133
0.9431438127090299,1.795288847007536
0.963210702341137,1.7767451224097315
0.983277591973244,1.7659446865895223
1.0033444816053512,1.7630741807308516
1.0234113712374582,1.7681849158230662
1.0434782608695652,1.781189457422828
1.0635451505016722,1.801867482042311
1.0836120401337792,1.8298799811920372
1.1036789297658862,1.864789679840511
1.1237458193979932,1.9060848804214272
1.1438127090301002,1.9532039260845715
1.1638795986622072,2.0055579726245747
1.1839464882943145,2.062550526394274
1.2040133779264215,2.123593002644449
1.2240802675585283,2.188116216979809
1.2441471571906353,2.2555781693564594
1.2642140468227423,2.3254687185332927
1.2842809364548495,2.3973118200156267
1.3043478260869565,2.470665968865251
1.3244147157190636,2.545123400356671
1.3444816053511706,2.620308492667223
1.3645484949832773,2.695875709004947
1.3846153846153846,2.771507323257635
1.4046822742474916,2.8469110975239276
1.4247491638795986,2.9218180216587495
1.4448160535117056,2.9959801820668286
1.4648829431438126,3.0691687965370646
1.4849498327759196,3.141172431082758
1.5050167224080266,3.211795401058907
1.5250836120401337,3.2808563502621624
1.5451505016722407,3.348186996735598
1.5652173913043477,3.4136310314501848
1.5852842809364547,3.4770431550867533
1.605351170568562,3.538288238210399
1.625418060200669,3.597240590808676
1.6454849498327757,3.6537833281818903
1.6655518394648827,3.7078078213490895
1.6856187290969897,3.759213221350513
1.705685618729097,3.80790604801704
1.725752508361204,3.8537998348978415
1.745819397993311,3.896814823068999
1.765886287625418,3.9368776974794324
1.7859531772575248,3.9739213603267487
1.806020066889632,4.007884736698485
1.826086956521739,4.0387126083712905
1.846153846153846,4.066355472240097
1.866220735785953,4.0907694203603
1.8862876254180598,4.111916039036675
1.9063545150501673,4.1297623247919395
1.926421404682274,4.144280615402591
1.9464882943143813,4.155448534507533
1.966555183946488,4.163248948581932
1.9866220735785953,4.167669935330939
2.0066889632107023,4.168704762800602
2.026755852842809,4.166351878731542
2.0468227424749164,4.160614909899342
2.0668896321070234,4.151502671398831
2.0869565217391304,4.139029186041402
2.1070234113712374,4.123213714250317
2.1270903010033444,4.104080795062041
2.1471571906354514,4.0816602990774165
2.1672240802675584,4.055987494459232
2.1872909698996654,4.027103127347984
2.2073578595317724,3.9950535183705167
2.2274247491638794,3.959890677253266
2.2474916387959865,3.9216724379295047
2.267558528428094,3.880462616955394
2.2876254180602005,3.8363311985307513
2.3076923076923075,3.7893545499654104
2.3277591973244145,3.739615672049349
2.3478260869565215,3.68720448948253
2.367892976588629,3.6322181873062678
2.3879598662207355,3.5747616001565676
2.408026755852843,3.5149476621333884
2.4280936454849495,3.4528979261421977
2.4481605351170566,3.388743162700035
2.468227424749164,3.322624049374658
2.4882943143812706,3.2546919631845626
2.508361204013378,3.1851098893336856
2.5284280936454846,3.114053460436332
2.548494983277592,3.041712140674998
2.568561872909699,2.9682905687822956
2.5886287625418056,2.894010071849222
2.608695652173913,2.819110358023473
2.6287625418060196,2.7438513891829404
2.648829431438127,2.668515423307906
2.668896321070234,2.5934091987661794
2.688963210702341,2.518866206850976
2.709030100334448,2.4452489620510027
2.7290969899665547,2.372951128892721
2.749163879598662,2.3023992973467413
2.769230769230769,2.234054114713856
2.789297658862876,2.1684103827396535
2.809364548494983,2.105995622353384
2.82943143812709,2.047366511871687
2.849498327759197,1.9931025470735282
2.869565217391304,1.9437962962626993
2.8896321070234112,1.9000397833025275
2.9096989966555182,1.8624068769621893
2.9297658862876252,1.8314321193079346
2.9498327759197323,1.8075871538312487
2.9698996655518393,1.791256693823261
2.9899665551839463,1.7827165958612612
3.0100334448160533,1.7821168288202485
3.0301003344481603,1.7894717734886016
3.0501672240802673,1.8046593364276349
3.0702341137123748,1.8274290140943406
3.0903010033444813,1.857417658494545
3.1103678929765888,1.8941706481861724
3.1304347826086953,1.937165695582477
3.1505016722408024,1.9858366474203641
3.1705685618729094,2.039595202023302
3.1906354515050164,2.09784923451203
3.210702341137124,2.160017170089371
3.2307692307692304,2.225538437010881
3.250836120401338,2.293880414799111
3.270903010033445,2.3645424846341667
3.2909698996655514,2.437057835028886
3.311036789297659,2.5109936305790326
3.3311036789297654,2.5859500600863146
3.351170568561873,2.661558674532512
3.3712374581939795,2.7374803242930215
3.391304347826087,2.8134029179584426
3.411371237458194,2.8890391551880716
3.4314381270903005,2.964124332575336
3.451505016722408,3.03841428231355
3.471571906354515,3.111683475741609
3.491638795986622,3.1837233049556177
3.511705685618729,3.2543405432976686
3.531772575250836,3.323355977834361
3.551839464882943,3.3906032024991832
3.5719063545150496,3.455927558345969
3.591973244147157,3.519185206587755
3.612040133779264,3.580242320242227
3.632107023411371,3.6389743809027038
3.652173913043478,3.6952655681535203
3.672240802675585,3.7490082302868757
3.692307692307692,3.800102426149144
3.712374581939799,3.8484555290852924
3.732441471571906,3.893981885022991
3.752508361204013,3.9366025177243116
3.7725752508361197,3.9762448751264743
3.7926421404682276,4.012842611493102
3.8127090301003346,4.046335400809288
3.832775919732441,4.076668777483905
3.852842809364548,4.103794000979361
3.872909698996655,4.127667941480489
3.8929765886287626,4.148252984149326
3.9130434782608696,4.165516949898145
3.933110367892976,4.179433030957471
3.953177257525083,4.189979739824915
3.9732441471571907,4.197140870461226
3.9933110367892977,4.20090547085728
4.013377926421405,4.201267826335179
4.033444816053511,4.198227453172993
4.053511705685618,4.191789102360785
4.073578595317726,4.1819627735092855
4.093645484949833,4.168763739146931
4.113712374581939,4.152212579859601
4.133779264214047,4.132335230955248
4.153846153846153,4.109163041576788
4.173913043478261,4.0827328474463735
4.193979933110368,4.053087058707232
4.214046822742475,4.020273764641684
4.234113712374581,3.9843468573914675
4.254180602006689,3.9453661771955373
4.274247491638796,3.903397682098679
4.294314381270903,3.8585136455785047
4.314381270903009,3.8107928860964626
4.334448160535117,3.7603210332086054
4.354515050167224,3.7071908355800383
4.374581939799331,3.651502517040043
4.394648829431437,3.5933641876938665
4.414715719063545,3.532892318071086
4.434782608695651,3.470212285327486
4.454849498327759,3.405459001604324
4.474916387959866,3.3387776357424035
4.494983277591973,3.2703244405752856
4.5150501672240795,3.200267698870592
4.535117056856188,3.128788801472279
4.555183946488294,3.056083471052842
4.575250836120401,2.982363143723702
4.595317725752508,2.907856518015322
4.615384615384615,2.8328112756456694
4.635451505016722,2.7574959699760413
4.655518394648829,2.6822020646865754
4.6755852842809364,2.6072460851670893
4.695652173913043,2.5329718161920924
4.71571906354515,2.4597524391270276
4.735785953177258,2.3879924477288252
4.7558528428093645,2.3181291118050487
4.775919732441471,2.2506331727471154
4.795986622073578,2.186008358244627
4.816053511705686,2.1247892057833537
4.8361204013377925,2.0675366058280495
4.856187290969899,2.0148304478825807
4.8762541806020065,1.9672588196156542
4.896321070234113,1.9254034202453578
4.916387959866221,1.8898212440433653
4.936454849498328,1.8610231731143703
4.956521739130435,1.8394508317650737
4.976588628762541,1.8254537573650866
4.996655518394649,1.819269426763909
5.016722408026756,1.8210087281814211
5.036789297658863,1.8306489590290793
5.056856187290969,1.8480354058846482
5.076923076923077,1.8728912589600835
5.096989966555184,1.9048343767982
5.117056856187291,1.943398566996613
5.137123745819398,1.9880567535212534
5.157190635451505,2.038243634784819
5.177257525083611,2.0933760276480298
5.197324414715719,2.1528698190172126
5.217391304347826,2.2161531219627135
5.237458193979933,2.282675748114036
5.257525083612039,2.3519154307371006
5.277591973244148,2.4233813846180894
5.297658862876254,2.4966158152139255
5.317725752508361,2.5711939387755827
5.337792642140468,2.646722986842755
5.357859531772575,2.722840569908184
5.377926421404682,2.7992126822076946
5.397993311036789,2.8755315501983176
5.418060200668896,2.9515134636419496
5.438127090301003,3.026896679599764
5.458193979933109,3.101439453952875
5.478260869565218,3.1749182297765457
5.498327759197324,3.247125994599134
5.518394648829431,3.317870807205045
5.538461538461538,3.386974487531664
5.558528428093646,3.454271459085187
5.578595317725752,3.5196077312085423
5.598662207357859,3.5828400077873828
5.618729096989966,3.6438349090890303
5.638795986622073,3.702468294055703
5.65886287625418,3.7586246712873153
5.678929765886288,3.8121966879983376
5.698996655518394,3.8630846873193057
5.719063545150501,3.9111963253760575
5.739130434782608,3.9564462405833014
5.759197324414716,3.9987557685153425
5.7792642140468224,4.038052696558436
5.799331103678929,4.074271053305467
5.8193979933110365,4.107350928328848
5.839464882943144,4.137238318566885
5.8595317725752505,4.163884998090671
5.879598662207358,4.187248408489387
5.8996655518394645,4.207291567530129
5.919732441471571,4.223982994121115
5.9397993311036785,4.237296647940529
5.959866220735786,4.2472118823951535
5.9799331103678925,4.253713409847051
5.999999999999999,4.256791278300577
6.020066889632107,4.256440858978914
6.040133779264214,4.25266284444523
6.060200668896321,4.24546325714225
6.080267558528428,4.234853468439881
6.100334448160535,4.220850228498096
6.120401337792642,4.2034757074753735
6.1404682274247495,4.182757548846383
6.160535117056856,4.158728935840656
6.180602006688963,4.131428672281245
6.200668896321069,4.1009012793945745
6.2207357859531776,4.067197110484573
6.240802675585284,4.030372485722004
6.260869565217391,3.9904898497000847
6.280936454849498,3.947617954856082
6.301003344481605,3.9018320743628605
6.321070234113712,3.853214248660999
6.341137123745819,3.8018535704366125
6.361204013377926,3.7478465135587817
6.381270903010033,3.6912973122738055
6.40133779264214,3.632318397812251
6.421404682274248,3.5710309004883336
6.441471571906354,3.50756522634222
6.461538461538461,3.442061718359061
6.481605351170568,3.3746714132356086
6.501672240802676,3.305556905463743
6.521739130434782,3.2348933310170644
6.54180602006689,3.162869482950458
6.561872909698996,3.0896890704422204
6.581939799331103,3.015572130781751
6.60200668896321,2.940756599912598
6.622073578595318,2.8655000405310944
6.642140468227424,2.790081516281393
6.662207357859531,2.7148035848131897
6.682274247491639,2.6399943595664803
6.702341137123746,2.566009558014176
6.722408026755852,2.4932344105285154
6.742474916387959,2.422085247182704
6.762541806020066,2.3530105089539073
6.782608695652174,2.2864908467560205
6.80267558528428,2.223037882759268
6.822742474916388,2.1631911267488384
6.842809364548494,2.1075124884335317
6.862876254180601,2.0565778378010804
6.882943143812709,2.0109651812493046
6.903010033444816,1.9712392824224452
6.9230769230769225,1.9379329874584386
6.94314381270903,1.9115260979866748
6.963210702341137,1.892423291827419
6.983277591973244,1.880933171821454
7.0033444816053505,1.8772508360730331
7.023411371237458,1.8814462389077473
7.0434782608695645,1.893459986496876
7.063545150501672,1.9131071811152127
7.083612040133779,1.9400887395375754
7.103678929765886,1.9740085723241718
7.123745819397993,2.0143943709656513
7.143812709030099,2.060719610448408
7.1638795986622075,2.1124246753385347
7.183946488294314,2.1689355909086308
7.204013377926421,2.229679495664963
7.224080267558528,2.2940965773511617
7.2441471571906355,2.361648629382936
7.264214046822742,2.4318246504245677
7.2842809364548495,2.5041440294765795
7.304347826086956,2.578157873100315
7.324414715719063,2.6534489816362563
7.34448160535117,2.7296309008014625
7.364548494983278,2.80634638669673
7.384615384615384,2.8832655394261604
7.404682274247491,2.9600837896547763
7.424749163879598,3.0365198654191654
7.444816053511706,3.1123138227339116
7.464882943143812,3.1872251911895595
7.48494983277592,3.2610312626377644
7.505016722408026,3.3335255351128215
7.525083612040134,3.404516313535228
7.545150501672239,3.473825462016293
7.565217391304348,3.541287298595591
7.585284280936455,3.6067476211424303
7.605351170568561,3.6700628523142464
7.625418060200669,3.731099291443465
7.645484949832775,3.7897324617062202
7.665551839464882,3.8458465416981444
7.685618729096991,3.899333871458575
7.705685618729096,3.9500945239522243
7.725752508361204,3.9980359339760088
7.74581939799331,4.043072577373844
7.765886287625418,4.085125694293337
7.785953177257525,4.12412305099744
7.806020066889631,4.159998735448739
7.826086956521739,4.192692982516429
7.846153846153847,4.222152025221131
7.866220735785952,4.248327968936103
7.88628762541806,4.27117868591207
7.906354515050166,4.290667727893317
7.926421404682274,4.3067642549515615
7.946488294314381,4.319442978987194
7.966555183946488,4.328684120641478
7.986622073578595,4.3344733786324365
8.006688963210701,4.33680191077769
8.02675585284281,4.3356663262033726
8.046822742474916,4.331068688464174
8.066889632107022,4.323016529520172
8.08695652173913,4.311522874734974
8.107023411371236,4.296606279281491
8.127090301003344,4.278290876570382
8.147157190635452,4.256606439556035
8.167224080267557,4.2315884560303685
8.187290969899665,4.2032782192905325
8.207357859531772,4.171722935867504
8.227424749163879,4.136975852333723
8.247491638795987,4.099096403575067
8.267558528428093,4.058150385320973
8.2876254180602,4.014210154182207
8.307692307692307,3.9673548589542147
8.327759197324415,3.917670707510487
8.347826086956522,3.8652512742376364
8.367892976588628,3.810197853655469
8.387959866220736,3.752619866616315
8.408026755852843,3.692635326283734
8.42809364548495,3.63037137193147
8.448160535117056,3.56596487945124
8.468227424749163,3.499563158261958
8.488294314381271,3.4313247449950595
8.508361204013378,3.3614203047730773
8.528428093645484,3.2900336509253365
8.548494983277592,3.217362893343959
8.568561872909697,3.143621724015013
8.588628762541806,3.06904084506593
8.608695652173914,2.9938695392705115
8.628762541806019,2.9183773744440735
8.648829431438127,2.8428560203770608
8.668896321070234,2.7676211384495657
8.68896321070234,2.693014278146081
8.709030100334449,2.6194046795312076
8.729096989966555,2.547190834706816
8.749163879598662,2.4768016034325284
8.769230769230768,2.408696609203278
8.789297658862875,2.3433655659558807
8.809364548494983,2.281326110955393
8.82943143812709,2.2231196619674427
8.849498327759196,2.169304800627555
8.869565217391303,2.1204477409320885
8.889632107023411,2.0771096073777846
8.909698996655518,2.0398305498918416
8.929765886287624,2.0091111671494426
8.949832775919733,1.9853922580088939
8.96989966555184,1.9690344783684197
8.989966555183946,1.9602999036410065
9.010033444816054,1.9593376266007012
9.030100334448159,1.9661752439642544
9.050167224080267,1.9807173979434276
9.070234113712376,2.0027515711297013
9.09030100334448,2.0319603165543163
9.110367892976589,2.067938289934383
9.130434782608695,2.110212013181045
9.150501672240802,2.1582602825557395
9.17056856187291,2.211533463164125
9.190635451505017,2.26947043486874
9.210702341137123,2.3315125183037506
9.23076923076923,2.397114198757501
9.250836120401337,2.465750822020811
9.270903010033445,2.5369236507269255
9.290969899665551,2.610162763847217
9.311036789297658,2.6850282899681925
9.331103678929765,2.761110420602765
9.351170568561873,2.8380285801907377
9.37123745819398,2.9154300532601543
9.391304347826086,2.992988297529038
9.411371237458194,3.070401109952379
9.4314381270903,3.147388762589079
9.451505016722408,3.2236921862799384
9.471571906354516,3.299071251060192
9.49163879598662,3.3733031712026746
9.511705685618729,3.4461810480544135
9.531772575250837,3.5175125538579803
9.551839464882942,3.587118753277301
9.57190635451505,3.654833055385597
9.591973244147155,3.720500286665745
9.612040133779264,3.7839758745623024
9.632107023411372,3.845125130904043
9.652173913043477,3.9038226247979257
9.672240802675585,3.959951635178945
9.692307692307692,4.013403673947662
9.712374581939798,4.064078071446832
9.732441471571907,4.111881616860645
9.752508361204013,4.156728246928186
9.77257525083612,4.198538777124801
9.792642140468226,4.237240670170487
9.812709030100335,4.2727678373686455
9.832775919732441,4.305060468862017
9.852842809364548,4.334064889417873
9.872909698996656,4.359733436826577
9.89297658862876,4.382024360420999
9.91304347826087,4.400901737605297
9.933110367892976,4.416335406625271
9.953177257525082,4.428300914124603
9.97324414715719,4.436779476317199
9.993311036789297,4.441757952869856
10.013377926421404,4.443228832837095
10.033444816053512,4.441190232224941
10.053511705685617,4.435645902987444
10.073578595317725,4.426605253482435
10.093645484949834,4.414083380636085
10.113712374581938,4.398101114292307
10.133779264214047,4.3786850744581125
10.153846153846153,4.355867742402513
10.17391304347826,4.329687546829857
10.193979933110368,4.300188966632064
10.214046822742475,4.26742265203298
10.234113712374581,4.231445566276868
10.254180602006688,4.192321150385937
10.274247491638796,4.150119513924076
10.294314381270903,4.104917655159554
10.31438127090301,4.056799714521914
10.334448160535118,4.005857265800119
10.354515050167223,3.9521896501299474
10.37458193979933,3.895904358465907
10.394648829431437,3.8371174689168117
10.414715719063544,3.7759541460290804
10.434782608695652,3.7125492097982367
10.454849498327757,3.6470477828323355
10.474916387959865,3.5796060246112082
10.494983277591974,3.5103919620794133
10.515050167224079,3.4395864257287383
10.535117056856187,3.3673840996545805
10.555183946488295,3.2939946925112817
10.5752508361204,3.219644233435141
10.595317725752508,3.1445764922997257
10.615384615384615,3.069054516392089
10.635451505016722,2.993362264825972
10.65551839464883,2.917806306601573
10.675585284280936,2.8427175268547225
10.695652173913043,2.7684527570907345
10.71571906354515,2.695396207763044
10.735785953177256,2.6239605346418893
10.755852842809364,2.55458731440197
10.775919732441471,2.487746642282808
10.795986622073578,2.42393550156853
10.816053511705684,2.3636745020114103
10.836120401337793,2.307502559428921
10.856187290969899,2.2559691151163666
10.876254180602006,2.2096235990165694
