Frequency (Hz),Amplitude
0.0,0.7653588106310847
0.019801980198019802,0.790120905126525
0.039603960396039604,0.8600523603736389
0.0594059405940594,0.9651509689059811
0.07920792079207921,1.0949950120256569
0.09900990099009901,1.2414221454419465
0.1188118811881188,1.398754004328714
0.13861386138613863,1.5631789931254263
0.15841584158415842,1.732125015102853
0.1782178217821782,1.903813084713999
0.19801980198019803,2.0769713615525065
0.21782178217821782,2.250657210874409
0.2376237623762376,2.42414636082937
0.25742574257425743,2.5968628923777737
0.27722772277227725,2.768334174171023
0.297029702970297,2.938161255770462
0.31683168316831684,3.105999020361046
0.33663366336633666,3.271542623668541
0.3564356435643564,3.434518063674354
0.37623762376237624,3.594675517554615
0.39603960396039606,3.7517845664168483
0.4158415841584158,3.9056307299494257
0.43564356435643564,4.056012924413507
0.45544554455445546,4.202741580992053
0.4752475247524752,4.345637242729586
0.495049504950495,4.484529512553468
0.5148514851485149,4.619256261676236
0.5346534653465347,4.74966303301598
0.5544554455445545,4.875602591952383
0.5742574257425742,4.996934589233552
0.594059405940594,5.113525309789608
0.613861386138614,5.225247487678987
0.6336633663366337,5.331980172125121
0.6534653465346534,5.433608633097984
0.6732673267326733,5.5300242975029406
0.6930693069306931,5.621124709003259
0.7128712871287128,5.7068135059938845
0.7326732673267327,5.787000413386392
0.7524752475247525,5.861601244746524
0.7722772277227723,5.930537912012569
0.7920792079207921,5.9937384405606755
0.8118811881188118,6.051136987808991
0.8316831683168316,6.102673863891536
0.8514851485148516,6.1482955532053
0.8712871287128713,6.187954735854876
0.891089108910891,6.221610308199804
0.9108910891089109,6.249227401859486
0.9306930693069307,6.270777400655941
0.9504950495049505,6.28623795508135
0.9702970297029703,6.2955929939691595
0.99009900990099,6.298832733129469
1.00990099009901,6.2959536807822545
1.0297029702970297,6.286958639690128
1.0495049504950495,6.271856705957571
1.0693069306930694,6.250663264526934
1.0891089108910892,6.223399981466407
1.108910891089109,6.190094793213616
1.1287128712871286,6.150781893010892
1.1485148514851484,6.105501714849973
1.1683168316831685,6.054300915335324
1.188118811881188,5.997232353981804
1.2079207920792079,5.934355072586901
1.227722772277228,5.865734274466948
1.2475247524752475,5.7914413045261
1.2673267326732673,5.7115536313476145
1.2871287128712872,5.626154832766327
1.3069306930693068,5.535334586719653
1.3267326732673268,5.439188669596324
1.3465346534653466,5.337818964837403
1.3663366336633662,5.231333485225164
1.3861386138613863,5.119846413171394
1.405940594059406,5.003478164450285
1.4257425742574257,4.882355482300865
1.4455445544554455,4.756611570772223
1.4653465346534653,4.626386278771839
1.4851485148514851,4.4918263497438415
1.504950495049505,4.3530857565947985
1.5247524752475248,4.210326147895372
1.5445544554455446,4.0637174402430665
1.5643564356435644,3.91343860404605
1.5841584158415842,3.759678707489664
1.6039603960396038,3.602638308516097
1.6237623762376237,3.442531321053378
1.6435643564356437,3.279587535365427
1.6633663366336633,3.114056052648343
1.683168316831683,2.946210016049343
1.7029702970297032,2.7763532091291077
1.7227722772277227,2.604829390274665
1.7425742574257426,2.432035708949866
1.7623762376237624,2.258442330035623
1.782178217821782,2.0846216907389916
1.801980198019802,1.911293006298859
1.8217821782178218,1.739391371211574
1.8415841584158414,1.5701771121068457
1.8613861386138615,1.4054113025858264
1.881188118811881,1.2476379608275463
1.900990099009901,1.100625414705612
1.920792079207921,0.969990179626125
1.9405940594059405,0.8638244028972026
1.9603960396039604,0.792521790530119
1.98019801980198,0.7661940345590779
2.0,0.7894645305103047
2.01980198019802,0.858232694787702
2.0396039603960396,0.9625728367380535
2.0594059405940595,1.0920014509670513
2.0792079207920793,1.238260760517551
2.099009900990099,1.3955941486101917
2.118811881188119,1.5601365188473348
2.1386138613861387,1.7292812374894544
2.1584158415841586,1.9012271777716616
2.1782178217821784,2.0746880813283606
2.1980198019801978,2.248711676004279
2.217821782178218,2.422567043141226
2.237623762376238,2.595673520764902
2.257425742574257,2.767554970667548
2.2772277227722775,2.9378097538489194
2.297029702970297,3.1060906165998055
2.3168316831683167,3.2720909557973576
2.336633663366337,3.435535273358199
2.3564356435643563,3.596172435269631
2.376237623762376,3.7537708427947094
2.3960396039603964,3.9081149297960343
2.4158415841584158,4.05900259436796
2.4356435643564356,4.206243298369905
2.455445544554456,4.349656650822268
2.4752475247524752,4.489071346122166
2.495049504950495,4.624324365327791
2.514851485148515,4.755260374418128
2.5346534653465347,4.881731271331264
2.5544554455445545,5.003595846229232
2.5742574257425743,5.1207195284806035
2.594059405940594,5.2329742003928255
2.6138613861386135,5.340238062509339
2.633663366336634,5.442395538819036
2.6534653465346536,5.53933721286021
2.673267326732673,5.630959787684029
2.6930693069306932,5.717166064148054
2.712871287128713,5.797864933163099
2.7326732673267324,5.872971378406434
2.7524752475247527,5.942406486706535
2.7722772277227725,6.006097463847608
2.792079207920792,6.063977653971107
2.811881188118812,6.115986561093127
2.8316831683168315,6.162069871531385
2.8514851485148514,6.202179476257757
2.8712871287128716,6.23627349237484
2.891089108910891,6.264316283065275
2.910891089108911,6.286278475489071
2.9306930693069306,6.302136976211203
2.9504950495049505,6.311874983834741
2.9702970297029703,6.315481998596004
2.99009900990099,6.312953828752445
3.00990099009901,6.304292593661915
3.0297029702970297,6.289506723517036
3.0495049504950495,6.268610955762519
3.0693069306930694,6.241626328288014
3.089108910891089,6.208580169557099
3.108910891089109,6.169506085906155
3.128712871287129,6.124443946327803
3.148514851485148,6.073439865145383
3.1683168316831685,6.016546183090841
3.1881188118811883,5.953821447422801
3.2079207920792077,5.8853303918701965
3.227722772277228,5.811143917366069
3.2475247524752473,5.731339074755004
3.267326732673267,5.645999050927478
3.2871287128712874,5.555213160170141
3.3069306930693068,5.45907684294188
3.3267326732673266,5.35769167481789
3.346534653465347,5.251165389022253
3.366336633663366,5.139611916840633
3.386138613861386,5.023151451332473
3.4059405940594063,4.9019105412338835
3.4257425742574257,4.776022223879445
3.4455445544554455,4.645626208542458
3.4653465346534653,4.510869125038577
3.485148514851485,4.371904857097401
3.504950495049505,4.22889498637427
3.5247524752475248,4.082009381767914
3.5445544554455446,3.9314269809934412
3.564356435643564,3.777336828725081
3.5841584158415842,3.6199394604905653
3.603960396039604,3.45944875759506
3.6237623762376234,3.2960944515150787
3.6435643564356437,3.1301255357131663
3.6633663366336635,2.961814963696604
3.683168316831683,2.791466199082203
3.702970297029703,2.6194224777884973
3.722772277227723,2.446080114643415
3.7425742574257423,2.271907958257108
3.762376237623762,2.0974763812513864
3.7821782178217824,1.9235013592427723
3.801980198019802,1.7509128803703708
3.8217821782178216,1.5809631724564195
3.841584158415842,1.4154004154799043
3.8613861386138613,1.25674823799926
3.881188118811881,1.10874383140882
3.9009900990099013,0.9769610304980046
3.9207920792079207,0.869450431374413
3.9405940594059405,0.796613951208614
3.96039603960396,0.7687037342776294
3.98019801980198,0.7906177132330069
4.0,0.8584853828037101
4.01980198019802,0.9624197992317047
4.03960396039604,1.0918423485108677
4.0594059405940595,1.2383770662217322
4.079207920792079,1.3961751040789807
4.099009900990099,1.5613094209857246
4.118811881188119,1.7311335896557767
4.138613861386139,1.903820897150607
4.158415841584159,2.0780682739842713
4.178217821782178,2.2529120496486876
4.198019801980198,2.4276132926897116
4.217821782178218,2.601585488598008
4.237623762376238,2.7743480553912025
4.257425742574258,2.9454958490609404
4.2772277227722775,3.114678749483096
4.297029702970297,3.2815877299750817
4.316831683168317,3.445945181572298
4.336633663366336,3.6074980838959
4.356435643564357,3.766013115660529
4.376237623762377,3.9212731096002
4.3960396039603955,4.0730744541147335
4.415841584158416,4.221225171378442
4.435643564356436,4.3655434853093995
4.455445544554455,4.505856748622623
4.475247524752476,4.642000636024516
4.4950495049504955,4.773818536625061
4.514851485148514,4.901161096784133
4.534653465346535,5.023885877420083
4.554455445544555,5.141857098967296
4.574257425742574,5.2549454537919695
4.594059405940594,5.363027970715719
4.613861386138614,5.4659879198709485
4.633663366336633,5.5637147487763485
4.653465346534653,5.656104042526194
4.673267326732674,5.743057502508723
4.693069306930693,5.824482939233847
4.712871287128713,5.9002942757494985
4.732673267326733,5.970411558825053
4.752475247524752,6.034760975628533
4.772277227722772,6.093274874057465
4.792079207920793,6.145891785228189
4.811881188118812,6.192556446905578
4.8316831683168315,6.233219826879589
4.851485148514852,6.267839145478804
4.871287128712871,6.29637789656289
4.891089108910891,6.318805866463316
4.910891089108912,6.335099150449459
4.930693069306931,6.3452401663908615
4.9504950495049505,6.349217665368245
4.97029702970297,6.347026739060529
4.99009900990099,6.338668823803172
5.00990099009901,6.324151701278991
5.02970297029703,6.30348949586635
5.0495049504950495,6.276702668735217
5.069306930693069,6.243818008849143
5.089108910891089,6.204868621104866
5.108910891089109,6.159893911922248
5.128712871287129,6.108939572688743
5.148514851485149,6.052057561568968
5.1683168316831685,5.989306084313865
5.188118811881188,5.920749574852795
5.207920792079208,5.846458676630646
5.227722772277227,5.766510225870826
5.247524752475248,5.680987238214298
5.267326732673268,5.589978900519977
5.2871287128712865,5.4935805700318125
5.306930693069307,5.391893783649161
5.326732673267327,5.285026280713595
5.346534653465346,5.173092043594219
5.366336633663367,5.056211361478335
5.3861386138613865,4.9345109242416925
5.405940594059405,4.808123955203366
5.425742574257426,4.6771903941332384
5.445544554455446,4.541857145312917
5.465346534653465,4.4022784100931664
5.485148514851486,4.2586161297326335
5.504950495049505,4.111040573059051
5.524752475247524,3.9597311157219237
5.544554455445545,3.8048772750882973
5.564356435643565,3.6466800895746325
5.584158415841584,3.485353967111682
5.603960396039604,3.3211291803025973
5.623762376237624,3.1542552648739015
5.643564356435643,2.9850056981389987
5.663366336633663,2.813684419913561
5.683168316831684,2.6406350506795784
5.702970297029703,2.4662541306364276
5.7227722772277225,2.29101046927239
5.742574257425743,2.115473969017847
5.762376237623762,1.9403594375298199
5.782178217821782,1.7665945677519255
5.801980198019803,1.5954274790714296
5.821782178217822,1.4285993771588457
5.841584158415841,1.2686226283370494
5.861386138613861,1.1192177239289143
5.881188118811881,0.9859385684487049
5.900990099009901,0.8768278353217763
5.920792079207921,0.8023368997014975
5.9405940594059405,0.7728900179659368
5.96039603960396,0.7936575045069595
5.98019801980198,0.860961672210403
6.0,0.9649079014934601
6.01980198019802,1.0947875143258983
6.03960396039604,1.2420855183026058
6.0594059405940595,1.4008493400947106
6.079207920792079,1.5670835462002637
6.099009900990099,1.7380980513415705
6.118811881188119,1.9120380374971206
6.138613861386139,2.087581840042411
6.158415841584159,2.263753031055587
6.178217821782178,2.4398035673764786
6.198019801980198,2.615140150991027
6.217821782178218,2.7892769389524754
6.237623762376237,2.9618045456117104
6.257425742574258,3.1323693072003884
6.2772277227722775,3.3006591417542706
6.297029702970296,3.466393733848639
6.316831683168317,3.62931761086313
6.336633663366337,3.789195188295062
6.356435643564356,3.9458071791130678
6.376237623762377,4.098947963163879
6.396039603960396,4.248423642254729
6.415841584158415,4.3940505915643415
6.435643564356436,4.535654374744691
6.455445544554456,4.6730689284900055
6.475247524752475,4.806135948754392
6.495049504950495,4.9347044292005755
6.514851485148515,5.0586303154530325
6.534653465346534,5.177776248011711
6.554455445544554,5.292011373392791
6.574257425742575,5.401211207965566
6.594059405940594,5.505257542573775
6.6138613861386135,5.604038378727003
6.633663366336634,5.69744788917691
6.653465346534653,5.785386397232629
6.673267326732673,5.867760370347957
6.693069306930694,5.9444824244221035
6.712871287128713,6.015471335962631
6.732673267326732,6.080652059813237
6.752475247524753,6.139955750586978
6.772277227722772,6.193319786293779
6.792079207920792,6.240687792931236
6.811881188118813,6.282009669034221
6.8316831683168315,6.317241609364344
6.851485148514851,6.3463461270736605
6.871287128712871,6.3692920738051715
6.891089108910891,6.38605465730202
6.910891089108911,6.396615456190894
6.930693069306931,6.4009624316885
6.9504950495049505,6.399089936054313
6.97029702970297,6.390998717682052
6.99009900990099,6.376695922788023
7.00990099009901,6.356195093719108
7.02970297029703,6.329516163968371
7.0495049504950495,6.2966854500549365
7.069306930693069,6.257735640498074
7.089108910891089,6.212705782196942
7.108910891089109,6.1616412646192895
7.128712871287128,6.104593802308711
7.148514851485149,6.041621416344633
7.1683168316831685,5.972788415537964
7.188118811881187,5.898165378324605
7.207920792079208,5.817829136537843
7.227722772277228,5.731862762510583
7.247524752475247,5.640355561293414
7.267326732673268,5.543403070195268
7.287128712871287,5.4411070683846345
7.306930693069306,5.333575599966419
7.326732673267327,5.22092301481876
7.346534653465347,5.103270032598818
7.366336633663366,4.980743836794299
7.3861386138613865,4.853478207627915
7.405940594059406,4.7216137051845015
7.425742574257425,4.585297917561755
7.445544554455446,4.444685793485481
7.465346534653466,4.299940085167689
7.485148514851485,4.151231935934622
7.504950495049505,3.9987416593675444
7.524752475247524,3.842659773961524
7.544554455445544,3.683188382015821
7.564356435643565,3.5205430173199623
7.584158415841584,3.354955138975124
7.603960396039604,3.18667552758702
7.623762376237624,3.0159789599522533
7.643564356435643,2.8431707236958244
7.663366336633663,2.668595825047613
7.683168316831684,2.492652210773286
7.702970297029703,2.3158100896765625
7.7227722772277225,2.138640710678057
7.742574257425743,1.9618601026193847
7.762376237623762,1.786396944302653
7.782178217821782,1.613499957029203
7.801980198019803,1.4449104304317848
7.821782178217822,1.2831404447507986
7.841584158415841,1.131911264758757
7.861386138613862,0.9967845118690195
7.881188118811881,0.8858357917328605
7.900990099009901,0.8096153807675972
7.92079207920792,0.7787545863796452
7.9405940594059405,0.7986847412172822
7.96039603960396,0.8658655588879919
7.980198019801979,0.9703347816192363
8.0,1.1012149459280016
8.01980198019802,1.2498329145197036
8.03960396039604,1.4101238347216993
8.05940594059406,1.5780199234660206
8.07920792079208,1.7507853455901201
8.099009900990099,1.92653584895527
8.118811881188119,2.1039301753054236
8.138613861386139,2.281978298459215
8.158415841584159,2.459922307828516
8.178217821782178,2.637161418736274
8.198019801980198,2.813203860787763
8.217821782178218,2.987635368390493
8.237623762376238,3.160098119053823
8.257425742574258,3.330276380567294
8.277227722772277,3.497886554138538
8.297029702970297,3.6626701546553915
8.316831683168317,3.8243887898438453
8.336633663366337,3.9828205233984693
8.356435643564357,4.137757211725458
8.376237623762377,4.289002535745611
8.396039603960396,4.43637053562398
8.415841584158416,4.5796845138975755
8.435643564356436,4.718776211473807
8.455445544554456,4.853485187768246
8.475247524752476,4.9836583549165105
8.495049504950495,5.109149629167493
8.514851485148515,5.229819671974929
8.534653465346535,5.345535700103652
8.554455445544555,5.456171349033353
8.574257425742575,5.561606577607774
8.594059405940595,5.661727604608273
8.613861386138613,5.756426869984255
8.633663366336634,5.845603015031313
8.653465346534654,5.92916087699966
8.673267326732672,6.0070114945351945
8.693069306930694,6.079072121070365
8.712871287128714,6.145266243842203
8.732673267326732,6.205523606657437
8.752475247524753,6.259780234876867
8.772277227722773,6.307978461373956
8.792079207920791,6.350066952451707
8.811881188118813,6.38600073288916
8.831683168316832,6.415741209443738
8.85148514851485,6.439256192265136
8.871287128712872,6.456519913786649
8.891089108910892,6.467513044754593
8.91089108910891,6.47222270714023
8.930693069306932,6.4706424837538625
8.950495049504951,6.462772424450402
8.97029702970297,6.448619048881986
8.990099009900991,6.428195345818211
9.00990099009901,6.401520769120466
9.029702970297029,6.368621230525591
9.04950495049505,6.329529089468093
9.06930693069307,6.284283140252024
9.089108910891088,6.23292859697597
9.10891089108911,6.175517076721446
9.12871287128713,6.112106581640113
9.148514851485148,6.042761480724856
9.16831683168317,5.967552492229524
9.188118811881187,5.8865566679223065
9.207920792079207,5.799857380628319
9.227722772277229,5.707544316853902
9.247524752475247,5.609713476707063
9.267326732673267,5.5064671838622194
9.287128712871288,5.397914108996841
9.306930693069306,5.284169311000223
9.326732673267326,5.1653543013834415
9.346534653465348,5.041597138792723
9.366336633663366,4.913032562465682
9.386138613861386,4.779802176041617
9.405940594059407,4.642054696580088
9.425742574257425,4.499946288298169
9.445544554455445,4.353641006895306
9.465346534653467,4.2033113891132965
9.485148514851485,4.049139234434986
9.504950495049505,3.8913166431449593
9.524752475247526,3.7300473997650774
9.544554455445544,3.56554882684641
9.564356435643564,3.3980542870497232
9.584158415841586,3.2278165906082648
9.603960396039604,3.05511268556508
9.623762376237623,2.8802501941743155
9.643564356435645,2.703576651683414
9.663366336633663,2.5254927734344945
9.683168316831683,2.346471844040563
9.702970297029704,2.1670886004553833
9.722772277227723,1.9880631418479675
9.742574257425742,1.8103290899546107
9.762376237623764,1.6351415086473189
9.782178217821782,1.4642504541950265
9.801980198019802,1.300181330572107
9.821782178217823,1.146677981631418
9.841584158415841,1.0093444054512362
9.861386138613861,0.8963404132584
9.881188118811881,0.8183765653422436
9.900990099009901,0.7863311344899598
9.92079207920792,0.8058720792348711
9.94059405940594,0.8735151485134693
9.96039603960396,0.9791512439624216
9.98019801980198,1.111690135995753
10.0,1.2622838579392055
10.01980198019802,1.42475077309315
10.03960396039604,1.594950170756847
10.05940594059406,1.7701007474112638
10.07920792079208,1.9482890619178528
10.099009900990099,2.1281542909895954
10.118811881188119,2.3086926386120243
10.138613861386139,2.489136008080088
10.158415841584159,2.6688757099968874
10.178217821782178,2.847413564294486
10.198019801980198,3.024329903327105
10.217821782178218,3.1992622002703035
10.237623762376238,3.3718905145778626
10.257425742574258,3.541927400999166
10.277227722772277,3.709110798986645
10.297029702970297,3.8731989493154932
10.316831683168317,4.033966713596373
10.336633663366337,4.191202880286492
10.356435643564357,4.344708174691831
10.376237623762377,4.494293778186064
10.396039603960396,4.639780220323109
10.415841584158416,4.780996547075876
10.435643564356436,4.917779695600159
10.455445544554454,5.049974024839761
10.475247524752476,5.177430964633592
10.495049504950495,5.300008755515933
10.514851485148514,5.417572258285181
10.534653465346535,5.529992817443703
10.554455445544555,5.637148166320747
10.574257425742573,5.738922364453008
10.594059405940595,5.835205759875474
10.613861386138614,5.925894970550439
10.633663366336632,6.0108928803684245
10.653465346534654,6.090108646084061
10.673267326732674,6.163457712272864
10.693069306930692,6.2308618319610245
10.712871287128714,6.292249091027383
10.732673267326733,6.347553934832946
10.752475247524751,6.396717195818793
10.772277227722773,6.439686121044806
10.792079207920793,6.476414398830615
10.81188118811881,6.506862183816861
10.831683168316832,6.530996119895439
