Frequency (Hz),Amplitude
0.0,5.150970648286336
0.019823788546255508,5.148526580118842
0.039647577092511016,5.14119706672692
0.059471365638766524,5.128990181697655
0.07929515418502203,5.111919381919472
0.09911894273127755,5.090003509154384
0.11894273127753305,5.063266792660472
0.13876651982378857,5.0317388533019445
0.15859030837004406,4.9954547097338535
0.17841409691629956,4.954454787416712
0.1982378854625551,4.908784931411731
0.2180616740088106,4.8584964241356285
0.2378854625550661,4.803646009525969
0.25770925110132165,4.7442959253942165
0.27753303964757714,4.6805139461414145
0.29735682819383263,4.61237343849592
0.31718061674008813,4.539953433533946
0.3370044052863437,4.463338718987464
0.3568281938325991,4.3826199567782735
0.37665198237885467,4.297893831891189
0.3964757709251102,4.2092632401894
0.41629955947136565,4.1168375246754465
0.4361233480176212,4.020732772141399
0.4559471365638767,3.921072185306101
0.4757709251101322,3.8179865496404046
0.49559471365638774,3.711614819455913
0.5154185022026433,3.602104854921023
0.5352422907488987,3.4896143510813276
0.5550660792951543,3.3743120125513464
0.5748898678414097,3.2563790445006284
0.5947136563876653,3.1360110535529055
0.6145374449339208,3.0134204836100102
0.6343612334801763,2.888839754731154
0.6541850220264318,2.762525332734223
0.6740088105726874,2.634763039697039
0.6938325991189428,2.5058750300558645
0.7136563876651982,2.3762290155713996
0.7334801762114539,2.2462505401389943
0.7533039647577093,2.1164393986130228
0.7731277533039648,1.987391673486173
0.7929515418502204,1.859829316327715
0.8127753303964759,1.7346396434372395
0.8325991189427313,1.612927285263658
0.8524229074889869,1.4960803617490288
0.8722466960352424,1.3858494721988854
0.8920704845814978,1.284429649854758
0.9118942731277534,1.194517517730881
0.931718061674009,1.119285835055061
0.9515418502202644,1.062185156215901
0.9713656387665199,1.0264882454411268
0.9911894273127755,1.0146045478290853
1.0110132158590308,1.0274097659682344
1.0308370044052866,1.0639667622414843
1.0506607929515421,1.1218239871372362
1.0704845814977975,1.197692858503771
1.090308370044053,1.288127801991655
1.1101321585903086,1.3899719768598484
1.1299559471365639,1.5005477063785164
1.1497797356828194,1.617677603099925
1.1696035242290752,1.739625783194814
1.1894273127753305,1.8650157232920932
1.209251101321586,1.9927516661331326
1.2290748898678416,2.121952985943167
1.248898678414097,2.2519027433487016
1.2687224669603525,2.382008602390389
1.288546255506608,2.511773567236948
1.3083700440528636,2.64077418382086
1.3281938325991192,2.768644297204743
1.3480176211453747,2.8950629064810607
1.36784140969163,3.0197450353946094
1.3876651982378856,3.14243482698644
1.4074889867841411,3.2629002857758747
1.4273127753303965,3.380929247690669
1.4471365638766522,3.496326271100515
1.4669603524229078,3.608910223831454
1.4867841409691631,3.7185123998682386
1.5066079295154187,3.8249750420664066
1.5264317180616742,3.928150178228848
1.5462555066079295,4.027898700638802
1.5660792951541853,4.124089635911038
1.5859030837004409,4.216599564477914
1.6057268722466962,4.305312158341627
1.6255506607929517,4.390117812739978
1.6453744493392073,4.470913352693796
1.6651982378854626,4.54760179946766
1.6850220264317182,4.6200921850997085
1.7048458149779737,4.688299405573932
1.7246696035242293,4.752144105091941
1.7444933920704848,4.811552585377492
1.7643171806167404,4.866456735112336
1.7841409691629957,4.9167939755267875
1.8039647577092512,4.962507218908116
1.8237885462555068,5.003544837384381
1.8436123348017623,5.039860639824096
1.863436123348018,5.07141385508538
1.8832599118942732,5.098169120173057
1.9030837004405288,5.120096472131804
1.9229074889867843,5.137171342730784
1.9427312775330399,5.149374555188676
1.9625550660792954,5.156692322356198
1.982378854625551,5.159116245921282
2.002202643171806,5.15664331633671
2.0220264317180616,5.14927591329402
2.041850220264317,5.1370218066865965
2.061674008810573,5.119894158121962
2.0814977973568287,5.0979115231623915
2.1013215859030843,5.0710978545976975
2.1211453744493394,5.039482507189107
2.140969162995595,5.0031002444721295
2.1607929515418505,4.961991248375879
2.180616740088106,4.916201132611312
2.2004405286343616,4.86578096101029
2.220264317180617,4.8107872722700025
2.2400881057268722,4.7512821128850575
2.2599118942731278,4.68733308044829
2.2797356828193833,4.619013379989122
2.299559471365639,4.546401896621197
2.319383259911895,4.469583288520333
2.3392070484581504,4.388648105192155
2.3590308370044055,4.303692937171189
2.378854625550661,4.21482060479262
2.3986784140969166,4.122140395592059
2.418502202643172,4.025768362347819
2.4383259911894277,3.925827696959683
2.4581497797356833,3.8224491994977234
2.4779735682819384,3.7157718671797553
2.497797356828194,3.6059436351955547
2.5176211453744495,3.4931223108112968
2.537444933920705,3.3774767549231677
2.5572687224669606,3.2591883823973316
2.577092511013216,3.138453075836778
2.5969162995594717,3.015483639263079
2.6167400881057272,2.8905129619925853
2.6365638766519828,2.763798123527952
2.6563876651982383,2.6356257543078048
2.676211453744494,2.5063190839579432
2.6960352422907494,2.3762472707096953
2.715859030837005,2.2458378285564042
2.73568281938326,2.1155932696570674
2.7555066079295156,1.9861134704016041
2.775330396475771,1.8581257380257625
2.7951541850220267,1.7325250158629628
2.8149779735682823,1.6104268509274169
2.834801762114538,1.493234971448942
2.854625550660793,1.3827220505081015
2.874449339207049,1.2811135082647396
2.8942731277533045,1.191145623132719
2.91409691629956,1.1160380332118416
2.9339207048458156,1.0592872557873718
2.953744493392071,1.024195225248626
2.9735682819383262,1.013165155927797
2.993392070484582,1.0270232101672232
3.0132158590308373,1.0647528461881048
3.033039647577093,1.1238208217940238
3.0528634361233484,1.2008769821728966
3.072687224669604,1.292440963913726
3.092511013215859,1.3953428264703929
3.1123348017621146,1.5069050099203574
3.1321585903083706,1.6249565466562326
3.151982378854626,1.747770031120827
3.1718061674008817,1.8739773216323838
3.1916299559471373,2.002490048231789
3.2114537444933924,2.132433728334496
3.231277533039648,2.2630963644207744
3.2511013215859035,2.3938895131644773
3.270925110132159,2.524319198017748
3.2907488986784146,2.6539642748070302
3.31057268722467,2.7824603292202497
3.3303964757709252,2.9094876465009865
3.350220264317181,3.034762174116292
3.3700440528634363,3.1580286894425273
3.389867841409692,3.27905559968421
3.4096916299559474,3.3976309574492247
3.4295154185022034,3.5135593879663674
3.4493392070484585,3.626659704912146
3.469162995594714,3.736763050185551
3.4889867841409696,3.8437114352161994
3.508810572687225,3.9473565921359834
3.5286343612334807,4.047559065657813
3.5484581497797363,4.144187493104118
3.5682819383259914,4.237118032351005
3.588105726872247,4.326233906668613
3.6079295154185025,4.411425042377314
3.627753303964758,4.492587780500797
3.6475770925110136,4.569624647615436
3.667400881057269,4.642444174184148
3.6872246696035247,4.71096075105282
3.7070484581497802,4.775094516650148
3.726872246696036,4.834771268890852
3.7466960352422913,4.889922396934298
3.7665198237885464,4.940484828865198
3.7863436123348024,4.986400992094068
3.8061674008810575,5.027618783863378
3.8259911894273135,5.064091549722259
3.8458149779735686,5.095778068222051
3.8656387665198246,5.122642540406038
3.8854625550660797,5.144654582933461
3.905286343612335,5.161789223902936
3.925110132158591,5.174026900632061
3.9449339207048464,5.181353458816295
3.964757709251102,5.183760152637414
3.9845814977973575,5.181243645524535
4.004405286343612,5.1738060113945625
4.024229074889869,5.161454736316981
4.044052863436123,5.144202720663825
4.06387665198238,5.122068281924777
4.083700440528634,5.095075158491303
4.103524229074891,5.063252514848067
4.123348017621146,5.026634948759184
4.143171806167401,4.985262501205015
4.162995594713657,4.9391806700212975
4.182819383259912,4.888440428420421
4.2026431718061685,4.833098249848199
4.222466960352423,4.773216140957072
4.242290748898679,4.708861684875859
4.262114537444934,4.640108097444879
4.28193832599119,4.567034299689249
4.301762114537445,4.489725010555113
4.321585903083701,4.408270864874357
4.3414096916299565,4.3227685627113175
4.361233480176212,4.2333210577508416
4.381057268722468,4.1400377943124695
4.400881057268723,4.043035005049192
4.420704845814979,3.9424360845924182
4.440528634361234,3.838372058576694
4.46035242290749,3.730982172952842
4.4801762114537445,3.620414635729687
4.500000000000001,3.506827552908957
4.5198237885462555,3.390390113274619
4.539647577092512,3.271284094110148
4.559471365638767,3.1497057835898294
4.579295154185023,3.0258684480003755
4.599118942731278,2.9000055166075303
4.618942731277533,2.772374718864648
4.63876651982379,2.6432634947752156
4.658590308370044,2.5129961193064156
4.678414096916301,2.381943148950409
4.6982378854625555,2.2505340296063503
4.718061674008811,2.119274018734325
4.737885462555067,1.988766985546702
4.757709251101322,1.8597461514114155
4.777533039647578,1.733115336021493
4.797356828193833,1.6100035116474973
4.817180616740089,1.4918347294531094
4.837004405286344,1.3804121601645476
4.856828193832599,1.2780059399891956
4.876651982378855,1.1874149587661424
4.896475770925111,1.1119395317959484
4.9162995594713665,1.0551659368792001
4.936123348017622,1.0204716268485345
4.955947136563877,1.010287614070866
4.975770925110133,1.0253969125432425
4.995594713656388,1.0646784393673991
5.015418502202644,1.1254719013423584
5.035242290748899,1.2043170785468422
5.055066079295155,1.2976589450737657
5.07488986784141,1.4022867257189564
5.094713656387666,1.5155057996678845
5.114537444933921,1.6351418944181373
5.134361233480177,1.7594710326816272
5.154185022026432,1.8871311175432552
5.174008810572688,2.017040308654618
5.193832599118943,2.148330162073365
5.213656387665199,2.2802938621895796
5.2334801762114544,2.4123472218404927
5.25330396475771,2.5439996564612013
5.2731277533039655,2.6748326587389126
5.292951541850221,2.8044838135847643
5.312775330396477,2.9326348769918433
5.332599118942731,3.0590028336569173
5.352422907488988,3.1833331445263355
5.372246696035242,3.305394612700702
5.392070484581499,3.4249754530514
5.4118942731277535,3.5418802635422892
5.43171806167401,3.6559276770471327
5.451541850220265,3.7669485305568418
5.47136563876652,3.874784430646064
5.491189427312777,3.979286624568313
5.511013215859031,4.080315108656405
5.530837004405288,4.17773792213468
5.550660792951542,4.2714305866364946
5.570484581497798,4.361275660826952
5.5903083700440535,4.4471623863838
5.610132158590309,4.5289864067836465
5.6299559471365646,4.606649544305082
5.64977973568282,4.680059623706762
5.669603524229076,4.749130333395643
5.689427312775331,4.81378111673579
5.709251101321586,4.8739370875871035
5.729074889867842,4.929528965297829
5.748898678414098,4.980493025276262
5.768722466960353,5.0267710619868025
5.788546255506609,5.068310361795362
5.808370044052864,5.105063683558571
5.82819383259912,5.13698924523499
5.848017621145375,5.164050715112674
5.867841409691631,5.186217206510504
5.887665198237886,5.203463275031974
5.907488986784142,5.21576891763979
5.927312775330397,5.223119572982618
5.9471365638766525,5.225506122551557
5.966960352422908,5.222924892374271
5.986784140969164,5.215377655077527
6.00660792951542,5.202871632264904
6.026431718061675,5.185419497272353
6.04625550660793,5.16303937848117
6.066079295154186,5.135754863491501
6.085903083700441,5.1035950045928855
6.105726872246697,5.0665943261162285
6.125550660792952,5.024792834419663
6.145374449339208,4.978236031454878
6.1651982378854635,4.926974933088704
6.185022026431718,4.871066093626666
6.204845814977975,4.810571638312318
6.224669603524229,4.745559305974556
6.244493392070486,4.676102504483387
6.264317180616741,4.60228038227855
6.284140969162996,4.524177919987205
6.303964757709252,4.441886047089716
6.323788546255507,4.35550178978217
6.3436123348017635,4.265128457695667
6.363436123348018,4.170875879064799
6.3832599118942746,4.0728606964249385
6.403083700440529,3.971206738140647
6.422907488986785,3.86604548527189
6.44273127753304,3.7575166588080022
6.462555066079296,3.645768959608127
6.482378854625551,3.530961003127213
6.502202643171807,3.413262504086265
6.5220264317180625,3.292855783938089
6.541850220264318,3.16993769809075
6.561674008810574,3.0447221129471913
6.581497797356829,2.917443108556559
6.601321585903085,2.7883591462660613
6.62114537444934,2.6577585296060677
6.640969162995596,2.5259666111050536
6.6607929515418505,2.393355371994175
6.680616740088107,2.2603562442569713
6.700440528634362,2.1274773766910093
6.720264317180618,1.9953269869371864
6.740088105726873,1.8646449859083734
6.759911894273129,1.7363456329647782
6.779735682819384,1.6115743084208913
6.799559471365639,1.4917808425171157
6.819383259911895,1.3788085118381983
6.83920704845815,1.2749883851325718
6.859030837004407,1.1832078134103103
6.8788546255506615,1.106885615830808
6.898678414096917,1.0497462202396697
6.918502202643173,1.0152922259478074
6.938325991189428,1.0060156493252814
6.958149779735684,1.0226564448215936
6.977973568281939,1.063954315912292
6.997797356828195,1.1270681615465
7.01762114537445,1.208374671083687
7.037444933920705,1.3042034182635986
7.0572687224669615,1.4112762717568437
7.077092511013216,1.5268662547770102
7.096916299559473,1.6487878607905673
7.116740088105728,1.7753169349899203
7.136563876651983,1.9050961597558103
7.156387665198239,2.037050129215323
7.176211453744494,2.1703168644502893
7.19603524229075,2.304195336994253
7.215859030837005,2.4381062284663124
7.235682819383261,2.571562887426345
7.255506607929516,2.704149882848587
7.275330396475772,2.8355071309326116
7.295154185022027,2.9653180891816753
7.314977973568283,3.0933009199528665
7.334801762114538,3.219201830284351
7.354625550660794,3.3427900159580037
7.374449339207049,3.46385379632667
7.394273127753305,3.5821976396393937
7.4140969162995605,3.697639859454844
7.433920704845816,3.8100108206816796
7.453744493392072,3.919151535532131
7.473568281938327,4.0249125599401125
7.493392070484583,4.127153123090056
7.513215859030838,4.225740438947255
7.533039647577093,4.320549160717836
7.552863436123348,4.411460948146256
7.572687224669605,4.4983641243130625
7.59251101321586,4.581153403708242
7.612334801762115,4.65972967725647
7.6321585903083715,4.733999842965861
7.651982378854627,4.803876673187437
7.671806167400882,4.869278711275862
7.691629955947137,4.930130191853753
7.711453744493394,4.986360979996435
7.731277533039649,5.037906525537234
7.751101321585904,5.084707829400628
7.7709251101321595,5.126711419438299
7.790748898678416,5.163869333703875
7.81057268722467,5.196139109478593
7.830396475770926,5.223483776669477
7.850220264317182,5.2458718544602645
7.870044052863436,5.26327735031209
7.889867841409693,5.2756797605963435
7.909691629955948,5.283064072303652
7.929515418502204,5.285420765414658
7.9493392070484585,5.282745815647919
7.969162995594715,5.275040697419933
7.9889867841409705,5.262312386967432
8.008810572687224,5.244573365695641
8.02863436123348,5.221841623931859
8.048458149779737,5.194140665385879
8.068281938325994,5.161499512750378
8.088105726872246,5.123952715021261
8.107929515418503,5.0815403572840525
8.12775330396476,5.034308073905513
8.147577092511014,4.982307066295943
8.167400881057269,4.925594126677924
8.187224669603525,4.864231669622989
8.207048458149782,4.798287773513808
8.226872246696036,4.727836234576544
8.246696035242293,4.6529566367301785
8.266519823788547,4.573734441250109
8.286343612334802,4.490261101185991
8.306167400881058,4.402634206663337
8.325991189427315,4.3109576687128985
8.345814977973568,4.215341951209558
8.365638766519824,4.115904363000077
8.38546255506608,4.012769425540724
8.405286343612337,3.906069335600463
8.42511013215859,3.795944548159839
8.444933920704846,3.68254451202456
8.464757709251103,3.566028600542871
8.484581497797357,3.446567293099693
8.504405286343614,3.3243436810771625
8.524229074889869,3.199555396597831
8.544052863436125,3.072417096282115
8.56387665198238,2.9431636793025175
8.583700440528636,2.81205448472241
8.60352422907489,2.679378805372499
8.623348017621145,2.5454631855562115
8.643171806167402,2.410681153266332
8.662995594713658,2.275466295092674
8.682819383259913,2.140329938856723
8.702643171806168,2.0058851895153995
8.722466960352424,1.8728796727719779
8.74229074889868,1.7422400117769012
8.762114537444935,1.6151315296994568
8.78193832599119,1.493036179290782
8.801762114537446,1.3778484236702078
8.821585903083701,1.2719789355995865
8.841409691629957,1.1784333294534943
8.861233480176212,1.1007925462571657
8.881057268722468,1.042974546191853
8.900881057268723,1.0086622199461204
8.92070484581498,1.0004415129795732
8.940528634361234,1.0190009510613316
8.960352422907489,1.0628929108302165
8.980176211453745,1.1290298084996415
9.000000000000002,1.2135658135832046
9.019823788546258,1.3126731076643767
9.039647577092511,1.4229812634019008
9.059471365638768,1.5417181041728785
9.079295154185024,1.6666812670381446
9.099118942731279,1.7961446416575224
9.118942731277533,1.9287557593042253
9.13876651982379,2.063446488011447
9.158590308370046,2.1993623790640195
9.1784140969163,2.3358092263114054
9.198237885462555,2.472213478229815
9.218061674008812,2.6080931439350703
9.237885462555067,2.7430364264019405
9.257709251101323,2.876685976712318
9.27753303964758,3.0087272238778375
9.297356828193834,3.138879665182938
9.317180616740089,3.2668903175186843
9.337004405286345,3.392528756495786
9.356828193832602,3.5155833309555735
9.376651982378855,3.6358582545335776
9.396475770925111,3.7531713569422096
9.416299559471367,3.8673523354483024
9.436123348017622,3.9782413885205257
9.455947136563877,4.085688143618559
9.475770925110133,4.189550812940305
9.49559471365639,4.289695526972234
9.515418502202644,4.3859958075410574
9.5352422907489,4.478332150897726
9.555066079295155,4.566591697996567
9.57488986784141,4.650667974148812
9.594713656387666,4.730460684052143
9.614537444933923,4.805875551130521
9.634361233480178,4.876824192384702
9.654185022026432,4.9432240217163494
9.674008810572689,5.004998176068899
9.693832599118945,5.062075459816118
9.713656387665198,5.114390303692522
9.733480176211454,5.161882735249093
9.75330396475771,5.2044983583724616
9.773127753303967,5.242188339854641
9.792951541850222,5.274909401367667
9.812775330396477,5.302623815499546
9.832599118942733,5.325299404759646
9.852422907488988,5.342909542673594
9.872246696035244,5.355433156268684
9.892070484581499,5.362854729407997
9.911894273127754,5.365164306570625
9.93171806167401,5.36235749680163
9.951541850220266,5.354435477672917
9.971365638766521,5.341404999208646
9.991189427312776,5.323278387840692
10.011013215859032,5.300073550573101
10.030837004405289,5.271813979654606
10.050660792951543,5.238528758188441
10.070484581497798,5.200252567252983
10.090308370044054,5.1570256952715905
10.11013215859031,5.108894050560321
10.129955947136565,5.0559091782067815
10.14977973568282,4.998128282701252
10.169603524229077,4.935614258064053
10.189427312775331,4.868435727607216
10.209251101321588,4.79666709595242
10.229074889867842,4.720388616526626
10.248898678414099,4.639686478505248
10.268722466960353,4.554652918112489
10.28854625550661,4.465386360378134
10.308370044052865,4.371991598964477
10.32819383259912,4.2745800236190865
10.348017621145376,4.173269907316367
10.367841409691632,4.068186768409397
10.387665198237887,3.959463827380686
10.407488986784141,3.8472425834072608
10.427312775330398,3.7316735434330472
10.447136563876654,3.6129171464550858
10.466960352422909,3.4911449392450753
10.486784140969164,3.3665410781182232
10.50660792951542,3.239304256587073
10.526431718061675,3.109650193621665
10.546255506607931,2.9778148658538712
10.566079295154186,2.8440587353177404
10.585903083700442,2.708672320755084
10.605726872246697,2.5719835974257665
10.625550660792953,2.4343679051417824
10.645374449339208,2.29626132069119
10.665198237885463,2.158178839248408
10.685022026431719,2.0207392422406096
10.704845814977975,1.884699223588138
10.724669603524232,1.7510001521227156
10.744493392070485,1.6208315123959516
10.764317180616741,1.4957148125250246
