Frequency (Hz),Amplitude
0.0,5.698515161418171
0.01993355481727575,5.695903730716696
0.0398671096345515,5.6880725489811015
0.059800664451827246,5.675030949581114
0.079734219269103,5.6567944957757685
0.09966777408637874,5.633384992527295
0.11960132890365449,5.604830503750792
0.13953488372093023,5.571165375735135
0.159468438538206,5.532430267719217
0.17940199335548174,5.488672190885778
0.19933554817275748,5.439944557354451
0.21926910299003324,5.386307241125671
0.23920265780730898,5.327826653362933
0.25913621262458475,5.264575834918785
0.27906976744186046,5.196634569630705
0.29900332225913623,5.124089522663537
0.318936877076412,5.047034409087873
0.3388704318936877,4.96557019900025
0.3588039867109635,4.8798053668649795
0.37873754152823924,4.789856194455321
0.39867109634551495,4.695847138881074
0.4186046511627907,4.597911279820345
0.4385382059800665,4.496190863368797
0.4584717607973422,4.390837964063401
0.47840531561461797,4.2820152918663545
0.49833887043189373,4.169897177514031
0.5182724252491695,4.054670778036511
0.5382059800664452,3.9365375549365256
0.5581395348837209,3.8157150911150515
0.5780730897009968,3.692439329933673
0.5980066445182725,3.5669673417684846
0.6179401993355482,3.4395807511505025
0.637873754152824,3.3105899922963165
0.6578073089700996,3.180339603577533
0.6777408637873754,3.0492148227371003
0.6976744186046512,2.9176498033676763
0.717607973421927,2.786137834843167
0.7375415282392027,2.655244001157758
0.7574750830564785,2.525620734427623
0.7774086378737541,2.398026657748707
0.7973421926910299,2.2733488804864934
0.8172757475083057,2.152628353305935
0.8372093023255814,2.0370867678924545
0.8571428571428572,1.9281514647063889
0.877076411960133,1.8274715538758395
0.8970099667774087,1.7369139171534387
0.9169435215946844,1.6585228712460265
0.9368770764119602,1.5944249507248764
0.9568106312292359,1.5466659416195558
0.9767441860465116,1.5169867554141816
0.9966777408637875,1.5065772416065886
1.0166112956810631,1.5158773570463564
1.036544850498339,1.5444972778061228
1.0564784053156147,1.5912885626458715
1.0764119601328903,1.6545376581484497
1.0963455149501662,1.7322113723549748
1.1162790697674418,1.8221837353443435
1.1362126245847177,1.9224030524358884
1.1561461794019936,2.030990918030401
1.176079734219269,2.146285323138675
1.196013289036545,2.2668463423824443
1.2159468438538206,2.3914408675302794
1.2358803986710964,2.5190180152113393
1.255813953488372,2.6486822395907614
1.275747508305648,2.779667843114867
1.2956810631229239,2.91131649225852
1.3156146179401993,3.0430581795343254
1.3355481727574752,3.174395491296492
1.3554817275747508,3.3048907949683177
1.3754152823920267,3.434155891032182
1.3953488372093024,3.5618436921598815
1.4152823920265782,3.687641543953378
1.435215946843854,3.811265863296636
1.4551495016611296,3.932457829332456
1.4750830564784054,4.050979913799963
1.495016611295681,4.166613080691529
1.514950166112957,4.279154520329246
1.5348837209302328,4.388415811069231
1.5548172757475083,4.49422142410728
1.5747508305647842,4.596407504404257
1.5946843853820598,4.6948208745385775
1.6146179401993357,4.789318219126903
1.6345514950166113,4.879765415972315
1.6544850498338872,4.966036986809922
1.6744186046511629,5.048015645820358
1.6943521594684385,5.125591928281409
1.7142857142857144,5.198663885067017
1.73421926910299,5.267136831368509
1.754152823920266,5.330923140148897
1.7740863787375416,5.389942072560722
1.7940199335548175,5.444119638948519
1.8139534883720931,5.493388485187128
1.8338870431893688,5.5376878000304215
1.8538205980066447,5.5769632399040905
1.8737541528239203,5.6111668682038
1.893687707641196,5.640257106683565
1.9136212624584719,5.66419869695917
1.9335548172757475,5.682962670525517
1.9534883720930232,5.696526326008532
1.9734219269102993,5.704873212653244
1.993355481727575,5.707993119299743
2.0132890365448506,5.705882068325386
2.0332225913621262,5.698542314243174
2.0531561461794023,5.685982346847865
2.073089700996678,5.668216899000099
2.0930232558139537,5.645266959340363
2.1129568106312293,5.617159790434512
2.132890365448505,5.583928953078102
2.1528239202657806,5.545614337734168
2.1727574750830567,5.502262204357359
2.1926910299003324,5.45392523217452
2.212624584717608,5.400662581361287
2.2325581395348837,5.342539968987117
2.25249169435216,5.279629762116656
2.2724252491694354,5.212011091572395
2.292358803986711,5.139769990609149
2.312292358803987,5.062999563657404
2.332225913621263,4.9818001914011205
2.352159468438538,4.896279779818773
2.3720930232558137,4.806554062501034
2.39202657807309,4.712746967649725
2.4119601328903655,4.6149910637703355
2.431893687707641,4.513428101335733
2.4518272425249172,4.40820967180193
2.471760797342193,4.299498010533755
2.4916943521594686,4.187466976747386
2.511627906976744,4.072303251886944
2.5315614617940203,3.954207808414454
2.551495016611296,3.8333977144329143
2.5714285714285716,3.7101083566566913
2.5913621262458477,3.584596185937431
2.611295681063123,3.457142116945633
2.6312292358803986,3.328055747878159
2.6511627906976742,3.197680608273714
2.6710963455149503,3.0664006936692667
2.691029900332226,2.9346486039255355
2.7109634551495017,2.802915663295157
2.7308970099667778,2.6717644537249625
2.7508305647840534,2.5418442147423237
2.770764119601329,2.4139095067221796
2.7906976744186047,2.2888423129179367
2.810631229235881,2.1676772202314027
2.8305647840531565,2.0516282331338993
2.850498338870432,1.9421138131559397
2.870431893687708,1.8407735604106588
2.8903654485049834,1.7494654983625308
2.910299003322259,1.6702280435122603
2.9302325581395348,1.605188210013313
2.950166112956811,1.5564026849953925
2.9700996677740865,1.5256369484459407
2.990033222591362,1.514119428366321
3.0099667774086383,1.5223385271194618
3.029900332225914,1.549954658885693
3.0498338870431896,1.5958624118341234
3.0697674418604657,1.6583777404935105
3.089700996677741,1.735481641748683
3.1096345514950166,1.8250490736166725
3.129568106312292,1.9250199519016893
3.1495016611295683,2.0335021928573958
3.169435215946844,2.1488179738545594
3.1893687707641196,2.2695114808275543
3.2093023255813957,2.3943347838177154
3.2292358803986714,2.522223751227584
3.249169435215947,2.6522712850629833
3.2691029900332227,2.7837017496566943
3.289036544850499,2.9158483133239197
3.3089700996677744,3.0481337082281366
3.32890365448505,3.1800543010291924
3.3488372093023258,3.3111671028057277
3.3687707641196014,3.4410792685271603
3.388704318936877,3.5694396483795905
3.4086378737541527,3.6959320030952787
3.428571428571429,3.8202695561889883
3.4485049833887045,3.942190614971202
3.46843853820598,4.061455044210527
3.4883720930232562,4.177841419936646
3.508305647840532,4.291144726423959
3.5282392026578075,4.401174487876297
3.548172757475083,4.507753248919603
3.5681063122923593,4.6107153358207285
3.588039867109635,4.709905844358296
3.60797342192691,4.805179811280546
3.6279069767441863,4.896401534944081
3.647840531561462,4.983444017550217
3.6677740863787376,5.066188506785226
3.6877076411960132,5.144524118941348
3.7076411960132893,5.218347528990966
3.727574750830565,5.287562715796751
3.7475083056478407,5.352080752812523
3.7674418604651168,5.411819636377908
3.787375415282392,5.46670414512355
3.807308970099668,5.516665725152369
3.8272425249169437,5.561642396600855
3.8471760797342194,5.6015786779553824
3.867109634551495,5.636425525136489
3.887043189368771,5.666140282895461
3.9069767441860463,5.690686646514386
3.9269102990033224,5.710034632180357
3.9468438538205985,5.7241605547307675
3.9667774086378738,5.733047011751631
3.98671096345515,5.736682873263886
4.0066445182724255,5.735063276462347
4.026578073089701,5.728189625185419
4.046511627906977,5.716069593997651
4.0664451827242525,5.698717136967423
4.086378737541528,5.676152501425055
4.106312292358805,5.64840224719794
4.1262458471760795,5.615499272045699
4.146179401993356,5.577482844267017
4.166112956810632,5.534398643728413
4.186046511627907,5.486298812883652
4.205980066445183,5.4332420197218045
4.225913621262459,5.375293535015607
4.245847176079734,5.312525326756945
4.26578073089701,5.24501617528309
4.2857142857142865,5.172851813342119
4.305647840531561,5.0961250962509
4.325581395348838,5.014936208405279
4.345514950166113,4.929392913761668
4.365448504983389,4.839610859588421
4.385382059800665,4.745713944868917
4.40531561461794,4.647834767334901
4.425249169435216,4.546115166357708
4.445182724252492,4.440706883006452
4.465116279069767,4.331772363727014
4.485049833887043,4.2194857406010575
4.50498338870432,4.104034029391964
4.524916943521594,3.9856185970605096
4.544850498338871,3.8644569637522914
4.5647840531561465,3.740785021186017
4.584717607973422,3.6148597708342676
4.604651162790698,3.486962712363528
4.624584717607974,3.357404046642346
4.644518272425249,3.2265278992711917
4.664451827242526,3.094718820510541
4.6843853820598005,2.962409874695178
4.704318936877076,2.830092692500357
4.724252491694353,2.698329912020697
4.7441860465116275,2.5677704563567745
4.764119601328904,2.439168040607506
4.78405315614618,2.313403085704417
4.803986710963455,2.1915076954015698
4.823920265780731,2.074692296358785
4.8438538205980075,1.9643706317481933
4.863787375415282,1.8621767041997148
4.883720930232559,1.7699629074165635
4.9036544850498345,1.6897637657608648
4.92358803986711,1.6237070563081883
4.943521594684386,1.573858701081867
4.963455149501661,1.5420054685540638
4.983388704318937,1.5294104624969147
5.003322259136213,1.5366073316010116
5.023255813953488,1.5633052247869927
5.043189368770764,1.6084420613927122
5.063122923588041,1.6703646639858387
5.083056478405315,1.7470695705371948
5.102990033222592,1.8364331926078516
5.122923588039868,1.9363864242338855
5.142857142857143,2.045021792651189
5.162790697674419,2.1606431619487654
5.182724252491695,2.2817758713419747
5.20265780730897,2.4071540314285573
5.222591362126246,2.5356971431412147
5.242524916943522,2.666483578516707
5.262458471760797,2.798724992819238
5.282392026578074,2.931743518435894
5.3023255813953485,3.064952324719502
5.322259136212625,3.197839479957426
5.342192691029901,3.3299547657429005
5.362126245847176,3.4608990032122073
5.382059800664452,3.5903154558293013
5.4019933554817285,3.7178829198485057
5.421926910299003,3.843310172861343
5.44186046511628,3.966331509344995
5.4617940199335555,4.086703144187122
5.48172757475083,4.204200309062246
5.501661129568107,4.318614902442434
5.5215946843853825,4.429753582865216
5.541528239202658,4.537436217997116
5.561461794019934,4.641494620126455
5.5813953488372094,4.7417715129662215
5.601328903654485,4.838119685853553
5.621262458471762,4.93040130025258
5.641196013289036,5.018487320420114
5.661129568106313,5.102257045588593
5.681063122923589,5.181597725375748
5.700996677740864,5.256404243594253
5.72093023255814,5.326578858399848
5.740863787375416,5.392030988932603
5.760797342192691,5.45267704039028
5.780730897009967,5.508440260915287
5.800664451827243,5.559250624849081
5.820598006644518,5.605044737865704
5.840531561461795,5.645765760282778
5.8604651162790695,5.681363345499316
5.880398671096346,5.711793591051734
5.900332225913622,5.737019000235252
5.920265780730897,5.757008452624761
5.940199335548173,5.771737182161873
5.960132890365449,5.781186761765127
5.980066445182724,5.785345093677905
6.0,5.784206405002395
6.0199335548172765,5.777771248084778
6.039867109634551,5.76604650562409
6.059800664451828,5.749045400580057
6.0797342192691035,5.726787511161097
6.099667774086379,5.699298791387385
6.119601328903655,5.666611597952895
6.139534883720931,5.628764724361228
6.159468438538206,5.585803443591457
6.179401993355482,5.537779560870986
6.1993355481727574,5.484751478504497
6.219269102990033,5.4267842751447875
6.23920265780731,5.363949802409216
6.259136212624584,5.2963268023659165
6.279069767441861,5.224001050161995
6.299003322259137,5.147065526974803
6.318936877076412,5.065620629577404
6.338870431893688,4.979774424172832
6.3588039867109645,4.889642953834729
6.378737541528239,4.795350610978713
6.398671096345516,4.697030588887475
6.418604651162791,4.594825429562173
6.438538205980066,4.488887689251015
6.458471760797343,4.37938074814254
6.4784053156146175,4.266479797200309
6.498338870431894,4.150373043334315
6.51827242524917,4.03126318453236
6.538205980066445,3.90936921981718
6.558139534883721,3.784928675702634
6.578073089700998,3.65820035210283
6.598006644518272,3.5294677174503586
6.617940199335549,3.399043116219439
6.6378737541528245,3.267272993111668
6.6578073089701,3.134544387259593
6.677740863787376,3.001293005881157
6.6976744186046515,2.8680132456119773
6.717607973421927,2.735270580546467
6.737541528239203,2.603716755925501
6.7574750830564785,2.47410817052387
6.777408637873754,2.3473276167867128
6.797342192691031,2.2244090343146903
6.8172757475083055,2.1065638964043227
6.837209302325582,1.9952059831435387
6.857142857142858,1.8919682768528523
6.877076411960133,1.7987014698268347
6.897009966777409,1.7174388605014732
6.9169435215946855,1.6503097539707345
6.93687707641196,1.599387756642634
6.956810631229236,1.5664771984029293
6.9767441860465125,1.5528708464729637
6.996677740863787,1.55914273470222
7.016611295681064,1.5850473674874055
7.036544850498339,1.6295646375294124
7.056478405315615,1.6910724670763602
7.076411960132891,1.7675837717429537
7.096345514950166,1.8569769235459623
7.116279069767442,1.9571734441466573
7.136212624584719,2.066249164053044
7.156146179401993,2.182487540017178
7.17607973421927,2.3043924539952108
7.196013289036546,2.430677188754204
7.21594684385382,2.5602419517522947
7.235880398671097,2.6921477358841908
7.2558139534883725,2.8255907941842837
7.275747508305648,2.959879724993395
7.295681063122924,3.0944158443674983
7.3156146179402,3.2286768359579523
7.335548172757475,3.3622033576449333
7.355481727574752,3.494588178240541
7.3754152823920265,3.6254674141639462
7.395348837209303,3.7545134778284437
7.415282392026579,3.881429406503483
7.435215946843854,4.005944297998254
7.45514950166113,4.127809631348632
7.475083056478406,4.24679629471836
7.495016611295681,4.362692178913499
7.514950166112956,4.475300224077262
7.5348837209302335,4.5844368303688015
7.554817275747508,4.68993056181632
7.574750830564784,4.791621087033908
7.5946843853820605,4.8893583119110176
7.614617940199336,4.983001668380465
7.634551495016611,5.07241953046974
7.6544850498338874,5.157488734454379
7.674418604651163,5.238094184384337
7.694352159468439,5.3141285277971875
7.714285714285715,5.385491889261188
7.73421926910299,5.452091651660022
7.754152823920266,5.513842276957335
7.774086378737542,5.570665159657127
7.794019933554818,5.622488507376262
7.813953488372093,5.6692472439269475
7.83388704318937,5.710882931112897
7.853820598006645,5.747343706109595
7.8737541528239205,5.7785842318549
7.893687707641197,5.804565658342703
7.913621262458472,5.825255593108868
7.9335548172757475,5.840628079539427
7.953488372093024,5.850663581927879
7.9734219269103,5.8553489764721585
7.9933554817275745,5.854677547641115
8.013289036544851,5.848648989561606
8.033222591362128,5.837269412289207
8.053156146179402,5.820551353032552
8.073089700996679,5.798513792611007
8.093023255813954,5.771182177643195
8.11295681063123,5.738588449196728
8.132890365448505,5.70077107888473
8.152823920265782,5.657775113680339
8.172757475083056,5.60965223104601
8.192691029900331,5.556460806351684
8.21262458471761,5.498265994998555
8.232558139534884,5.43513983218921
8.252491694352159,5.367161353913375
8.272425249169435,5.294416743474203
8.292358803986712,5.216999508799242
8.312292358803987,5.135010696900444
8.332225913621263,5.048559153224047
8.352159468438538,4.957761835327802
8.372093023255815,4.862744192425416
8.392026578073091,4.763640624954317
8.411960132890366,4.660595041590583
8.43189368770764,4.553761535232506
8.451827242524917,4.4433052046296115
8.471760797342194,4.329403154838673
8.491694352159469,4.212245717916329
8.511627906976745,4.09203794568283
8.53156146179402,3.969001439608512
8.551495016611296,3.843376599620998
8.571428571428573,3.7154253947894826
8.591362126245848,3.5854347854295736
8.611295681063122,3.4537209592499316
8.6312292358804,3.3206345846417293
8.651162790697676,3.1865673324020642
8.67109634551495,3.0519599718891337
8.691029900332227,2.9173124044007483
8.710963455149502,2.7831960445888324
8.730897009966778,2.6502689770233236
8.750830564784053,2.51929425503545
8.77076411960133,2.391161491589664
8.790697674418604,2.2669113788969524
8.81063122923588,2.147761748199343
8.830564784053157,2.0351319470584084
8.850498338870432,1.930659363056329
8.870431893687707,1.8361977951251232
8.890365448504983,1.7537828085691198
8.91029900332226,1.6855466327475168
8.930232558139535,1.6335692437713556
8.950166112956811,1.599668430062624
8.970099667774086,1.5851604881223331
8.990033222591363,1.5906531772195796
9.00996677740864,1.6159408228558039
9.029900332225914,1.6600418835069701
9.049833887043189,1.7213640587416057
9.069767441860467,1.7979365825482827
9.089700996677742,1.8876399894127713
9.109634551495017,1.988386174622811
9.129568106312293,2.0982332636438525
9.14950166112957,2.2154425667481368
9.169435215946844,2.338494223510711
9.189368770764121,2.4660780795868575
9.209302325581396,2.597072308226857
9.22923588039867,2.730517792385097
9.249169435215949,2.8655927533952297
9.269102990033224,3.0015897791407906
9.289036544850498,3.1378960327518355
9.308970099667773,3.273976695951173
9.328903654485051,3.409361362630781
9.348837209302326,3.543632974818299
9.368770764119601,3.6764188793753174
9.388704318936878,3.8073836197438986
9.408637873754152,3.9362231309932696
9.428571428571429,4.062660062538365
9.448504983388705,4.186440004184775
9.46843853820598,4.307328435115915
9.488372093023255,4.425108251797296
9.508305647840533,4.539577760211347
9.528239202657808,4.650549041369492
9.548172757475083,4.757846617719765
9.56810631229236,4.861306362824274
9.588039867109636,4.960774608323009
9.60797342192691,5.0561074113863915
9.627906976744187,5.1471699531163555
9.647840531561462,5.2338360441002285
9.667774086378738,5.3159877178823205
9.687707641196015,5.393514896749213
9.70764119601329,5.466315117127214
9.727574750830565,5.534293304218258
9.747508305647841,5.597361587376442
9.767441860465118,5.65543914924483
9.787375415282392,5.708452102906266
9.807308970099669,5.756333392310201
9.827242524916944,5.79902271206673
9.84717607973422,5.836466443384329
9.867109634551497,5.868617603499529
9.887043189368772,5.8954358064267645
9.906976744186046,5.916887233264489
9.926910299003321,5.932944610644006
9.9468438538206,5.943587196213087
9.966777408637874,5.948800770317654
9.986710963455149,5.948577633290378
10.006644518272426,5.942916607983239
10.026578073089702,5.9318230473978435
10.046511627906977,5.915308847480571
10.066445182724253,5.893392465364285
10.086378737541528,5.86609894356179
10.106312292358805,5.83345994085475
10.126245847176081,5.795513770883098
10.146179401993356,5.752305449731842
10.16611295681063,5.703886754145357
10.186046511627907,5.650316292384513
10.205980066445184,5.591659590193394
10.225913621262459,5.527989194877751
10.245847176079735,5.459384801136862
10.26578073089701,5.385933403061317
10.285714285714286,5.307729477643726
10.305647840531563,5.224875206289715
10.325581395348838,5.137480742214391
10.345514950166113,5.045664533332809
10.36544850498339,4.94955371238523
10.385382059800666,4.849284568689132
10.40531561461794,4.745003119217863
10.425249169435217,4.6368658008487
10.445182724252492,4.525040310828329
10.465116279069768,4.409706629062803
10.485049833887045,4.291058264121466
10.50498338870432,4.169303775320385
10.524916943521594,4.044668636505216
10.544850498338871,3.9173975239083023
10.564784053156147,3.78775713156798
10.584717607973422,3.656039644242975
10.604651162790697,3.5225670305306993
10.624584717607974,3.3876963588143076
10.64451827242525,3.2518263858775374
10.664451827242525,3.115405721126622
10.684385382059801,2.978942923614387
10.704318936877076,2.8430189332378557
10.724252491694353,2.708302248245989
10.74418604651163,2.57556719380014
10.764119601328904,2.4457154001965375
10.784053156146179,2.319800088549225
10.803986710963457,2.1990517356723154
10.823920265780732,2.0849018743916643
10.843853820598007,1.9789988954533408
10.863787375415283,1.8832057111252873
