Frequency (Hz),Amplitude
0.0,2.3854781707683768
0.019867549668874173,2.3843017073993975
0.039735099337748346,2.380773493075515
0.059602649006622516,2.374897054100449
0.07947019867549669,2.3666782641661896
0.09933774834437085,2.35612533914431
0.11920529801324503,2.3432488298198906
0.13907284768211922,2.328061612594399
0.15894039735099338,2.31057887819319
0.17880794701986755,2.2908181184227057
0.1986754966887417,2.2687991110334336
0.2185430463576159,2.2445439027575977
0.23841059602649006,2.2180767906050165
0.2582781456953642,2.1894243015183155
0.27814569536423844,2.1586151705100187
0.2980132450331126,2.125680317429369
0.31788079470198677,2.0906528225391745
0.33774834437086093,2.053567901122409
0.3576158940397351,2.014462877388402
0.3774834437086093,1.9733771580126247
0.3973509933774834,1.9303522057260236
0.4172185430463576,1.8854315134767485
0.4370860927152318,1.8386605798274207
0.45695364238410596,1.7900868864367416
0.4768211920529801,1.73975987872312
0.49668874172185434,1.6877309511452145
0.5165562913907285,1.6340534389952106
0.5364238410596026,1.578782619240541
0.5562913907284769,1.5219757238462908
0.5761589403973509,1.4636919702872095
0.5960264900662252,1.4039926157999292
0.6158940397350993,1.342941044626332
0.6357615894039735,1.2806029015266007
0.6556291390728477,1.2170462909590232
0.6754966887417219,1.1523420708108365
0.695364238410596,1.0865642846067807
0.7152317880794702,1.0197908005697294
0.7350993377483444,0.9521042667471299
0.7549668874172186,0.8835935617648077
0.7748344370860927,0.8143560461970432
0.7947019867549668,0.7445011520701125
0.8145695364238411,0.6741562986640298
0.8344370860927152,0.6034770417162038
0.8543046357615894,0.5326653500221804
0.8741721854304636,0.46200449985286735
0.8940397350993378,0.3919305675633154
0.9139072847682119,0.3231917986686761
0.9337748344370861,0.2572397801014782
0.9536423841059603,0.1972781074953354
0.9735099337748344,0.1509944155496851
0.9933774834437087,0.13370694759601398
1.0132450331125828,0.1554743969959831
1.033112582781457,0.20410308632788465
1.0529801324503312,0.2650757110051442
1.0728476821192052,0.33148106640913055
1.0927152317880795,0.4004302920039301
1.1125827814569538,0.47059431428866644
1.1324503311258278,0.5412772217392117
1.1523178807947019,0.612067693710784
1.1721854304635762,0.6826952576335441
1.1920529801324504,0.7529650875583023
1.2119205298013245,0.822725880974644
1.2317880794701985,0.8918529024279771
1.2516556291390728,0.9602385066183384
1.271523178807947,1.027786584888138
1.2913907284768211,1.0944091805987899
1.3112582781456954,1.16002435852029
1.3311258278145695,1.2245548278432128
1.3509933774834437,1.287927033527556
1.370860927152318,1.3500705473193053
1.390728476821192,1.410917655463356
1.410596026490066,1.4704030784322142
1.4304635761589404,1.5284637809931216
1.4503311258278146,1.5850388451342199
1.4701986754966887,1.6400693873515069
1.4900662251655628,1.6934985076046392
1.5099337748344372,1.7452712610813002
1.5298013245033113,1.79533464648423
1.5496688741721854,1.8436376063145183
1.5695364238410596,1.8901310358459469
1.5894039735099337,1.9347677983455487
1.609271523178808,1.9775027447090094
1.6291390728476822,2.018292736123576
1.6490066225165563,2.057096668695407
1.6688741721854303,2.0938754992183246
1.6887417218543048,2.1285922714403718
1.7086092715231789,2.161212142320101
1.728476821192053,2.1917024078677856
1.7483443708609272,2.2200325282465267
1.7682119205298013,2.246174151870153
1.7880794701986755,2.270101138283516
1.8079470198675496,2.291789579649348
1.8278145695364238,2.3112178206970286
1.847682119205298,2.3283664770136996
1.8675496688741722,2.34321845157858
1.8874172185430464,2.355758949458999
1.9072847682119205,2.365975490600427
1.9271523178807946,2.3738579206558477
1.9470198675496688,2.3793984198099705
1.9668874172185429,2.3825915095636887
1.9867549668874174,2.3834340574524466
2.0066225165562916,2.3819252796803796
2.0264900662251657,2.378066741659174
2.0463576158940397,2.371862356448025
2.066225165562914,2.3633183810978697
2.086092715231788,2.3524434109104275
2.1059602649006623,2.3392483716296497
2.1258278145695364,2.3237465095912087
2.1456953642384105,2.305953379863901
2.165562913907285,2.2858868324261836
2.185430463576159,2.2635669964317175
2.205298013245033,2.2390162626293937
2.2251655629139075,2.2122592640180634
2.2450331125827816,2.1833228548321597
2.2649006622516556,2.152236087975038
2.2847682119205297,2.119030191041006
2.3046357615894038,2.0837385410973086
2.324503311258278,2.0463966384350347
2.3443708609271523,2.0070420795453234
2.364238410596027,1.9657145296379217
2.384105960264901,1.9224556950969625
2.403973509933775,1.8773092963703464
2.423841059602649,1.8303210419222091
2.443708609271523,1.781538604054651
2.463576158940397,1.7310115976420273
2.4834437086092715,1.6787915631423462
2.5033112582781456,1.6249319556909851
2.52317880794702,1.5694881426938425
2.543046357615894,1.512517413196841
2.562913907284768,1.4540790035349536
2.5827814569536423,1.3942341455372
2.6026490066225163,1.3330461461710337
2.622516556291391,1.2705805114079365
2.642384105960265,1.2069051330333747
2.662251655629139,1.142090566368031
2.6821192052980134,1.076210441580159
2.7019867549668874,1.0093420752851419
2.7218543046357615,0.9415673894451897
2.741721854304636,0.8729743144214935
2.76158940397351,0.8036589783670837
2.781456953642384,0.7337292192809453
2.801324503311258,0.6633104139075073
2.821192052980132,0.5925555614775285
2.8410596026490067,0.5216636281351764
2.8609271523178808,0.45091502126027444
2.8807947019867552,0.38074547951548277
2.9006622516556293,0.3119144363723323
2.9205298013245033,0.24593073159056147
2.9403973509933774,0.18623933872030388
2.9602649006622515,0.14142331608907194
2.9801324503311255,0.12839296936619032
3.0,0.15540242888112138
3.0198675496688745,0.20727758192652915
3.0397350993377485,0.2699089238539768
3.0596026490066226,0.33718008876991296
3.0794701986754967,0.4065948947739858
3.0993377483443707,0.477002911097127
3.119205298013245,0.5477952207309468
3.1390728476821192,0.6186065657685266
3.1589403973509933,0.6891927645549687
3.1788079470198674,0.7593749844654049
3.198675496688742,0.8290121921085785
3.218543046357616,0.8979865594013512
3.23841059602649,0.9661952807205768
3.2582781456953644,1.0335457647589745
3.2781456953642385,1.0999526981649987
3.2980132450331126,1.165336194744882
3.3178807947019866,1.229620598874357
3.3377483443708607,1.2927336964805303
3.3576158940397347,1.3546061873795536
3.3774834437086096,1.415171329483375
3.3973509933774837,1.4743646985341596
3.4172185430463577,1.5321240269835277
3.437086092715232,1.5883890979795525
3.456953642384106,1.6431016782490169
3.47682119205298,1.6962054787311427
3.4966887417218544,1.747646135169747
3.5165562913907285,1.7973712031250668
3.5364238410596025,1.8453301634105923
3.556291390728477,1.8914744350329118
3.576158940397351,1.935757393469231
3.596026490066225,1.9781343926582373
3.615894039735099,2.0185627894710674
3.6357615894039736,2.0570019697159543
3.6556291390728477,2.0934133749422563
3.6754966887417218,2.1277605294686053
3.695364238410596,2.160009067179814
3.7152317880794703,2.190126757729353
3.7350993377483444,2.2180835318546905
3.754966887417219,2.2438515055682973
3.774834437086093,2.26740500303048
3.794701986754967,2.2887205779446336
3.814569536423841,2.307777033343679
3.834437086092715,2.3245554396585946
3.854304635761589,2.3390391509789192
3.8741721854304636,2.351213819430381
3.8940397350993377,2.361067407608039
3.9139072847682117,2.3685901990143363
3.9337748344370858,2.3737748064616007
3.9536423841059607,2.3766161784067523
3.9735099337748347,2.3771116031942836
3.993377483443709,2.3752607111903172
4.013245033112583,2.371065474797778
4.033112582781457,2.364530206348888
4.052980132450331,2.3556615538778005
4.072847682119205,2.3444684947825714
4.0927152317880795,2.3309623273924056
4.112582781456953,2.3151566604627987
4.132450331125828,2.297067400629193
4.152317880794702,2.276712737857576
4.172185430463576,2.25411312893996
4.19205298013245,2.2292912790930672
4.211920529801325,2.2022721217311525
4.231788079470199,2.173082796497864
4.251655629139073,2.141752625659932
4.271523178807947,2.108313088986284
4.291390728476821,2.072797797262224
4.311258278145695,2.035242464620751
4.33112582781457,1.9956848799137694
4.3509933774834435,1.954164877397932
4.370860927152318,1.9107243070766655
4.390728476821192,1.865407005127085
4.410596026490066,1.8182587649543958
4.43046357615894,1.7693273095687465
4.450331125827815,1.7186622661829412
4.470198675496689,1.6663151442066249
4.490066225165563,1.6123393181924297
4.509933774834438,1.5567900178191778
4.529801324503311,1.4997243277420025
4.549668874172186,1.441201201204893
4.569536423841059,1.3812814928561785
4.589403973509934,1.320028018485773
4.6092715231788075,1.2575056528221034
4.629139072847682,1.1937814817572707
4.649006622516556,1.1289250335427918
4.66887417218543,1.0630086265720944
4.688741721854305,0.9961078928265258
4.708609271523179,0.9283025723197721
4.728476821192054,0.8596777371545105
4.748344370860927,0.7903257183604956
4.768211920529802,0.720349224906239
4.788079470198675,0.649866572428108
4.80794701986755,0.5790208354252483
4.827814569536423,0.5079967384037506
4.847682119205298,0.4370539279157479
4.867549668874172,0.36659800679395943
4.887417218543046,0.2973480877399393
4.9072847682119205,0.23078263923427556
4.927152317880794,0.17048334233681442
4.947019867549669,0.1261766521409776
4.966887417218543,0.11780328901375907
4.986754966887418,0.15146241940259314
5.006622516556291,0.20753653271354194
5.026490066225166,0.2723720977926936
5.04635761589404,0.34082272054008267
5.066225165562914,0.41088071389917485
5.086092715231788,0.4816260093788024
5.105960264900662,0.5525659968940179
5.125827814569536,0.6233990054527547
5.14569536423841,0.6939181579399455
5.1655629139072845,0.7639678522003981
5.185430463576159,0.8334222693422257
5.205298013245033,0.9021739862835182
5.225165562913908,0.9701275872964666
5.245033112582782,1.037195909176025
5.264900662251656,1.1032977490890679
5.28476821192053,1.1683564220001488
5.304635761589404,1.2322988308641192
5.324503311258278,1.295054856715248
5.344370860927152,1.3565569541320124
5.364238410596027,1.4167398818742374
5.3841059602649,1.475540524419985
5.403973509933775,1.5328977757665854
5.4238410596026485,1.588752466546245
5.443708609271523,1.6430473216544814
5.463576158940397,1.6957269395774008
5.483443708609272,1.746737787243364
5.503311258278146,1.7960282060029376
5.52317880794702,1.8435484255606593
5.543046357615895,1.889250583529949
5.562913907284768,1.9330887488823387
5.582781456953643,1.9750189479901445
5.602649006622516,2.0149991922731676
5.622516556291391,2.052989506687139
5.642384105960264,2.0889519584610587
5.662251655629139,2.1228506856172014
5.682119205298013,2.154651924903175
5.701986754966887,2.1843240388395073
5.7218543046357615,2.211837541642766
5.741721854304636,2.2371651238284334
5.7615894039735105,2.260281675333463
5.781456953642384,2.281164307025759
5.801324503311259,2.299792370491039
5.821192052980132,2.3161474760054563
5.841059602649007,2.3302135086182307
5.860927152317881,2.341976642280794
5.880794701986755,2.351425351970254
5.900662251655629,2.358550423764031
5.920529801324503,2.363344962830999
5.940397350993377,2.3658043993117324
5.960264900662251,2.3659264920671235
5.980132450331126,2.363711330280463
6.0,2.3591613329045313
6.0198675496688745,2.3522812459501594
6.039735099337749,2.3430781376184133
6.059602649006623,2.331561391284006
6.079470198675497,2.317742696343199
6.099337748344371,2.3016360369448337
6.119205298013245,2.2832576786298344
6.139072847682119,2.2626261529106424
6.158940397350993,2.2397622398300383
6.178807947019867,2.214688948546342
6.198675496688741,2.1874314960025387
6.218543046357616,2.1580172837469878
6.23841059602649,2.1264758729875255
6.258278145695365,2.092838957976346
6.2781456953642385,2.0571403378424793
6.298013245033113,2.0194158870133614
6.317880794701987,1.9797035243969985
6.337748344370861,1.9380431815350558
6.357615894039735,1.8944767699868248
6.377483443708609,1.8490481482684265
6.397350993377484,1.8018030887564394
6.417218543046357,1.7527892450777667
6.437086092715232,1.7020561206585936
6.456953642384105,1.64965503931161
6.47682119205298,1.595639119022873
6.496688741721854,1.5400632504953142
6.516556291390729,1.4829840825622853
6.5364238410596025,1.4244600173841342
6.556291390728477,1.3645512195027254
6.5761589403973515,1.3033196445495465
6.596026490066225,1.2408290959948671
6.6158940397351,1.1771453223102117
6.635761589403973,1.1123361731747037
6.655629139072848,1.0464718434271076
6.675496688741721,0.9796252501098528
6.695364238410596,0.9118726162959706
6.715231788079469,0.8432943853164687
6.735099337748344,0.7739766803791285
6.754966887417219,0.7040136993033214
6.774834437086093,0.633511785641328
6.794701986754967,0.5625966680164846
6.814569536423841,0.49142707878512254
6.8344370860927155,0.42022224861124174
6.854304635761589,0.34932261255871144
6.874172185430464,0.2793401696010846
6.894039735099337,0.21159033813130315
6.913907284768212,0.1495732238638909
6.933774834437086,0.10449949639283032
6.95364238410596,0.10225094587983484
6.973509933774834,0.14482661684807815
6.993377483443709,0.20599121217180236
7.013245033112583,0.2733835898793467
7.033112582781457,0.34316302488685746
7.052980132450331,0.4139133704736164
7.072847682119205,0.48498680644103154
7.0927152317880795,0.5560280195780373
7.112582781456954,0.6268108652758934
7.132450331125828,0.6971731502267599
7.152317880794702,0.7669873476116403
7.172185430463576,0.8361461889609806
7.19205298013245,0.9045550457745767
7.211920529801324,0.9721276632492416
7.231788079470198,1.0387836590003556
7.251655629139073,1.1044470022667583
7.271523178807947,1.1690450629568896
7.291390728476822,1.2325080048609942
7.311258278145695,1.2947683936933487
7.33112582781457,1.3557609430853683
7.3509933774834435,1.4154223513415725
7.370860927152318,1.4736911991587316
7.390728476821192,1.5305078890040382
7.410596026490066,1.5858146133573963
7.430463576158941,1.6395553431579384
7.450331125827814,1.691675830481057
7.470198675496689,1.7421236212518338
7.490066225165562,1.7908480750013114
7.509933774834438,1.8378003894963535
7.52980132450331,1.8829336286479472
7.549668874172186,1.9262027525087198
7.569536423841059,1.967564648461709
7.589403973509934,2.0069781629134447
7.6092715231788075,2.044404132959641
7.629139072847682,2.0798054176072434
7.649006622516557,2.113146928223206
7.66887417218543,2.144395657946269
7.6887417218543055,2.173520709848854
7.708609271523178,2.20049332367524
7.728476821192054,2.2252869010134955
7.748344370860927,2.2478770287828094
7.768211920529802,2.2682415009380175
7.788079470198675,2.286360338308943
7.80794701986755,2.302215806505545
7.827814569536423,2.315792431830962
7.847682119205298,2.3270770151541242
7.8675496688741715,2.336058643701146
7.887417218543046,2.342728700732596
7.907284768211921,2.3470808730793804
7.927152317880795,2.349111156515709
7.9470198675496695,2.34881785895319
7.966887417218543,2.3462016014443425
7.986754966887418,2.341265316988836
8.006622516556291,2.334014247139783
8.026490066225167,2.324455936411829
8.046357615894038,2.3126002244969133
8.066225165562914,2.2984592362979037
8.086092715231787,2.2820473697945136
8.105960264900663,2.2633812817603918
8.125827814569536,2.2424798713552874
8.14569536423841,2.2193642616209854
8.165562913907285,2.194057778915594
8.185430463576159,2.1665859303270243
8.205298013245034,2.1369763791135448
8.225165562913906,2.105258918227889
8.245033112582782,2.0714654419908043
8.264900662251655,2.035629915992199
8.28476821192053,1.9977883453119734
8.304635761589404,1.9579787411707348
8.324503311258278,1.9162410861427759
8.344370860927151,1.8726172980923566
8.364238410596027,1.8271511930310493
8.3841059602649,1.7798884471421816
8.403973509933774,1.7308765582824581
8.42384105960265,1.6801648073561715
8.443708609271523,1.6278042200746485
8.463576158940398,1.573847529773531
8.483443708609272,1.5183491421850797
8.503311258278146,1.4613651033796644
8.52317880794702,1.4029530725471213
8.543046357615895,1.3431723019538624
8.562913907284768,1.2820836274019498
8.582781456953642,1.2197494740133825
8.602649006622515,1.1562338844774618
8.62251655629139,1.0916025805563438
8.642384105960264,1.0259230745689811
8.66225165562914,0.9592648574447531
8.682119205298013,0.8916997069020633
8.701986754966887,0.8233021895112224
8.721854304635762,0.7541504863878468
8.741721854304636,0.6843277809819321
8.76158940397351,0.6139246703113207
8.781456953642383,0.5430435481838948
8.801324503311259,0.47180705928153044
8.821192052980132,0.4003757084093814
8.841059602649008,0.32898843464230954
8.86092715231788,0.25806969769134913
8.880794701986755,0.1885710296656825
8.90066225165563,0.12339824623375374
8.920529801324504,0.07535451606343538
8.940397350993377,0.08332973114558152
8.960264900662251,0.13788457496476555
8.980132450331126,0.2045209757046323
9.0,0.27440275491030997
9.019867549668875,0.34536518051529513
9.039735099337747,0.41663982937233496
9.059602649006623,0.4878628066926457
9.079470198675496,0.5588197922594971
9.099337748344372,0.629361961744998
9.119205298013245,0.6993729701838973
9.139072847682119,0.7687542410069643
9.158940397350994,0.8374177612210456
9.178807947019868,0.9052822879513422
9.198675496688743,0.9722712365560305
9.218543046357615,1.0383114539418326
9.23841059602649,1.1033324837942822
9.258278145695364,1.1672661178242487
9.27814569536424,1.2300461197796355
9.298013245033111,1.2916080572343551
9.317880794701987,1.351889202463801
9.33774834437086,1.4108284786150385
9.357615894039736,1.4683664361153994
9.37748344370861,1.5244452495430416
9.397350993377483,1.5790087284614351
9.417218543046358,1.632002337805831
9.437086092715232,1.6833732247667628
9.456953642384107,1.7330702500158077
9.47682119205298,1.781044021727504
9.496688741721854,1.827246931269765
9.516556291390728,1.8716331897271448
9.536423841059603,1.914158864628448
9.556291390728477,1.9547819163990294
9.57615894039735,1.9934622341663963
9.596026490066224,2.030161670627834
9.6158940397351,2.064844075748441
9.635761589403973,2.0974753291031236
9.655629139072847,2.12802337071083
9.675496688741722,2.1564582302360775
9.695364238410596,2.182752054453932
9.715231788079471,2.206879132891547
9.735099337748345,2.228815921572799
9.754966887417218,2.2485410648038258
9.774834437086092,2.2660354149465034
9.794701986754967,2.281282050134643
9.814569536423841,2.294266289894646
9.834437086092716,2.304975708637941
9.854304635761588,2.313400146997899
9.874172185430464,2.3195317209885538
9.894039735099337,2.3233648289665627
9.913907284768213,2.324896156381983
9.933774834437086,2.324124678306888
9.95364238410596,2.3210516597343736
9.973509933774835,2.31568065364383
9.993377483443709,2.3080174968315252
10.013245033112582,2.2980703035084895
10.033112582781456,2.2858494566708654
10.052980132450331,2.271367597250803
10.072847682119205,2.2546396110588973
10.09271523178808,2.2356826135321506
10.112582781456952,2.2145159323045127
10.132450331125828,2.191161087619913
10.152317880794701,2.165641770611199
10.172185430463577,2.1379838194712617
10.192052980132452,2.108215193546543
10.211920529801324,2.076365945386632
10.2317880794702,2.042468190787835
10.251655629139073,2.006556076873313
10.271523178807948,1.9686657482574803
10.29139072847682,1.9288353113486212
10.311258278145695,1.8871047968508496
10.331125827814569,1.8435161205354613
10.350993377483444,1.7981130423627398
10.370860927152318,1.750941124049198
10.390728476821192,1.7020476851933442
10.410596026490065,1.6514817580968366
10.43046357615894,1.5992940414498709
10.450331125827816,1.5455368530932239
10.470198675496688,1.4902640821299464
10.490066225165563,1.4335311407449738
10.509933774834437,1.37539491621401
10.529801324503312,1.3159137237620364
10.549668874172186,1.2551472611994088
10.56953642384106,1.1931565666694004
10.589403973509933,1.1300039814718004
10.609271523178808,1.0657531209296134
10.629139072847682,1.0004688579018506
10.649006622516556,0.9342173262932888
10.66887417218543,0.8670659566813491
10.688741721854305,0.7990835647692136
