Time (s),Filtered Signal
0.0,-0.029930398952935793
0.033370165745856356,-0.21785705665198807
0.06674033149171271,-0.3827687034234656
0.10011049723756907,-0.5077346002816037
0.13348066298342542,-0.5832569113439907
0.16685082872928178,-0.6056346160531721
0.20022099447513814,-0.5737196772232932
0.2335911602209945,-0.487327463835031
0.26696132596685085,-0.34903272710314165
0.30033149171270723,-0.16819755751701412
0.33370165745856356,0.03597278655096427
0.3670718232044199,0.23536074773523322
0.4004419889502763,0.39870483379940563
0.43381215469613266,0.5003936263977381
0.467182320441989,0.5288286978045945
0.5005524861878453,0.49094844819370065
0.5339226519337017,0.41096301426034176
0.5672928176795581,0.3234199482232187
0.6006629834254145,0.26261928245252986
0.6340331491712707,0.2516227497455403
0.6674033149171271,0.2944002830748293
0.7007734806629835,0.37390923638136575
0.7341436464088398,0.4571610252051589
0.7675138121546962,0.5059838457206554
0.8008839779005525,0.49001253810438894
0.8342541436464089,0.3973379997732357
0.8676243093922653,0.23882720900824062
0.9009944751381216,0.04432183904563764
0.934364640883978,-0.14800571790158282
0.9677348066298344,-0.3050797954117252
1.0011049723756906,-0.4097568960526434
1.0344751381215471,-0.46457448665130613
1.0678453038674034,-0.48688888478040676
1.1012154696132597,-0.4978207886352013
1.1345856353591162,-0.5105191901551661
1.1679558011049724,-0.5237890374223443
1.201325966850829,-0.5245114675164926
1.2346961325966852,-0.4976005755278233
1.2680662983425415,-0.4378969414989142
1.301436464088398,-0.3569019921351232
1.3348066298342542,-0.27973185236683334
1.3681767955801105,-0.23302490553716376
1.401546961325967,-0.22990086444155705
1.4349171270718233,-0.26033888595806
1.4682872928176796,-0.29299735881618805
1.501657458563536,-0.288577896518239
1.5350276243093923,-0.21847390780959253
1.5683977900552488,-0.07918554475614055
1.601767955801105,0.10519272136857402
1.6351381215469614,0.2939734244112678
1.6685082872928179,0.4487187316841644
1.7018784530386741,0.5499687472821502
1.7352486187845306,0.6029890406877882
1.768618784530387,0.6296907362669029
1.8019889502762432,0.6515672540197679
1.8353591160220997,0.6735743054788932
1.868729281767956,0.6784479893392348
1.9020994475138122,0.6351491700909222
1.9354696132596687,0.5171263490451865
1.968839779005525,0.3204050582220878
2.0022099447513813,0.07139258215422555
2.0355801104972375,-0.1802001596006291
2.0689502762430942,-0.3799705664948984
2.1023204419889505,-0.48976462483766864
2.135690607734807,-0.5010697198691021
2.169060773480663,-0.4354180642027915
2.2024309392265193,-0.3329901225422151
2.235801104972376,-0.23572871856397878
2.2691712707182323,-0.17257954611738238
2.3025414364640886,-0.1520773309549889
2.335911602209945,-0.1633915582068248
2.369281767955801,-0.18351225695986037
2.402651933701658,-0.18686940795254287
2.436022099447514,-0.15419944105110353
2.4693922651933704,-0.0787555239764643
2.5027624309392267,0.031110432261727418
2.536132596685083,0.1536662554416779
2.5695027624309392,0.26020318718244895
2.602872928176796,0.32539664820787534
2.636243093922652,0.3388116722530472
2.6696132596685085,0.3126784940127716
2.7029834254143648,0.2807296045652367
2.736353591160221,0.2855607511770332
2.7697237569060777,0.3573360487608618
2.803093922651934,0.49241146207382513
2.8364640883977903,0.6432158071976289
2.8698342541436466,0.7278913408520926
2.903204419889503,0.6598135844094883
2.936574585635359,0.38661003372276825
2.969944751381216,-0.07878349489057343
3.003314917127072,-0.6514300000840915
3.0366850828729284,-1.1984488057359541
3.0700552486187846,-1.5855782684078896
3.103425414364641,-1.7263592989458123
3.1367955801104976,-1.6119972803078244
3.170165745856354,-1.30895351710558
3.20353591160221,-0.9266595099935757
3.2369060773480665,-0.571353889364041
3.2702762430939227,-0.30716498199473585
3.3036464088397794,-0.14034918285409215
3.3370165745856357,-0.03053851675576248
3.370386740331492,0.0796372343219332
3.4037569060773483,0.23228437551007225
3.4371270718232045,0.4341886393188021
3.4704972375690613,0.6563690159267582
3.5038674033149175,0.8508398433838705
3.537237569060774,0.974800200707007
3.57060773480663,1.0105288367054732
3.6039779005524863,0.9727649073416549
3.6373480662983426,0.9017405438242643
3.6707182320441993,0.8459579496570315
3.7040883977900556,0.8420231608158493
3.737458563535912,0.8989710943040133
3.770828729281768,0.9924359862326741
3.8041988950276244,1.0708265892142481
3.837569060773481,1.0720472745744405
3.8709392265193374,0.9457725983128282
3.9043093922651937,0.6736823952746529
3.93767955801105,0.27967420055845355
3.9710497237569062,-0.17508022759930686
4.0044198895027625,-0.6115657032192701
4.037790055248619,-0.9596076966250523
4.071160220994475,-1.1806250594636298
4.104530386740332,-1.2765565142568007
4.1379005524861885,-1.2815053309783995
4.171270718232044,-1.241040548289418
4.204640883977901,-1.1898959175298685
4.238011049723757,-1.1388948142314657
4.271381215469614,-1.0764586198178856
4.30475138121547,-0.9822284742529407
4.338121546961326,-0.8443744883309805
4.371491712707183,-0.6709483621842839
4.404861878453039,-0.4893166971851041
4.438232044198895,-0.33404088747623967
4.471602209944752,-0.22933664776482174
4.504972375690608,-0.17489628857378017
4.538342541436465,-0.14243909377757846
4.5717127071823205,-0.08563020993729636
4.605082872928177,0.04002128754411346
4.638453038674034,0.25550261545003167
4.67182320441989,0.5445722250033981
4.7051933701657465,0.8548758575208092
4.738563535911602,1.1146396083904375
4.771933701657459,1.2587056330304756
4.805303867403316,1.253163770881621
4.8386740331491715,1.1081147781701166
4.872044198895028,0.8732429277080843
4.905414364640884,0.6184586485937373
4.938784530386741,0.4082104357340458
4.972154696132597,0.28019764251213414
5.005524861878453,0.2364431833636503
5.03889502762431,0.24874692237648993
5.072265193370166,0.27445888287247316
5.105635359116023,0.27495504299723245
5.1390055248618784,0.2293137621468624
5.172375690607735,0.1388544083146651
5.205745856353592,0.022584865834441043
5.239116022099448,-0.09284060426259677
5.272486187845304,-0.18367891539640413
5.30585635359116,-0.23617116453534073
5.339226519337017,-0.24854961026323177
5.372596685082874,-0.22886937316884481
5.4059668508287295,-0.19090210407289665
5.439337016574586,-0.15010098054026433
5.472707182320442,-0.12032343532135133
5.506077348066299,-0.11076429621542855
5.5394475138121555,-0.12259477442036254
5.572817679558011,-0.14636362509662768
5.606187845303868,-0.16306718778242021
5.639558011049724,-0.15182480896900707
5.672928176795581,-0.10395254345596701
5.706298342541437,-0.03789116055427303
5.739668508287293,-0.005301008644639172
5.77303867403315,-0.07954817598221993
5.806408839779006,-0.32525058961564235
5.839779005524862,-0.758828825628831
5.873149171270718,-1.318990392762062
5.906519337016575,-1.8664243710710586
5.939889502762432,-2.2211372220455883
5.9732596685082875,-2.227533284730359
6.006629834254144,-1.8206596357360434
6.04,-1.0620576475150267
6.073370165745857,-0.1252404297055812
6.1067403314917135,0.7655322954502607
6.140110497237569,1.416208387476061
6.173480662983426,1.7269975933829809
6.206850828729282,1.7125525053070916
6.240220994475139,1.474462105557349
6.273591160220995,1.1453961500262813
6.306961325966851,0.8348022334893047
6.340331491712708,0.5998132039764423
6.373701657458564,0.4477128140741406
6.40707182320442,0.3591021535667918
6.440441988950277,0.31322969716657856
6.473812154696133,0.3012280322667858
6.50718232044199,0.3242763304014151
6.5405524861878455,0.3837438125211078
6.573922651933702,0.47327460732718923
6.607292817679559,0.5783531012536309
6.640662983425415,0.6817845577670424
6.674033149171271,0.76926525849836
6.707403314917127,0.8302977750167271
6.740773480662984,0.8544173305702959
6.774143646408841,0.8270092350001097
6.8075138121546965,0.7297159148022843
6.840883977900553,0.5472346567636759
6.874254143646409,0.27757785750056335
6.907624309392266,-0.060181469211169916
6.9409944751381225,-0.4260845304057951
6.974364640883978,-0.7689481995613385
7.007734806629835,-1.042168518791934
7.041104972375691,-1.218978923576292
7.074475138121548,-1.3003656558978824
7.107845303867403,-1.3119565377628046
7.14121546961326,-1.2910555762660327
7.174585635359117,-1.2694165848803287
7.207955801104973,-1.2593653292853344
7.241325966850829,-1.2494987055551166
7.274696132596685,-1.2118658775288975
7.308066298342542,-1.1171420260844622
7.341436464088399,-0.9504226725998389
7.3748066298342545,-0.7199459559129399
7.408176795580111,-0.4546141241852608
7.441546961325967,-0.19185347937372244
7.474917127071824,0.03788402651727964
7.5082872928176805,0.22232028800269482
7.541657458563536,0.3691808054014752
7.575027624309393,0.4984712307587506
7.608397790055249,0.6295471489630117
7.641767955801106,0.7693915949654798
7.675138121546962,0.9075032472927482
7.708508287292818,1.0195202134987504
7.741878453038675,1.0777520621883285
7.775248618784531,1.063820659178679
7.808618784530387,0.977781086549685
7.841988950276244,0.8396997045738768
7.8753591160221,0.6829942488557342
7.908729281767957,0.5424233473216555
7.9420994475138125,0.4418577023466141
7.975469613259669,0.38689024060862387
8.008839779005525,0.3650379070571111
8.042209944751383,0.3528720769810461
8.075580110497238,0.32650289764734564
8.108950276243094,0.2707612241652722
8.14232044198895,0.18354341475599428
8.175690607734808,0.0743606317814052
8.209060773480664,-0.041246053863337136
8.24243093922652,-0.1483517103068832
8.275801104972377,-0.2375066434428856
8.309171270718233,-0.30634166834102317
8.342541436464089,-0.35807418485134795
8.375911602209946,-0.39819613658378755
8.409281767955802,-0.4310065846672371
8.442651933701658,-0.45740960402321595
8.476022099447514,-0.47475324831470384
8.509392265193371,-0.4786316536259923
8.542762430939227,-0.4657331625751646
8.576132596685083,-0.43629619585886803
8.60950276243094,-0.394819344502993
8.642872928176796,-0.3484404703673509
8.676243093922652,-0.3035878388295791
8.709613259668508,-0.26256289701144403
8.742983425414366,-0.22204111092062662
8.776353591160222,-0.17475410470602473
8.809723756906077,-0.11404246992991028
8.843093922651935,-0.039263183855382286
8.87646408839779,0.04086234853550133
8.909834254143647,0.10930089409810949
8.943204419889504,0.14651500385980093
8.97657458563536,0.13886642216260045
9.009944751381216,0.08575967012362808
9.043314917127072,0.001850498410980612
9.07668508287293,-0.08721426729491769
9.110055248618785,-0.15399577095159256
9.143425414364641,-0.1794841676327256
9.176795580110499,-0.15992851887558115
9.210165745856354,-0.107418838216885
9.24353591160221,-0.044103685470745294
9.276906077348068,0.007449443008623884
9.310276243093924,0.03377942649499193
9.34364640883978,0.0360940718922684
9.377016574585635,0.029571929878929825
9.410386740331493,0.03653272979906701
9.443756906077349,0.0761197014984387
9.477127071823205,0.15481376762509172
9.510497237569062,0.2621145282793726
9.543867403314918,0.37377709715681734
9.577237569060774,0.4616875674481752
9.610607734806631,0.5062198426502488
9.643977900552487,0.5053546777936622
9.677348066298343,0.4758960222080193
9.710718232044199,0.4455161045765614
9.744088397790057,0.4386835078433648
9.777458563535912,0.46280732227627613
9.810828729281768,0.5014782281242173
9.844198895027626,0.5189152463815494
9.877569060773482,0.47461496211174836
9.910939226519337,0.3420744695332801
9.944309392265193,0.12296767997467009
9.97767955801105,-0.1501610676767311
10.011049723756907,-0.42434743625231497
10.044419889502763,-0.6452011477118281
10.07779005524862,-0.7758679657582985
10.111160220994476,-0.8077664542194454
10.144530386740332,-0.7592921040228731
10.17790055248619,-0.6645448556432327
10.211270718232045,-0.5583467838488619
10.244640883977901,-0.46445382818092984
10.278011049723757,-0.3911359628194772
10.311381215469615,-0.3341259551993073
10.34475138121547,-0.28364768907820304
10.378121546961326,-0.23125667038264508
10.411491712707184,-0.17350393631973654
10.44486187845304,-0.11178653432831902
10.478232044198895,-0.0497475629268539
10.511602209944753,0.009630286118408889
10.544972375690609,0.06555448551363409
10.578342541436465,0.1190205789519406
10.61171270718232,0.17102905753535427
10.645082872928178,0.2206158348502149
10.678453038674034,0.26395028580178986
10.71182320441989,0.2952865072177398
10.745193370165747,0.30968487795840155
10.778563535911603,0.30639966871071056
10.811933701657459,0.2911024915544619
10.845303867403315,0.2752075806689708
10.878674033149172,0.2717268211436658
10.912044198895028,0.28893622958356063
10.945414364640884,0.32472950333525924
10.978784530386742,0.3648353508950147
11.012154696132598,0.38663344648283754
11.045524861878453,0.3676374885884449
11.078895027624311,0.29514074377756766
11.112265193370167,0.17249004776526108
11.145635359116023,0.01872898098958493
11.179005524861878,-0.13852588929913576
11.212375690607736,-0.27369442118785337
11.245745856353592,-0.3721988393232465
11.279116022099448,-0.4334832626647593
11.312486187845305,-0.46692371070501615
11.345856353591161,-0.4832357018353408
11.379226519337017,-0.4863265372796862
11.412596685082875,-0.4701855434848441
11.44596685082873,-0.42258362539300987
11.479337016574586,-0.3336092465142101
11.512707182320442,-0.20438680345455648
11.5460773480663,-0.05106975041030483
11.579447513812156,0.09854374692117954
11.612817679558011,0.21481468277123028
11.646187845303869,0.2783012778226503
11.679558011049725,0.2884808849899089
11.71292817679558,0.2647271893553172
11.746298342541436,0.23831897875447827
11.779668508287294,0.23828856220749167
11.81303867403315,0.27707789657415227
11.846408839779006,0.3427180438255927
11.879779005524863,0.40190151975405586
11.91314917127072,0.4135752193115026
11.946519337016575,0.3475757677479285
11.979889502762433,0.19991776467119607
12.013259668508288,-0.0026141489754184784
12.046629834254144,-0.2111206653146152
12.08,-0.3727918431267173
12.113370165745858,-0.4505091613398951
12.146740331491714,-0.43534487827832613
12.18011049723757,-0.3472034849570754
12.213480662983427,-0.224490575268543
12.246850828729283,-0.10827753882789773
12.280220994475139,-0.027950059771247662
12.313591160220996,0.0063947254420068005
12.346961325966852,0.003134701412643769
12.380331491712708,-0.01820891951955101
12.413701657458564,-0.03681980933109769
12.447071823204421,-0.038783783520870724
12.480441988950277,-0.020870201892216105
12.513812154696133,0.010703937167554549
12.54718232044199,0.04508028900132812
12.580552486187846,0.07247025700011597
12.613922651933702,0.08810325499605898
12.64729281767956,0.09288441376982985
12.680662983425416,0.09097218977840524
12.714033149171271,0.08600958894288016
12.747403314917127,0.0783214439107685
12.780773480662985,0.06473364180685914
12.81414364640884,0.04111315642503579
12.847513812154697,0.006110161765005504
12.880883977900554,-0.03618385907211371
12.91425414364641,-0.07641496910578296
12.947624309392266,-0.10319578789968799
12.980994475138122,-0.10792063015549999
13.01436464088398,-0.0888165379028429
13.047734806629835,-0.05223897013713946
13.081104972375691,-0.010575455126624347
13.114475138121549,0.02229098233666174
13.147845303867404,0.035989092383752426
13.18121546961326,0.02713093248122796
13.214585635359118,5.4093499016774705e-05
13.247955801104974,-0.035186012088844074
13.28132596685083,-0.06658384308860563
13.314696132596685,-0.08419466310706739
13.348066298342543,-0.08291463068503808
13.381436464088399,-0.06310583759729999
13.414806629834255,-0.02904261522872275
13.448176795580112,0.013884051793716025
13.481546961325968,0.06167877236078463
13.514917127071824,0.11261695935411885
13.548287292817681,0.16608371437009664
13.581657458563537,0.22021867043864596
13.615027624309393,0.2699755322615785
13.648397790055249,0.3069960656698031
13.681767955801106,0.3216510566058506
13.715138121546962,0.30638547871148286
13.748508287292818,0.2588329981038398
13.781878453038676,0.18332435717262846
13.815248618784532,0.09017715221311208
13.848618784530387,-0.006956325180710623
13.881988950276245,-0.09477058312456074
13.9153591160221,-0.1638405103753474
13.948729281767957,-0.21087563273157053
13.982099447513813,-0.23887100682458473
14.01546961325967,-0.25494105593696714
14.048839779005526,-0.26651912359439683
14.082209944751382,-0.27749002248072213
14.11558011049724,-0.2861428024201087
14.148950276243095,-0.28617014093507703
14.182320441988951,-0.27045529349543557
14.215690607734807,-0.23583657507285258
14.249060773480664,-0.18632855071921842
14.28243093922652,-0.1328796783508565
14.315801104972376,-0.0894098225215872
14.349171270718234,-0.06677799597169107
14.38254143646409,-0.06752100831025809
14.415911602209945,-0.08404150808488155
14.449281767955803,-0.10139522201851553
14.482651933701659,-0.10358235551645804
14.516022099447515,-0.08037390540320878
14.54939226519337,-0.031251137744132435
14.582762430939228,0.035565259808455284
14.616132596685084,0.10835866005968343
14.64950276243094,0.17832359497277037
14.682872928176797,0.24328115161394637
14.716243093922653,0.30643507063584224
14.749613259668509,0.3709792402822359
14.782983425414367,0.43406983338782945
14.816353591160222,0.4842879934422543
14.849723756906078,0.5047987942497889
14.883093922651934,0.4810716078445867
14.916464088397792,0.40922158585202095
14.949834254143648,0.3003733084374185
14.983204419889503,0.17830008058039756
15.016574585635361,0.0709379958076089
15.049944751381217,-0.0005601622538322882
15.083314917127073,-0.03032618694556558
15.116685082872928,-0.030049842005254502
15.150055248618786,-0.024062935529054648
15.183425414364642,-0.03938082015983781
15.216795580110498,-0.09484657863502895
15.250165745856355,-0.19367101818145133
15.283535911602211,-0.32208422692415606
15.316906077348067,-0.45429556197948034
15.350276243093925,-0.5615386645209306
15.38364640883978,-0.6215691541143223
15.417016574585636,-0.6250785034315022
15.450386740331492,-0.5769800617534877
15.48375690607735,-0.4927104146217931
15.517127071823205,-0.3915683512117693
15.550497237569061,-0.2898887613729746
15.583867403314919,-0.19636336575092309
15.617237569060775,-0.11059534658105734
15.65060773480663,-0.02479299940979042
15.683977900552488,0.07215514315661457
15.717348066298344,0.18922022300248745
15.7507182320442,0.3276190317335713
15.784088397790056,0.47671981079583986
15.817458563535913,0.6134665613798351
15.85082872928177,0.7068469721283269
15.884198895027625,0.7272289316841828
15.917569060773483,0.6578771604278175
15.950939226519338,0.5039466149952266
15.984309392265194,0.2942514057452886
16.01767955801105,0.0737519745640009
16.051049723756908,-0.11099894135657559
16.084419889502765,-0.22752230762960818
16.11779005524862,-0.26737932917155993
16.151160220994477,-0.24622742806095735
16.18453038674033,-0.19448700921814727
16.21790055248619,-0.14345078288745755
16.251270718232046,-0.113343205614193
16.2846408839779,-0.10823062294247729
16.318011049723758,-0.11891641712186916
16.351381215469615,-0.13113797659805207
16.38475138121547,-0.1343869106671229
16.418121546961327,-0.12719008598822046
16.451491712707185,-0.11702751245338702
16.48486187845304,-0.11574984796991698
16.518232044198896,-0.13308069877185477
16.551602209944754,-0.1710592003513136
16.584972375690608,-0.22144030658948718
16.618342541436466,-0.2668058983793657
16.651712707182323,-0.2849677144326202
16.685082872928177,-0.25536534844217534
16.718453038674035,-0.16562629361068903
16.751823204419892,-0.016341335285443463
16.785193370165747,0.1774689075480809
16.818563535911604,0.388778064577579
16.851933701657458,0.5842552761657877
16.885303867403316,0.7316226920807741
16.918674033149173,0.8066076026055651
16.952044198895027,0.797670496025222
16.985414364640885,0.7074532617844548
17.018784530386743,0.550871854736262
17.052154696132597,0.35068682146548386
17.085524861878454,0.13200836594414989
17.118895027624312,-0.08262642505923862
17.152265193370166,-0.2763155897319051
17.185635359116024,-0.4385172040607668
17.21900552486188,-0.5639345391928084
17.252375690607735,-0.6507261718833338
17.285745856353593,-0.6991955909151247
