Time (s),Filtered Signal
0.0,0.05571240771983803
0.03337004405286344,0.07943955901108848
0.06674008810572687,0.10609747017092534
0.10011013215859031,0.1366955156339322
0.13348017621145375,0.16846558419194535
0.16685022026431717,0.19579288817112095
0.20022026431718062,0.21277748880006245
0.23359030837004408,0.21595456173029196
0.2669603524229075,0.2054866654924099
0.3003303964757709,0.18397759044274903
0.33370044052863435,0.1535988292979847
0.3670704845814978,0.11354310125293808
0.40044052863436125,0.05994231366222338
0.43381057268722467,-0.011001458205792701
0.46718061674008815,-0.09809479722538797
0.5005506607929515,-0.1914320212035251
0.533920704845815,-0.2727093188683283
0.5672907488986785,-0.32045680362391893
0.6006607929515418,-0.31836439303003716
0.6340308370044053,-0.26293136254059557
0.6674008810572687,-0.16660107344534208
0.7007709251101322,-0.05447448962647553
0.7341409691629956,0.044299461423944676
0.767511013215859,0.10679304347470066
0.8008810572687225,0.1237588448644958
0.834251101321586,0.10118500742725049
0.8676211453744493,0.05568395164679439
0.9009911894273128,0.006261275897973827
0.9343612334801763,-0.03359605535334901
0.9677312775330397,-0.06015025542614577
1.001101321585903,-0.07864172448626515
1.0344713656387665,-0.09854878346231359
1.06784140969163,-0.12746837135815725
1.1012114537444935,-0.16644001818259763
1.134581497797357,-0.20859030101430737
1.1679515418502202,-0.24143608484778945
1.2013215859030837,-0.2517153798088511
1.2346916299559472,-0.23070519932138775
1.2680616740088106,-0.17787162640481355
1.3014317180616741,-0.10137678393915879
1.3348017621145374,-0.015219125384651535
1.3681718061674009,0.06583029784485506
1.4015418502202643,0.13138050769588488
1.4349118942731278,0.17849493044218698
1.4682819383259913,0.21145388272357052
1.5016519823788548,0.23848205410517326
1.535022026431718,0.2670752122584057
1.5683920704845815,0.30009987050060444
1.601762114537445,0.3343285778888906
1.6351321585903085,0.36183712650225447
1.668502202643172,0.3734080835830591
1.7018722466960352,0.36237722964783353
1.7352422907488987,0.32743547266226547
1.7686123348017622,0.27351596496705993
1.8019823788546256,0.21062416564259717
1.8353524229074891,0.15101419012043688
1.8687224669603526,0.10544436103817702
1.9020925110132159,0.07946268209213868
1.9354625550660793,0.07082469533112609
1.9688325991189428,0.06912596616271402
2.002202643171806,0.05833896857346767
2.0355726872246698,0.022050691977096415
2.068942731277533,-0.05004505270359386
2.1023127753303967,-0.1568900959174419
2.13568281938326,-0.2846148892220851
2.1690528634361232,-0.41016572851658417
2.202422907488987,-0.5089571760384047
2.23579295154185,-0.5634005368653413
2.269162995594714,-0.5685713203811938
2.302533039647577,-0.5326554862027847
2.3359030837004404,-0.4723895987020929
2.369273127753304,-0.4060023274192169
2.4026431718061674,-0.3469544921893604
2.436013215859031,-0.3008277438473831
2.4693832599118943,-0.2657978014824196
2.5027533039647576,-0.23542950596509155
2.5361233480176213,-0.20190172348724908
2.5694933920704845,-0.15830452458798397
2.6028634361233483,-0.09975688161815925
2.6362334801762115,-0.02394616439234106
2.6696035242290748,0.06823981546355723
2.7029735682819385,0.17196835751315293
2.7363436123348017,0.27836584383323537
2.7697136563876654,0.3760152720492782
2.8030837004405287,0.4542350352331435
2.8364537444933924,0.5069925073638704
2.8698237885462556,0.5353324048926748
2.903193832599119,0.5464771081022968
2.9365638766519826,0.5494155665444392
2.969933920704846,0.5489683871431075
3.0033039647577096,0.5416150427061758
3.036674008810573,0.5158156202515751
3.070044052863436,0.45728044945975616
3.1034140969162998,0.35685923556985716
3.136784140969163,0.2170449759779324
3.1701541850220267,0.0535509351041141
3.20352422907489,-0.10914846152894726
3.2368942731277532,-0.24632786188454964
3.270264317180617,-0.3415410972496888
3.30363436123348,-0.3912548704951399
3.337004405286344,-0.4038102492370633
3.370374449339207,-0.39383060762524336
3.4037444933920704,-0.37523746127675206
3.437114537444934,-0.3562370968032524
3.4704845814977974,-0.3381201658049799
3.503854625550661,-0.3174979914370877
3.5372246696035243,-0.2899407246520231
3.5705947136563876,-0.25268316883291825
3.6039647577092513,-0.2051100131430183
3.6373348017621145,-0.14739118607784504
3.6707048458149782,-0.07890270728314949
3.7040748898678415,0.0017985974024449015
3.737444933920705,0.09476523985170261
3.7708149779735685,0.19522923015918967
3.8041850220264317,0.2912562020027597
3.8375550660792954,0.3647742405134996
3.8709251101321587,0.396724970299774
3.9042951541850224,0.3747012993070779
3.9376651982378856,0.2995466505642257
3.971035242290749,0.1872336241825693
4.004405286343612,0.06427160297099045
4.037775330396476,-0.041934466465200604
4.0711453744493395,-0.11359305103839214
4.104515418502203,-0.14893955255832095
4.137885462555066,-0.1613643170942047
4.171255506607929,-0.17160321254883726
4.2046255506607935,-0.196838538569435
4.237995594713657,-0.2421461975184283
4.27136563876652,-0.2984944569849219
4.304735682819383,-0.34804912858537246
4.3381057268722465,-0.3736921141455661
4.371475770925111,-0.36749342594955037
4.404845814977974,-0.333591901496454
4.438215859030837,-0.2841739054888109
4.4715859030837,-0.23121174516871892
4.504955947136564,-0.1790749003008046
4.538325991189428,-0.12258453731130056
4.571696035242291,-0.051766645482760665
4.605066079295154,0.03962523722222755
4.638436123348018,0.14725540858774622
4.671806167400881,0.2556523522972251
4.705176211453745,0.34484123529004795
4.738546255506608,0.40059332172361134
4.7719162995594715,0.42228876235159163
4.805286343612335,0.42349219861434706
4.838656387665198,0.4243870251906498
4.872026431718062,0.4399052259238555
4.905396475770925,0.47007284331811344
4.938766519823789,0.4982204357647442
4.972136563876652,0.49865841107934383
5.005506607929515,0.4502951158708063
5.038876651982379,0.34923699608270453
5.072246696035243,0.2136041196136197
5.105616740088106,0.07765811930892962
5.138986784140969,-0.02212956683295796
5.172356828193832,-0.06225966946445862
5.2057268722466965,-0.041320193166349335
5.23909691629956,0.020879561487389647
5.272466960352423,0.09277572606780506
5.305837004405286,0.14359457490622815
5.3392070484581495,0.15268866530400893
5.372577092511014,0.1121298682839003
5.405947136563877,0.023384067051236527
5.43931718061674,-0.10785299093189744
5.4726872246696034,-0.27430297931565495
5.506057268722468,-0.4655399476378782
5.539427312775331,-0.6642420432481099
5.572797356828194,-0.8445523850903751
5.606167400881057,-0.9760324406764133
5.639537444933921,-1.0331428360326271
5.672907488986785,-1.0060429894555587
5.706277533039648,-0.9064727221281471
5.739647577092511,-0.7641860428424948
5.7730176211453745,-0.6142742111539071
5.806387665198238,-0.4811128482500453
5.839757709251102,-0.3673294498332206
5.873127753303965,-0.25417539275002804
5.9064977973568284,-0.11375153189833599
5.939867841409692,0.07307634720988108
5.973237885462555,0.3026163940610612
6.006607929515419,0.5457084685221498
6.039977973568282,0.7578459245624909
6.073348017621146,0.8966777494204502
6.106718061674009,0.9381811412313031
6.140088105726872,0.8844353716958513
6.173458149779736,0.7609494871906389
6.2068281938325995,0.6065532324678482
6.240198237885463,0.4612186665378354
6.273568281938326,0.35629009434542924
6.306938325991189,0.30895359512840304
6.3403083700440535,0.32048537650337017
6.373678414096917,0.37710902574812344
6.40704845814978,0.45291990226809825
6.440418502202643,0.5150977714185825
6.4737885462555065,0.5314487972230156
6.507158590308371,0.4790789913615547
6.540528634361234,0.35159931191207844
6.573898678414097,0.16190631166761438
6.60726872246696,-0.06112362475168089
6.640638766519824,-0.28122316672241093
6.674008810572688,-0.4654557005827886
6.707378854625551,-0.5929785309688395
6.740748898678414,-0.658726280747715
6.774118942731278,-0.6712355777527522
6.807488986784141,-0.6463311347512078
6.840859030837005,-0.5998574973703472
6.874229074889868,-0.5425102874447951
6.9075991189427315,-0.47837187766461364
6.940969162995595,-0.40685424607021003
6.974339207048458,-0.3263413316707663
7.007709251101322,-0.23745465967024945
7.041079295154185,-0.14449429083615042
7.074449339207049,-0.05473030932406939
7.107819383259912,0.02377628710206355
7.141189427312775,0.08466475721769069
7.174559471365639,0.12502710752130233
7.207929515418503,0.14586491835637608
7.241299559471366,0.15128071099594553
7.274669603524229,0.14687585451517512
7.308039647577092,0.13800077000504077
7.3414096916299565,0.1284092749595304
7.37477973568282,0.11961049009102562
7.408149779735683,0.11093661425828963
7.441519823788546,0.10015831026610553
7.47488986784141,0.0843977229620106
7.508259911894274,0.06107965928713044
7.541629955947137,0.028707474629592448
7.575,-0.012650242139906866
7.608370044052863,-0.061160952749430446
7.641740088105728,-0.11326003426448829
7.675110132158591,-0.16389301017159544
7.708480176211454,-0.20701407054211102
7.741850220264317,-0.2363694802396102
7.775220264317181,-0.24645578265267062
7.808590308370045,-0.23338548694342512
7.841960352422908,-0.19538540920707106
7.875330396475771,-0.1328604956778995
7.9087004405286345,-0.04823938512432609
7.942070484581498,0.054073570323353776
7.975440528634362,0.16751044491441025
8.008810572687224,0.2831489475919964
8.042180616740088,0.38998899939223675
8.075550660792953,0.4760884673852846
8.108920704845815,0.5305977138214376
8.142290748898679,0.546290363279985
8.175660792951541,0.5218285355789801
8.209030837004406,0.4628514049955715
8.24240088105727,0.3811524736989101
8.275770925110132,0.29177889282011066
8.309140969162996,0.20873442440023493
8.342511013215859,0.14075112970988116
8.375881057268723,0.08886712528669262
8.409251101321587,0.04702390824651479
8.44262114537445,0.005668101673911867
8.475991189427313,-0.04309486311359312
8.509361233480176,-0.10117596014111854
8.54273127753304,-0.1632110537853719
8.576101321585904,-0.2191291330785323
8.609471365638766,-0.2594168137912689
8.64284140969163,-0.28037167125068235
8.676211453744493,-0.2864755694451467
8.709581497797357,-0.28844670346815576
8.742951541850221,-0.297827364262212
8.776321585903084,-0.32087294963288937
8.809691629955948,-0.3549535100058717
8.84306167400881,-0.3894039365178032
8.876431718061674,-0.4104632938422964
8.909801762114538,-0.4078663644759363
8.9431718061674,-0.3798537021490459
8.976541850220265,-0.3341770965281963
9.009911894273127,-0.2845971981551624
9.043281938325991,-0.24443645747464016
9.076651982378856,-0.22005377294891826
9.110022026431718,-0.20716005865800555
9.143392070484582,-0.19173673653816362
9.176762114537445,-0.15542703836687385
9.210132158590309,-0.08336880367126835
9.243502202643173,0.028720563202498547
9.276872246696035,0.1712818149709307
9.3102422907489,0.32308603530528707
9.343612334801762,0.45814066616515114
9.376982378854626,0.5544501196931466
9.41035242290749,0.6008027255862487
9.443722466960352,0.5986696847643387
9.477092511013216,0.5587640199765077
9.510462555066079,0.49455762192909714
9.543832599118943,0.41652822839259385
9.577202643171807,0.33019708518757274
9.61057268722467,0.2385095386875142
9.643942731277534,0.14632368338356805
9.677312775330396,0.06343013804239486
9.71068281938326,0.0034557074126465377
9.744052863436124,-0.02139290016305885
9.777422907488987,-0.00712035127143569
9.81079295154185,0.03751825010510315
9.844162995594713,0.09157291450873119
9.877533039647577,0.12794609237019164
9.910903083700441,0.12271118443103338
9.944273127753304,0.06396267977618546
9.977643171806168,-0.04334617387187359
10.01101321585903,-0.17843830750729203
10.044383259911895,-0.31115755722903005
10.077753303964759,-0.4114077693952851
10.111123348017621,-0.45828876038951094
10.144493392070485,-0.4459729331761234
10.177863436123348,-0.3846217665198562
10.211233480176212,-0.2963072477902408
10.244603524229076,-0.2074858792217363
10.277973568281938,-0.14063405953595298
10.311343612334802,-0.10783838747754244
10.344713656387665,-0.10832059930931355
10.378083700440529,-0.13034741036014078
10.411453744493393,-0.15637489278844788
10.444823788546255,-0.16928862747695755
10.47819383259912,-0.1575653324600492
10.511563876651982,-0.11794256659655575
10.544933920704846,-0.05525346168448145
10.57830396475771,0.020022156029701945
10.611674008810573,0.09545697573337499
10.645044052863437,0.16049139989595496
10.678414096916299,0.20936201951554803
10.711784140969163,0.24239286804457955
10.745154185022027,0.2652427246139605
10.77852422907489,0.2861585012091866
10.811894273127754,0.31186988425770573
10.845264317180618,0.3434015047409824
10.87863436123348,0.3735275083402606
10.912004405286345,0.3874539509591211
10.945374449339207,0.3672981973049329
10.978744493392071,0.29921797984609716
11.012114537444935,0.18039995001261067
11.045484581497798,0.02258299240483243
11.078854625550662,-0.1500193929215327
11.112224669603524,-0.3079822717935091
11.145594713656388,-0.42609095463690294
11.178964757709252,-0.49073756974639293
11.212334801762115,-0.5021554101401606
11.245704845814979,-0.4710408430441765
11.279074889867841,-0.41189317622367505
11.312444933920705,-0.3367297415244498
11.34581497797357,-0.2521022856208583
11.379185022026432,-0.16017100093281114
11.412555066079296,-0.062337251919197575
11.445925110132158,0.0371826220432614
11.479295154185023,0.13002770899228622
11.512665198237887,0.20531294207735998
11.546035242290749,0.2533445070917926
11.579405286343613,0.26970061036526577
11.612775330396476,0.25794182466776305
11.64614537444934,0.22978352815347328
11.679515418502204,0.20233962060724545
11.712885462555066,0.1928778891208945
11.74625550660793,0.21240508062528202
11.779625550660793,0.26018968662712344
11.812995594713657,0.32163498026426346
11.846365638766521,0.37126487138484965
11.879735682819383,0.3808434168575461
11.913105726872248,0.3303116275334245
11.94647577092511,0.21735338359425352
11.979845814977974,0.06113262695777892
12.013215859030838,-0.10239270392856391
12.0465859030837,-0.23271770733519884
12.079955947136565,-0.3001863010177828
12.113325991189427,-0.2982321569383533
12.146696035242291,-0.2469984745842383
12.180066079295155,-0.18622293608084206
12.213436123348018,-0.1597245945259398
12.246806167400882,-0.1974412433955163
12.280176211453744,-0.3021791580753851
12.313546255506608,-0.4465341846474584
12.346916299559473,-0.5815189728221904
12.380286343612335,-0.653854658177864
12.413656387665199,-0.6254506916651408
12.447026431718061,-0.48765007866796306
12.480396475770926,-0.26477777368410294
12.51376651982379,-0.005705236151788461
12.547136563876652,0.23309712614220413
12.580506607929516,0.4062058223106637
12.613876651982379,0.49234967380088007
12.647246696035243,0.49743711854606415
12.680616740088107,0.44750178176356165
12.71398678414097,0.37574255561041525
12.747356828193833,0.30972162363824846
12.780726872246696,0.2637064437662238
12.81409691629956,0.23798904708744661
12.847466960352424,0.22363994649495975
12.880837004405286,0.20925123121463687
12.91420704845815,0.18640498503949418
12.947577092511013,0.15222436557008495
12.980947136563877,0.10915191743451923
13.014317180616741,0.06305976721883914
13.047687224669604,0.020760649812958096
13.081057268722468,-0.012504885839833469
13.11442731277533,-0.035306176091833764
13.147797356828194,-0.051481151394822226
13.181167400881058,-0.06993968167200325
13.21453744493392,-0.10201331514323639
13.247907488986785,-0.15648291174787193
13.281277533039647,-0.23394394886561676
13.314647577092511,-0.32336934028201786
13.348017621145376,-0.40352562496399486
13.381387665198238,-0.4498766622629469
13.414757709251102,-0.44455506990564014
13.448127753303964,-0.38465039176971666
13.481497797356829,-0.28416119529534883
13.514867841409693,-0.1679185096480533
13.548237885462555,-0.06020522570488205
13.58160792951542,0.025922206981308763
13.614977973568282,0.0926476701582586
13.648348017621146,0.15243203054965315
13.68171806167401,0.2170224363336044
13.715088105726872,0.287117264511496
13.748458149779736,0.3492085977897104
13.781828193832599,0.38200045736604926
13.815198237885463,0.3690704922586302
13.848568281938327,0.3105046958154187
13.88193832599119,0.2264747544427076
13.915308370044054,0.15006148608396946
13.948678414096916,0.1125587697330221
13.98204845814978,0.12863464719344522
14.015418502202644,0.18881843120641784
14.048788546255507,0.2629397578846498
14.08215859030837,0.31263764852076975
14.115528634361233,0.3068648669470522
14.148898678414097,0.23343169008661038
14.182268722466961,0.10213474527170979
14.215638766519824,-0.060736713919989534
14.249008810572688,-0.22300829339836226
14.28237885462555,-0.3573223623364767
14.315748898678414,-0.44792712651946404
14.349118942731279,-0.49208587594707315
14.382488986784141,-0.4971476757533392
14.415859030837005,-0.47562180106767143
14.449229074889868,-0.4404618140590778
14.482599118942732,-0.4017836273260207
14.515969162995596,-0.3652385372561721
14.549339207048458,-0.33173443497832306
14.582709251101322,-0.2981507725428584
14.616079295154185,-0.25883594937471543
14.649449339207049,-0.2077248614230605
14.682819383259913,-0.14076414216139396
14.716189427312775,-0.05806542416441596
14.74955947136564,0.03498799874318061
14.782929515418502,0.1283781149486804
14.816299559471366,0.21006360329121684
14.84966960352423,0.27000481060351483
14.883039647577093,0.3042142491630184
14.916409691629957,0.3170252633514082
14.94977973568282,0.3201383918574086
14.983149779735683,0.32820736437810666
15.016519823788547,0.35234986026985593
15.04988986784141,0.3942546447506334
15.083259911894274,0.443761270773026
15.116629955947138,0.4815949865159337
15.15,0.48671235388011724
15.183370044052865,0.44541945687956985
15.216740088105727,0.3582157924297431
15.250110132158591,0.24094741412966056
15.283480176211455,0.11923126402475301
15.316850220264318,0.01824202055981364
15.350220264317182,-0.04766339768596383
15.383590308370044,-0.08064714153428021
15.416960352422908,-0.09759642362483102
15.450330396475772,-0.12153827004919877
15.483700440528635,-0.170264937248197
15.517070484581499,-0.24753350738077817
15.550440528634361,-0.34090782861645047
15.583810572687225,-0.42704944070511003
15.61718061674009,-0.48174196077822384
15.650550660792952,-0.4899056128342435
15.683920704845816,-0.4511999734608358
15.717290748898678,-0.37915255948460447
15.750660792951543,-0.2947972229762341
15.784030837004407,-0.2180855619291749
15.817400881057269,-0.16090450399783365
15.850770925110133,-0.12434503367260531
15.884140969162996,-0.10067373853765116
15.91751101321586,-0.07838014689710196
15.950881057268724,-0.047645385549117236
15.984251101321586,-0.003933676039952533
16.01762114537445,0.05124078358598648
16.050991189427315,0.1118320421461139
16.084361233480177,0.1697231327334781
16.11773127753304,0.21695803267579897
16.151101321585905,0.2473363842960835
16.184471365638768,0.25758945047665116
16.21784140969163,0.24835061513666631
16.251211453744492,0.2246127929674772
16.284581497797358,0.19494015880934393
16.31795154185022,0.1689545546913927
16.351321585903083,0.1535817990155104
16.38469162995595,0.14961082632182404
16.41806167400881,0.1504584892203977
16.451431718061674,0.1442234633503238
16.48480176211454,0.11850063565584093
16.518171806167402,0.06593381350911978
16.551541850220264,-0.01200051735329613
16.584911894273127,-0.10467858638302739
16.618281938325993,-0.19555705106432122
16.651651982378855,-0.2674603879069117
16.685022026431717,-0.30771832726560316
16.718392070484583,-0.3112728296127354
16.751762114537446,-0.28093094726303625
16.785132158590308,-0.22513173219701657
16.818502202643174,-0.15442457619877342
16.851872246696036,-0.07811003767948763
16.8852422907489,-0.002212127076196395
16.91861233480176,0.0706966030116734
16.951982378854627,0.140079599683662
16.98535242290749,0.20533805005058045
17.01872246696035,0.2641761461588567
17.052092511013218,0.312281188949383
17.08546255506608,0.34447204062792175
17.118832599118942,0.3567233441142524
17.152202643171808,0.34805418487881234
17.18557268722467,0.3213524871683928
17.218942731277533,0.2826908385820454
17.2523127753304,0.23931357477126133
