Frequency (Hz),Amplitude
0.0,5.726429720039409
0.01993355481727575,5.727313326922455
0.0398671096345515,5.729959897115148
0.059800664451827246,5.734356712205473
0.079734219269103,5.74048268414425
0.09966777408637874,5.748308517281699
0.11960132890365449,5.757796931442629
0.13953488372093023,5.768902942409449
0.159468438538206,5.781574195343386
0.17940199335548174,5.795751345971077
0.19933554817275748,5.8113684838115836
0.21926910299003324,5.828353591326699
0.23920265780730898,5.8466290326478285
0.25913621262458475,5.866112065460925
0.27906976744186046,5.8867153697071695
0.29900332225913623,5.908347586966259
0.318936877076412,5.930913864713397
0.3388704318936877,5.954316400059223
0.3588039867109635,5.978454978072602
0.37873754152823924,6.003227500327571
0.39867109634551495,6.028530499886912
0.4186046511627907,6.054259639516763
0.4385382059800665,6.080310190502809
0.4584717607973422,6.106577489994168
0.47840531561461797,6.132957375325348
0.49833887043189373,6.159346594250316
0.5182724252491695,6.185643190460219
0.5382059800664452,6.211746864143909
0.5581395348837209,6.2375593076862295
0.5780730897009968,6.26298451688411
0.5980066445182725,6.287929078295642
0.6179401993355482,6.312302433525904
0.637873754152824,6.336017121398668
0.6578073089700996,6.358988999069225
0.6777408637873754,6.381137443204961
0.6976744186046512,6.402385532401175
0.717607973421927,6.422660212014261
0.7375415282392027,6.441892442587079
0.7574750830564785,6.460017333015543
0.7774086378737541,6.476974259564915
0.7973421926910299,6.492706971792009
0.8172757475083057,6.507163686367778
0.8372093023255814,6.520297169726688
0.8571428571428572,6.532064810395766
0.877076411960133,6.542428681779669
0.8970099667774087,6.55135559609937
0.9169435215946844,6.558817150102086
0.9368770764119602,6.564789763079858
0.9568106312292359,6.569254707653811
0.9767441860465116,6.572198133701407
0.9966777408637875,6.57361108572456
1.0166112956810631,6.573489513877762
1.036544850498339,6.571834278797199
1.0564784053156147,6.568651150293821
1.0764119601328903,6.563950799895871
1.0963455149501662,6.557748787148436
1.1162790697674418,6.550065539499961
1.1362126245847177,6.540926325527198
1.1561461794019936,6.530361221171597
1.176079734219269,6.518405068580676
1.196013289036545,6.505097427068442
1.2159468438538206,6.490482515628994
1.2358803986710964,6.474609146357806
1.255813953488372,6.4575306480561805
1.275747508305648,6.439304779216999
1.2956810631229239,6.41999362951516
1.3156146179401993,6.399663508855125
1.3355481727574752,6.378384822963104
1.3554817275747508,6.356231934453811
1.3754152823920267,6.333283008254436
1.3953488372093024,6.30961984023417
1.4152823920265782,6.285327667869277
1.435215946843854,6.260494961775047
1.4551495016611296,6.235213196960851
1.4750830564784054,6.209576602716913
1.495016611295681,6.183681890125887
1.514950166112957,6.157627956312787
1.5348837209302328,6.131515564707916
1.5548172757475083,6.105447000802505
1.5747508305647842,6.079525703129473
1.5946843853820598,6.053855869504044
1.6146179401993357,6.028542038912196
1.6345514950166113,6.003688649838752
1.6544850498338872,5.979399576278591
1.6744186046511629,5.955777643170378
1.6943521594684385,5.932924123524192
1.7142857142857144,5.910938220074099
1.73421926910299,5.889916534860809
1.754152823920266,5.869952530723414
1.7740863787375416,5.851135989235302
1.7940199335548175,5.833552470138055
1.8139534883720931,5.817282777787411
1.8338870431893688,5.802402440505993
1.8538205980066447,5.788981209016726
1.8737541528239203,5.777082580289702
1.893687707641196,5.766763353156462
1.9136212624584719,5.758073221916425
1.9335548172757475,5.751054413872329
1.9534883720930232,5.7457413762840455
1.9734219269102993,5.742160517626297
1.993355481727575,5.740330007288112
2.0132890365448506,5.740259636978159
2.0332225913621262,5.741950746124161
2.0531561461794023,5.745396212506418
2.073089700996678,5.750580508277046
2.0930232558139537,5.757479820423759
2.1129568106312293,5.766062233674178
2.132890365448505,5.776287972838225
2.1528239202657806,5.788109700681654
2.1727574750830567,5.801472866639887
2.1926910299003324,5.816316101036411
2.212624584717608,5.83257164897947
2.2325581395348837,5.850165837778511
2.25249169435216,5.869019571550045
2.2724252491694354,5.889048846663403
2.292358803986711,5.910165281799161
2.312292358803987,5.932276656640766
2.332225913621263,5.9552874535745675
2.352159468438538,5.979099397213157
2.3720930232558137,6.003611987061605
2.39202657807309,6.028723019193036
2.4119601328903655,6.054329093370501
2.431893687707641,6.080326102626901
2.4518272425249172,6.106609702879121
2.471760797342193,6.13307576069265
2.4916943521594686,6.159620777818842
2.511627906976744,6.186142291591085
2.5315614617940203,6.212539250682704
2.551495016611296,6.238712366096376
2.5714285714285716,6.264564437571001
2.5913621262458477,6.29000065585723
2.611295681063123,6.3149288815313716
2.6312292358803986,6.339259901189094
2.6511627906976742,6.362907661992378
2.6710963455149503,6.385789485636257
2.691029900332226,6.407826262863272
2.7109634551495017,6.428942629685008
2.7308970099667778,6.449067126478155
2.7508305647840534,6.468132341108518
2.770764119601329,6.486075037207042
2.7906976744186047,6.50283626867715
2.810631229235881,6.518361481458367
2.8305647840531565,6.532600603507724
2.850498338870432,6.5455081238914286
2.870431893687708,6.557043161805056
2.8903654485049834,6.567169526264241
2.910299003322259,6.575855767129124
2.9302325581395348,6.583075218046323
2.950166112956811,6.588806031812708
2.9700996677740865,6.593031208585379
2.990033222591362,6.595738617283408
3.0099667774086383,6.596921010448293
3.029900332225914,6.596576032751734
3.0498338870431896,6.594706223262273
3.0697674418604657,6.591319011504862
3.089700996677741,6.586426707270382
3.1096345514950166,6.580046484055449
3.129568106312292,6.572200355935283
3.1495016611295683,6.562915147595174
3.169435215946844,6.552222457168396
3.1893687707641196,6.540158611449877
3.2093023255813957,6.526764612977087
3.2292358803986714,6.51208607839098
3.249169435215947,6.4961731674125565
3.2691029900332227,6.479080501693906
3.289036544850499,6.460867072728355
3.3089700996677744,6.441596137933697
3.32890365448505,6.421335103955823
3.3488372093023258,6.4001553961808915
3.3687707641196014,6.378132313393016
3.388704318936877,6.355344866474984
3.4086378737541527,6.331875600023771
3.428571428571429,6.3078103957444664
3.4485049833887045,6.283238256498796
3.46843853820598,6.258251069921713
3.4883720930232562,6.2329433505855905
3.508305647840532,6.207411959790374
3.5282392026578075,6.181755802194071
3.548172757475083,6.156075498674246
3.5681063122923593,6.130473035032402
3.588039867109635,6.105051386420455
3.60797342192691,6.079914117685036
3.6279069767441863,6.055164960190482
3.647840531561462,6.030907366094516
3.6677740863787376,6.007244041508219
3.6877076411960132,5.984276460468908
3.7076411960132893,5.962104362182711
3.727574750830565,5.940825234543337
3.7475083056478407,5.920533787490602
3.7674418604651168,5.901321420322506
3.787375415282392,5.883275687599333
3.807308970099668,5.866479768758556
3.8272425249169437,5.851011946974629
3.8471760797342194,5.836945103127463
3.867109634551495,5.824346230967944
3.887043189368771,5.813275979669867
3.9069767441860463,5.803788229921153
3.9269102990033224,5.795929709522087
3.9468438538205985,5.7897396541191855
3.9667774086378738,5.785249518211131
3.98671096345515,5.782482740924504
4.0066445182724255,5.781454570285496
4.026578073089701,5.782171948828739
4.046511627906977,5.784633462411279
4.0664451827242525,5.78882935306758
4.086378737541528,5.794741595682851
4.106312292358805,5.8023440372106
4.1262458471760795,5.811602596149716
4.146179401993356,5.822475519057393
4.166112956810632,5.83491369003494
4.186046511627907,5.848860988406737
4.205980066445183,5.864254689234892
4.225913621262459,5.881025900884833
4.245847176079734,5.899100033583541
4.26578073089701,5.91839729279105
4.2857142857142865,5.938833191228782
4.305647840531561,5.960319073563613
4.325581395348838,5.9827626480169895
4.345514950166113,6.006068519536405
4.365448504983389,6.030138719610891
4.385382059800665,6.054873228312599
4.40531561461794,6.0801704846832925
4.425249169435216,6.105927882138337
4.445182724252492,6.132042246115407
4.465116279069767,6.158410291735933
4.485049833887043,6.184929059761956
4.50498338870432,6.211496329611549
4.524916943521594,6.238011008633825
4.544850498338871,6.264373497237104
4.5647840531561465,6.290486029807292
4.584717607973422,6.316252991648847
4.604651162790698,6.341581212427371
4.624584717607974,6.366380236794485
4.644518272425249,6.3905625730340825
4.664451827242526,6.414043920688676
4.6843853820598005,6.436743378208761
4.704318936877076,6.458583631721687
4.724252491694353,6.479491126042575
4.7441860465116275,6.499396219053454
4.764119601328904,6.518233320560645
4.78405315614618,6.535941016708844
4.803986710963455,6.552462180985429
4.823920265780731,6.567744072794077
4.8438538205980075,6.581738424514047
4.863787375415282,6.594401517893543
4.883720930232559,6.605694250552741
4.9036544850498345,6.615582193297577
4.92358803986711,6.6240356388680235
4.943521594684386,6.631029642667196
4.963455149501661,6.636544055939644
4.983388704318937,6.64056355178923
5.003322259136213,6.643077644349515
5.023255813953488,6.6440807013426255
5.043189368770764,6.643571950186022
5.063122923588041,6.641555477730374
5.083056478405315,6.638040223636127
5.102990033222592,6.633039967320658
5.122923588039868,6.6265733083324685
5.142857142857143,6.618663639933018
5.162790697674419,6.609339115591422
5.182724252491695,6.598632608020996
5.20265780730897,6.586581660311022
5.222591362126246,6.573228428631192
5.242524916943522,6.558619615911301
5.262458471760797,6.5428063958244795
5.282392026578074,6.525844326330488
5.3023255813953485,6.5077932519660315
5.322259136212625,6.488717194004369
5.342192691029901,6.468684227546813
5.362126245847176,6.447766344557313
5.382059800664452,6.426039301808857
5.4019933554817285,6.403582452681331
5.421926910299003,6.3804785617354325
5.44186046511628,6.3568136009915595
5.4617940199335555,6.332676526867791
5.48172757475083,6.30815903678266
5.501661129568107,6.283355304508734
5.5215946843853825,6.258361693476133
5.541528239202658,6.23327644737616
5.561461794019934,6.208199357604991
5.5813953488372094,6.18323140732091
5.601328903654485,6.158474392166949
5.621262458471762,6.134030518034682
5.641196013289036,6.110001976614737
5.661129568106313,6.086490499892454
5.681063122923589,6.06359689519936
5.700996677740864,6.0414205629174615
5.72093023255814,6.020058999442975
5.740863787375416,5.999607288541419
5.760797342192691,5.9801575847507795
5.780730897009967,5.961798593000258
5.800664451827243,5.944615049090722
5.820598006644518,5.928687206111497
5.840531561461795,5.914090332226847
5.8604651162790695,5.900894225536088
5.880398671096346,5.889162751875458
5.900332225913622,5.878953411472961
5.920265780730897,5.870316940276211
5.940199335548173,5.8632969515408115
5.960132890365449,5.857929622889812
5.980066445182724,5.854243433535572
6.0,5.852258955703616
6.0199335548172765,5.8519887035275575
6.039867109634551,5.853437041815401
6.059800664451828,5.856600156145322
6.0797342192691035,5.861466084761308
6.099667774086379,5.868014811737482
6.119601328903655,5.87621841989421
6.139534883720931,5.886041301011658
6.159468438538206,5.897440420023772
6.179401993355482,5.9103656291132864
6.1993355481727574,5.924760026985361
6.219269102990033,5.9405603580882795
6.23920265780731,5.95769744618271
6.259136212624584,5.976096656437783
6.279069767441861,5.995678380150996
6.299003322259137,6.01635853623952
6.318936877076412,6.038049083822234
6.338870431893688,6.060658540487368
6.3588039867109645,6.084092501204099
6.378737541528239,6.108254153266954
6.398671096345516,6.1330447831420125
6.418604651162791,6.158364271594147
6.438538205980066,6.184111573998677
6.458471760797343,6.210185183262765
6.4784053156146175,6.2364835732895365
6.498338870431894,6.262905621399788
6.51827242524917,6.289351008574951
6.538205980066445,6.315720596793252
6.558139534883721,6.341916783096901
6.578073089700998,6.367843830347892
6.598006644518272,6.39340817490442
6.617940199335549,6.418518711679497
6.6378737541528245,6.443087057230676
6.6578073089701,6.467027791676889
6.677740863787376,6.490258680349421
6.6976744186046515,6.512700876162332
6.717607973421927,6.534279103736774
6.737541528239203,6.554921826337826
6.7574750830564785,6.574561396685112
6.777408637873754,6.593134192682876
6.797342192691031,6.610580739084854
6.8172757475083055,6.626845816066724
6.837209302325582,6.641878555626758
6.857142857142858,6.655632526675861
6.877076411960133,6.668065809612901
6.897009966777409,6.679141061112324
6.9169435215946855,6.688825569778932
6.93687707641196,6.697091303251146
6.956810631229236,6.703914947259385
6.9767441860465125,6.709277937071033
6.996677740863787,6.713166481678435
7.016611295681064,6.715571581011268
7.036544850498339,6.716489036380155
7.056478405315615,6.715919454284222
7.076411960132891,6.713868243641363
7.096345514950166,6.7103456064265234
7.116279069767442,6.705366521630055
7.136212624584719,6.6989507223749944
7.156146179401993,6.69112266595917
7.17607973421927,6.681911496515103
7.196013289036546,6.671350999908047
7.21594684385382,6.659479550420179
7.235880398671097,6.646340048697491
7.2558139534883725,6.631979850365449
7.275747508305648,6.61645068465105
7.295681063122924,6.599808562282974
7.3156146179402,6.582113671879448
7.335548172757475,6.563430263976354
7.355481727574752,6.5438265217978655
7.3754152823920265,6.523374417829961
7.395348837209303,6.502149555226267
7.415282392026579,6.48023099305784
7.435215946843854,6.457701054416721
7.45514950166113,6.434645116400288
7.475083056478406,6.411151381043048
7.495016611295681,6.387310626327499
7.514950166112956,6.363215936499849
7.5348837209302335,6.338962411043002
7.554817275747508,6.314646851821036
7.574750830564784,6.290367428109718
7.5946843853820605,6.266223319467781
7.614617940199336,6.242314336685846
7.634551495016611,6.21874052137296
7.6544850498338874,6.195601725105038
7.674418604651163,6.172997169460312
7.694352159468439,6.151024988701722
7.714285714285715,6.129781757326322
7.73421926910299,6.109362005179887
7.754152823920266,6.0898577233197155
7.774086378737542,6.071357864286783
7.794019933554818,6.053947840905978
7.813953488372093,6.0377090281536905
7.83388704318937,6.022718272998476
7.853820598006645,6.009047417416049
7.8737541528239205,5.996762839987739
7.893687707641197,5.985925021596809
7.913621262458472,5.976588140726185
7.9335548172757475,5.968799703727007
7.953488372093024,5.9626002151605295
7.9734219269103,5.958022892920678
7.9933554817275745,5.9550934323207825
8.013289036544851,5.953829822688243
8.033222591362128,5.954242219269335
8.053156146179402,5.956332872421833
8.073089700996679,5.960096115189393
8.093023255813954,5.965518409435819
8.11295681063123,5.972578449794919
8.132890365448505,5.9812473237935
8.152823920265782,5.991488725655467
8.172757475083056,6.003259220520493
8.192691029900331,6.016508555130668
8.21262458471761,6.031180010471075
8.232558139534884,6.047210791405408
8.252491694352159,6.064532448033291
8.272425249169435,6.083071323311789
8.292358803986712,6.102749021427397
8.312292358803987,6.123482891466755
8.332225913621263,6.145186521104523
8.352159468438538,6.167770235289972
8.372093023255815,6.191141595254216
8.392026578073091,6.215205893560188
8.411960132890366,6.23986664136131
8.43189368770764,6.265026044504867
8.451827242524917,6.290585465597961
8.471760797342194,6.316445869633586
8.491694352159469,6.34250825124066
8.511627906976745,6.368674042064783
8.53156146179402,6.3948454971992215
8.551495016611296,6.420926059962311
8.571428571428573,6.44682070465481
8.591362126245848,6.472436257227234
8.611295681063122,6.497681694041999
8.6312292358804,6.522468419129412
8.651162790697676,6.546710520512104
8.67109634551495,6.570325006311296
8.691029900332227,6.593232021454339
8.710963455149502,6.615355045877855
8.730897009966778,6.636621075170019
8.750830564784053,6.656960784620416
8.77076411960133,6.676308677651212
8.790697674418604,6.694603219591372
8.81063122923588,6.711786957729424
8.830564784053157,6.727806628542853
8.850498338870432,6.742613252954756
8.870431893687707,6.756162220414302
8.890365448504983,6.768413362537552
8.91029900332226,6.779331016980978
8.930232558139535,6.78888408215314
8.950166112956811,6.797046063300672
8.970099667774086,6.803795110434759
8.990033222591363,6.809114048492865
9.00996677740864,6.812990400059535
9.029900332225914,6.815416400898626
9.049833887043189,6.816389008478213
9.069767441860467,6.815909903598673
9.089700996677742,6.813985485163982
9.109634551495017,6.810626858065856
9.129568106312293,6.805849814080869
9.14950166112957,6.799674805610824
9.169435215946844,6.792126912027932
9.189368770764121,6.783235798317198
9.209302325581396,6.773035665641058
9.22923588039867,6.7615651933837135
9.249169435215949,6.7488674721673
9.269102990033224,6.734989927268087
9.289036544850498,6.719984231799651
9.308970099667773,6.703906208972463
9.328903654485051,6.68681572268615
9.348837209302326,6.668776555663625
9.368770764119601,6.649856274296932
9.388704318936878,6.630126079344347
9.408637873754152,6.609660641599879
9.428571428571429,6.588537921651439
9.448504983388705,6.5668389728554954
9.46843853820598,6.544647726686888
9.488372093023255,6.52205075967505
9.508305647840533,6.49913704121541
9.528239202657808,6.47599766165024
9.548172757475083,6.452725540148865
9.56810631229236,6.429415112086037
9.588039867109636,6.406161995820718
9.60797342192691,6.3830626390174
9.627906976744187,6.360213944928221
9.647840531561462,6.33771287936644
9.667774086378738,6.315656059448006
9.687707641196015,6.294139325554646
9.70764119601329,6.273257298374314
9.727574750830565,6.253102923295786
9.747508305647841,6.233767004865498
9.767441860465118,6.2153377344456535
9.787375415282392,6.197900214631754
9.807308970099669,6.181535984380927
9.827242524916944,6.166322549156567
9.84717607973422,6.152332920693903
9.867109634551497,6.139635171221689
9.887043189368772,6.128292007122437
9.906976744186046,6.118360367066281
9.926910299003321,6.109891049600811
9.9468438538206,6.102928375014915
9.966777408637874,6.097509886015391
9.986710963455149,6.093666091361444
10.006644518272426,6.091420256100099
10.026578073089702,6.090788241444593
10.046511627906977,6.09177839665145
10.066445182724253,6.094391504499329
10.086378737541528,6.098620781172773
10.106312292358805,6.104451930531997
10.126245847176081,6.111863251927333
10.146179401993356,6.1208257999204285
10.16611295681063,6.131303593524483
10.186046511627907,6.143253871895022
10.205980066445184,6.1566273928070805
10.225913621262459,6.171368769759316
10.245847176079735,6.18741684315839
10.26578073089701,6.204705080764675
10.285714285714286,6.223162002422021
10.305647840531563,6.242711624047624
10.325581395348838,6.263273915915425
10.345514950166113,6.284765270417659
10.36544850498339,6.307098974722677
10.385382059800666,6.330185684047919
10.40531561461794,6.353933891621784
10.425249169435217,6.378250391800946
10.445182724252492,6.403040733227608
10.465116279069768,6.4282096593399505
10.485049833887045,6.453661533977798
10.50498338870432,6.47930075024326
10.524916943521594,6.505032121175132
10.544850498338871,6.5307612511686655
10.564784053156147,6.55639488741528
10.584717607973422,6.581841250944938
10.604651162790697,6.607010347127044
10.624584717607974,6.631814255722013
10.64451827242525,6.65616740077643
10.664451827242525,6.679986800820719
10.684385382059801,6.70319229996167
10.704318936877076,6.725706780565705
10.724252491694353,6.7474563583043095
10.74418604651163,6.768370560384652
10.764119601328904,6.78838248781773
10.784053156146179,6.8074289625873385
10.803986710963457,6.825450660577567
10.823920265780732,6.842392231097738
10.843853820598007,6.858202403813205
10.863787375415283,6.872834083851075
10.88372093023256,6.886244435803071
10.903654485049834,6.898394957294903
10.923588039867111,6.909251542734639
10.943521594684386,6.918784537792008
