Time (s),Filtered Signal
0.0,-0.01324327110676567
0.03337000366703337,0.12693108183669685
0.06674000733406674,0.2766303548648452
0.1001100110011001,0.43300310420445975
0.13348001466813347,0.5761984245163028
0.16685001833516683,0.675907808392709
0.2002200220022002,0.7050813856008098
0.2335900256692336,0.6527326846489185
0.26696002933626695,0.5285590745559309
0.3003300330033003,0.35733818219188374
0.33370003667033366,0.16724940930448087
0.36707004033736707,-0.020504921447587605
0.4004400440044004,-0.19498271982615606
0.4338100476714338,-0.3509856780237495
0.4671800513384672,-0.4812307669955423
0.5005500550055005,-0.5717046454645464
0.5339200586725339,-0.6043768543865681
0.5672900623395672,-0.5663822027060734
0.6006600660066006,-0.46019144842423765
0.634030069673634,-0.3080288746693354
0.6674000733406673,-0.14666667244790466
0.7007700770077008,-0.014080670908914777
0.7341400806747341,0.06576379089526192
0.7675100843417675,0.09221982945680132
0.8008800880088008,0.08627554602112425
0.8342500916758342,0.07836221442198048
0.8676200953428675,0.09168256948937124
0.9009900990099009,0.12962320036643885
0.9343601026769344,0.17391500542159283
0.9677301063439677,0.1948443058096515
1.001100110011001,0.16877706247110835
1.0344701136780343,0.09449631556469082
1.0678401173450678,-1.1326085722167178e-06
1.1012101210121013,-0.06472883439376359
1.1345801246791345,-0.04740907750163194
1.167950128346168,0.08176773732741774
1.2013201320132012,0.3109992153481874
1.2346901356802347,0.5828797726847197
1.268060139347268,0.8094000138601456
1.3014301430143014,0.901604277926075
1.3348001466813346,0.8026682079981308
1.368170150348368,0.5110406221421167
1.4015401540154016,0.08421205313817835
1.4349101576824348,-0.3782448817850815
1.4682801613494683,-0.7654333592655606
1.5016501650165015,-0.9880856948788457
1.535020168683535,-1.0026947292335255
1.5683901723505682,-0.820516193352258
1.6017601760176017,-0.501074317010435
1.6351301796846351,-0.13419500781316013
1.6685001833516684,0.1837023532311943
1.7018701870187019,0.37358598041146274
1.735240190685735,0.3933520634748751
1.7686101943527686,0.24866938488090298
1.8019801980198018,-0.008434052571037355
1.8353502016868353,-0.2946638239157951
1.8687202053538687,-0.521516454683432
1.902090209020902,-0.624579779954503
1.9354602126879354,-0.5851229779958982
1.9688302163549687,-0.43429634559432945
2.002200220022002,-0.2368409916730561
2.0355702236890356,-0.06070794672783462
2.0689402273560686,0.053475606911262887
2.102310231023102,0.1082561816610419
2.1356802346901356,0.14274545720028642
2.169050238357169,0.20740621303010232
2.2024202420242025,0.3338501576269281
2.2357902456912355,0.5155751794833733
2.269160249358269,0.7091746463121058
2.3025302530253025,0.8543002968694129
2.335900256692336,0.9010372902336555
2.369270260359369,0.8305165312731397
2.4026402640264024,0.6595091757285984
2.436010267693436,0.4290121885527373
2.4693802713604693,0.1849702523958962
2.502750275027503,-0.038026474285978024
2.536120278694536,-0.2228344173443929
2.5694902823615693,-0.36549681769214215
2.6028602860286028,-0.46649956560391787
2.636230289695636,-0.5248713577086251
2.6696002933626692,-0.5390377267979762
2.7029702970297027,-0.512753758836588
2.736340300696736,-0.4604679698471535
2.7697103043637696,-0.40653984102131485
2.803080308030803,-0.37663408890878897
2.836450311697836,-0.38488191709382885
2.8698203153648696,-0.42387269719442294
2.903190319031903,-0.46409226736423553
2.9365603226989365,-0.46503899507750585
2.96993032636597,-0.39403818628266823
3.003300330033003,-0.2439810685935842
3.0366703337000365,-0.04060140972225848
3.07004033736707,0.1657447100110763
3.1034103410341034,0.3213327425717764
3.1367803447011364,0.39395390535467006
3.17015034836817,0.389369295275603
3.2035203520352034,0.35058650389339263
3.236890355702237,0.33909541144513994
3.2702603593692703,0.40582285946542984
3.3036303630363033,0.5646868853653865
3.3370003667033368,0.7808142031743767
3.3703703703703702,0.979245352733518
3.4037403740374037,1.0712861130011728
3.4371103777044367,0.9883958411195639
3.47048038137147,0.7104951278889361
3.5038503850385037,0.27769975111089495
3.537220388705537,-0.21936051591810296
3.5705903923725706,-0.6676645218299934
3.6039603960396036,-0.9686150610497062
3.637330399706637,-1.0703431641536423
3.6707004033736705,-0.9834769903108991
3.704070407040704,-0.7741100248089297
3.7374404107077375,-0.5363619058493999
3.7708104143747705,-0.35533640798128446
3.804180418041804,-0.27575653059915667
3.8375504217088374,-0.2895267336149146
3.870920425375871,-0.34714854368439996
3.904290429042904,-0.3868039120265189
3.9376604327099374,-0.3664534914982083
3.971030436376971,-0.28302514011257235
4.004400440044004,-0.16966831971888055
4.037770443711038,-0.07366694015518843
4.071140447378071,-0.027735385691906204
4.104510451045105,-0.030535028071544623
4.137880454712137,-0.04667526204989916
4.171250458379171,-0.025460103389632293
4.204620462046204,0.07246211200268712
4.237990465713238,0.25493518288424616
4.271360469380271,0.49437658862170886
4.304730473047305,0.7403142665041221
4.338100476714338,0.9400358533053887
4.3714704803813715,1.0562313053440455
4.404840484048405,1.0743243341761617
4.438210487715438,0.9993413630937324
4.471580491382471,0.8478196906817113
4.5049504950495045,0.6412064873946437
4.538320498716538,0.4037087619738131
4.571690502383571,0.16275869734206075
4.605060506050605,-0.05221364925864613
4.638430509717638,-0.2155155666658908
4.671800513384672,-0.31408728706116845
4.705170517051705,-0.35454046781554954
4.738540520718738,-0.3629399965402276
4.771910524385771,-0.3753825509154174
4.805280528052805,-0.4226741433606262
4.838650531719838,-0.5161910496387562
4.872020535386872,-0.6419639993813132
4.905390539053905,-0.7661417257697817
4.938760542720939,-0.8494505207599685
4.972130546387972,-0.8639893370798926
5.005500550055006,-0.8047013625165034
5.038870553722038,-0.6904246024346109
5.072240557389072,-0.5542453758744527
5.105610561056105,-0.42779369763382563
5.138980564723139,-0.32694696571963705
5.172350568390172,-0.24577744925250927
5.2057205720572055,-0.16161153498776992
5.239090575724239,-0.04856115938939049
5.272460579391272,0.10738338118178009
5.305830583058306,0.29933283467259025
5.3392005867253385,0.500905377457963
5.372570590392372,0.6769247260558444
5.405940594059405,0.7976146079715587
5.439310597726439,0.8491631606666024
5.472680601393472,0.8360425515561873
5.506050605060506,0.7751612956700885
5.539420608727539,0.6860690870962913
5.572790612394573,0.582857514421904
5.606160616061606,0.47163654406372907
5.63953061972864,0.3538142247523737
5.672900623395672,0.23203805161625268
5.706270627062706,0.11437833183901958
5.739640630729739,0.013686054044102858
5.773010634396773,-0.0578536105519472
5.806380638063806,-0.0958935794941833
5.83975064173084,-0.10841672438719377
5.873120645397873,-0.11430894762130546
5.9064906490649065,-0.13587443743171623
5.93986065273194,-0.188547705369063
5.9732306563989725,-0.2728565956081719
6.006600660066006,-0.3727976936674807
6.0399706637330395,-0.4616066383425855
6.073340667400073,-0.5122143600367165
6.106710671067106,-0.5075575602026223
6.14008067473414,-0.44642037787613503
6.173450678401173,-0.343049519746425
6.206820682068207,-0.22172277052621722
6.24019068573524,-0.10916043564465173
6.273560689402273,-0.027588383150356294
6.306930693069306,0.010004293881684008
6.34030069673634,0.002181007761618011
6.373670700403373,-0.0407361739914809
6.407040704070407,-0.09846089588211414
6.44041070773744,-0.14475748408248026
6.473780711404474,-0.1536874499404956
6.507150715071507,-0.10720013867699725
6.540520718738541,-0.002059823236138575
6.573890722405573,0.14648118946810132
6.607260726072607,0.30635322421787203
6.64063072973964,0.43619703298280393
6.6740007334066735,0.49714961488259807
6.707370737073707,0.465438915202248
6.7407407407407405,0.341515950474806
6.774110744407774,0.15214962262788348
6.807480748074807,-0.05589925557768559
6.840850751741841,-0.22901502756533776
6.8742207554088735,-0.3224694248862978
6.907590759075907,-0.3135323514392481
6.94096076274294,-0.20774253991711775
6.974330766409974,-0.03670722276220691
7.007700770077007,0.15131277760684936
7.041070773744041,0.3048039421128083
7.074440777411074,0.38259791427749673
7.107810781078108,0.3643735505364403
7.141180784745141,0.25566633605161077
7.174550788412174,0.08601225606029998
7.207920792079207,-0.09974882282269795
7.241290795746241,-0.2550081904839242
7.274660799413274,-0.3456842945389427
7.308030803080308,-0.36018167493221137
7.341400806747341,-0.3109936210921767
7.3747708104143745,-0.22712603359736266
7.408140814081408,-0.1405366663062524
7.4415108177484415,-0.07260640705418256
7.474880821415475,-0.026691572507376995
7.5082508250825075,0.010140925677694299
7.541620828749541,0.057579189725795676
7.5749908324165744,0.12981167641614835
7.608360836083608,0.22662758110905074
7.641730839750641,0.3318355806763986
7.675100843417675,0.41903852753350906
7.708470847084708,0.46129299768470305
7.741840850751742,0.43996315029039224
7.775210854418775,0.34956225952063447
7.808580858085808,0.19827869755644112
7.841950861752841,0.006080934080083469
7.875320865419875,-0.1976854525814133
7.908690869086908,-0.37715962005774584
7.942060872753942,-0.49507120446985997
7.975430876420975,-0.5216215226538087
8.008800880088009,-0.4458814059033165
8.042170883755041,-0.2849099333022463
8.075540887422076,-0.08440468382966311
8.108910891089108,0.09272488374425462
8.142280894756142,0.18768435032069067
8.175650898423175,0.16896138080222997
8.20902090209021,0.046838973685540665
8.242390905757242,-0.1284162875715457
8.275760909424275,-0.28531853541298247
8.309130913091309,-0.35960095801798164
8.342500916758341,-0.320226626945943
8.375870920425376,-0.18163482164322575
8.409240924092408,0.00301748289755871
8.442610927759443,0.16436686206848114
8.475980931426475,0.24508141927704513
8.50935093509351,0.2218779415463314
8.542720938760542,0.11285686476991293
8.576090942427575,-0.03154141093507527
8.60946094609461,-0.14903446211444607
8.642830949761642,-0.18883065699440266
8.676200953428676,-0.1293048326447104
8.709570957095709,0.015444730635947493
8.742940960762743,0.20140864039121986
8.776310964429776,0.3702017646522541
8.80968096809681,0.46896000898000806
8.843050971763843,0.46811380439298217
8.876420975430875,0.37121941939221864
8.90979097909791,0.21343823668909953
8.943160982764942,0.048912103649545687
8.976530986431976,-0.06883041598974984
9.009900990099009,-0.1065094690553009
9.043270993766043,-0.06332262144042455
9.076640997433076,0.029383463691338204
9.11001100110011,0.12147723112427507
9.143381004767143,0.16542347142261338
9.176751008434175,0.1366616753010498
9.21012101210121,0.043662048122593625
9.243491015768242,-0.07742657245539432
9.276861019435277,-0.1813141525903301
9.31023102310231,-0.23618560782945344
9.343601026769344,-0.23870984288752645
9.376971030436376,-0.21342594044254282
9.41034103410341,-0.19688148626448035
9.443711037770443,-0.21546144693305366
9.477081041437476,-0.2695206479734135
9.51045104510451,-0.3328094656928912
9.543821048771543,-0.367232497012256
9.577191052438577,-0.34402630395762057
9.61056105610561,-0.2588999480887296
9.643931059772644,-0.1326607162006779
9.677301063439677,0.0021788628656049377
9.710671067106711,0.11991810112109523
9.744041070773743,0.21371586342573054
9.777411074440776,0.294087192305186
9.81078107810781,0.37552091158915546
9.844151081774843,0.46036606787653384
9.877521085441877,0.5307375785551929
9.91089108910891,0.5540953044800272
9.944261092775944,0.4997202149488956
9.977631096442977,0.35682460579501546
10.011001100110011,0.1442467795734913
10.044371103777044,-0.09341304302579
10.077741107444076,-0.30113056028637863
10.11111111111111,-0.4328601126335877
10.144481114778143,-0.46660720010492046
10.177851118445178,-0.4097512308575751
10.21122112211221,-0.29387346050762053
10.244591125779245,-0.16232506308392544
10.277961129446277,-0.055738312393421904
10.311331133113312,-0.0005129283436165359
10.344701136780344,-0.003547067752110775
10.378071140447377,-0.05391470776784534
10.411441144114411,-0.12969807572605282
10.444811147781444,-0.20661529191987044
10.478181151448478,-0.26497551331435204
10.51155115511551,-0.2927945650672462
10.544921158782545,-0.28496623348309164
10.578291162449577,-0.24025077441074125
10.611661166116612,-0.15865259952451974
10.645031169783644,-0.04112576906618879
10.678401173450677,0.10820876239011114
10.711771177117711,0.2790440401879332
10.745141180784744,0.4536288064905786
10.778511184451778,0.6089964462024641
10.81188118811881,0.722300182225036
10.845251191785845,0.7768379497268847
10.878621195452878,0.7657958440531395
10.911991199119912,0.6921115319599015
10.945361202786945,0.5652403601989645
10.978731206453979,0.3973324874412205
11.012101210121012,0.20121069723707496
11.045471213788044,-0.009244503394612627
11.078841217455079,-0.21773963275466676
11.112211221122111,-0.4054420722840906
11.145581224789145,-0.5532668425538269
11.178951228456178,-0.6458646600634675
11.212321232123212,-0.6753466356999362
11.245691235790245,-0.6430728530383357
11.27906123945728,-0.5592582775210433
11.312431243124312,-0.44139841829656024
11.345801246791344,-0.31251758638997545
11.379171250458379,-0.1990817975523654
11.412541254125411,-0.12729386824755903
11.445911257792446,-0.11672531153405345
11.479281261459478,-0.17214434881511487
11.512651265126513,-0.2768589635439879
11.546021268793545,-0.39206064652961203
11.57939127246058,-0.4652166341953197
11.612761276127612,-0.446704062245366
11.646131279794645,-0.3093450075030815
11.67950128346168,-0.06271165924264925
11.712871287128712,0.24514383883360177
11.746241290795746,0.5413252199447991
11.779611294462779,0.7532623208120401
11.812981298129813,0.835834214420468
11.846351301796846,0.788866456275896
11.87972130546388,0.6566283198277156
11.913091309130913,0.5084765079471951
11.946461312797945,0.40845717665131287
11.97983131646498,0.38728418528875735
12.013201320132012,0.4295455115435039
12.046571323799046,0.4821318118350885
12.079941327466079,0.47996137754773965
12.113311331133113,0.3770204726915181
12.146681334800146,0.168474278592086
12.18005133846718,-0.10595850061615159
12.213421342134213,-0.37837635996295443
12.246791345801245,-0.5808805472437075
12.28016134946828,-0.6726292299603314
12.313531353135312,-0.6538672936710374
12.346901356802347,-0.561491138773805
12.38027136046938,-0.4494009364786695
12.413641364136414,-0.3636733122430308
12.447011367803446,-0.3243157468057194
12.48038137147048,-0.3214233978580266
12.513751375137513,-0.32608928312707486
12.547121378804546,-0.3091939569053306
12.58049138247158,-0.2577613732280125
12.613861386138613,-0.18051763535569684
12.647231389805647,-0.10051551768992481
12.68060139347268,-0.03985276029156199
12.713971397139714,-0.005705182777655382
12.747341400806746,0.01422748527741534
12.78071140447378,0.04450895533129637
12.814081408140813,0.1075313702778309
12.847451411807846,0.2103115725880421
12.88082141547488,0.33971090303168583
12.914191419141913,0.46797314603348017
12.947561422808947,0.5646787177890054
12.98093142647598,0.6083874649567536
13.014301430143014,0.5925910961682181
13.047671433810047,0.5246164941185765
13.081041437477081,0.4199772553964015
13.114411441144114,0.2961756547723016
13.147781444811146,0.16878056620627438
13.18115144847818,0.05011599844276186
13.214521452145213,-0.05099990347779725
13.247891455812248,-0.1301441636252617
13.28126145947928,-0.1890066599279163
13.314631463146315,-0.23633486197758163
13.348001466813347,-0.28587723064212545
13.381371470480381,-0.3504045559028162
13.414741474147414,-0.4335939020597808
13.448111477814447,-0.5239896558838422
13.481481481481481,-0.5955273341990499
13.514851485148514,-0.6164002076835373
13.548221488815548,-0.5634273445318225
13.58159149248258,-0.4351449386041784
13.614961496149615,-0.2562529813145159
13.648331499816647,-0.06975919655051435
13.681701503483682,0.08046923147649741
13.715071507150714,0.1685175452433185
13.748441510817747,0.1970465708153091
13.781811514484781,0.19411252311988444
13.815181518151814,0.1977539460474443
13.848551521818848,0.23634612334973923
13.88192152548588,0.31477188871451184
13.915291529152915,0.4130496588792045
13.948661532819948,0.49727560675642757
13.982031536486982,0.536476214743102
14.015401540154015,0.5165686168476555
14.048771543821047,0.44499825710434826
14.082141547488082,0.344986277376348
14.115511551155114,0.24351479509620558
14.148881554822148,0.15957103395756067
14.182251558489181,0.09797829457239511
14.215621562156215,0.050562262492803114
14.248991565823248,0.002666631729647106
14.282361569490282,-0.058951008759418735
14.315731573157315,-0.14042954725146203
14.349101576824348,-0.238930092690453
14.382471580491382,-0.34406367402043314
14.415841584158414,-0.44100407055033813
14.449211587825449,-0.5138493153344299
14.482581591492481,-0.5486614948744453
14.515951595159516,-0.5362673106285261
14.549321598826548,-0.47481719486950336
14.582691602493583,-0.3714759683907854
14.616061606160615,-0.24216720492381322
14.649431609827648,-0.1086416713585383
14.682801613494682,0.006721094155778845
14.716171617161715,0.08672303117752377
14.749541620828749,0.1236154761263129
14.782911624495782,0.12030671496556375
14.816281628162816,0.08841038213917318
14.849651631829849,0.04439326004447629
14.883021635496883,0.005584572666369649
14.916391639163916,-0.012782344607738323
14.94976164283095,0.0004847194802241032
14.983131646497982,0.050760516228805536
15.016501650165015,0.13545507796025405
15.04987165383205,0.24226721809136584
15.083241657499082,0.3498090429162606
15.116611661166116,0.4323001800449153
15.149981664833149,0.46788497868232626
15.183351668500183,0.44728848855335174
15.216721672167216,0.3781327769016939
15.25009167583425,0.2817792685576573
15.283461679501283,0.18355395690606702
15.316831683168315,0.10124086098144344
15.35020168683535,0.03806211705485708
15.383571690502382,-0.016071999777763774
15.416941694169417,-0.0760269298592747
15.45031169783645,-0.1507190503259734
15.483681701503484,-0.2362707114049484
15.517051705170516,-0.3165645697063538
15.55042170883755,-0.3704558301739974
15.583791712504583,-0.38154165756040015
15.617161716171616,-0.34562874122955134
15.65053171983865,-0.2728092345213382
15.683901723505683,-0.1839113676734335
15.717271727172717,-0.10337519606939312
15.75064173083975,-0.0514448987159853
15.784011734506784,-0.03814832295407993
15.817381738173816,-0.06060072263016399
15.85075174184085,-0.1042863754939402
15.884121745507883,-0.1481286872868973
15.917491749174916,-0.17205904896281748
15.95086175284195,-0.16451131475023673
15.984231756508983,-0.12656251885739808
16.017601760176017,-0.07026925578591803
16.05097176384305,-0.011312351399812274
16.084341767510082,0.04073442646273065
16.117711771177117,0.08925824391562645
16.15108177484415,0.15014385667677782
16.184451778511182,0.2430925000122564
16.217821782178216,0.37837450400566663
16.25119178584525,0.5457181480533767
16.284561789512285,0.71171114098608
16.317931793179316,0.8282954155448046
16.35130179684635,0.849515332034068
16.384671800513384,0.7494429274411153
16.41804180418042,0.5333753240776913
16.45141180784745,0.2374029804595365
16.484781811514484,-0.08327864311311106
16.51815181518152,-0.3720569747762752
16.55152181884855,-0.5871858009594281
16.584891822515583,-0.7106999469997793
16.618261826182618,-0.7479832757320731
16.651631829849652,-0.720252730892117
16.685001833516683,-0.6545422846745094
16.718371837183717,-0.5753895214205822
16.75174184085075,-0.5002346279774026
16.785111844517782,-0.43823739797194555
16.818481848184817,-0.3910667403318459
16.85185185185185,-0.35438027109019793
16.885221855518886,-0.3194987888758627
16.918591859185916,-0.27539930528298695
16.95196186285295,-0.21126541589860848
16.985331866519985,-0.11957048134082947
17.01870187018702,0.0007439966777840925
17.05207187385405,0.14189251320916973
17.085441877521085,0.2869626039327948
17.11881188118812,0.41298143914754953
17.15218188485515,0.4976458609270931
17.185551888522184,0.5281129305625265
17.21892189218922,0.5081846108728983
17.252291895856253,0.4595255652127039
