Time (s),Filtered Signal
0.0,0.0014933696233350557
0.03337004405286344,-0.4810100456188026
0.06674008810572687,-0.9223078580792688
0.10011013215859031,-1.275888471664487
0.13348017621145375,-1.487832872628122
0.16685022026431717,-1.5021399640933522
0.20022026431718062,-1.274945319549821
0.23359030837004408,-0.7950863315820176
0.2669603524229075,-0.10313572579987688
0.3003303964757709,0.7021453389957113
0.33370044052863435,1.4784953508670045
0.3670704845814978,2.0757357255755666
0.40044052863436125,2.3807278961347222
0.43381057268722467,2.3531442639089875
0.46718061674008815,2.0358391896568855
0.5005506607929515,1.53496369988311
0.533920704845815,0.9792069092747118
0.5672907488986785,0.47666631480904587
0.6006607929515418,0.08710827526395204
0.6340308370044053,-0.1819664694196279
0.6674008810572687,-0.35903571760007547
0.7007709251101322,-0.48368627315007734
0.7341409691629956,-0.5856035929026093
0.767511013215859,-0.674724354788683
0.8008810572687225,-0.7429902714821762
0.834251101321586,-0.7734805065264843
0.8676211453744493,-0.7516069342550528
0.9009911894273128,-0.6743065328991014
0.9343612334801763,-0.5547464543218279
0.9677312775330397,-0.4210579658883698
1.001101321585903,-0.30863942756068247
1.0344713656387665,-0.24755967633504508
1.06784140969163,-0.24936207533872257
1.1012114537444935,-0.29945592077851696
1.134581497797357,-0.3602930179899678
1.1679515418502202,-0.386059246031135
1.2013215859030837,-0.34342464743890905
1.2346916299559472,-0.22849299392833883
1.2680616740088106,-0.07066287466339301
1.3014317180616741,0.079756163303707
1.3348017621145374,0.1745832599162024
1.3681718061674009,0.1896041288167234
1.4015418502202643,0.13365638104624547
1.4349118942731278,0.04051683510315583
1.4682819383259913,-0.05107141722410068
1.5016519823788548,-0.11737128419349514
1.535022026431718,-0.15838328985049277
1.5683920704845815,-0.19121821560127433
1.601762114537445,-0.2330712862578617
1.6351321585903085,-0.28445242899238815
1.668502202643172,-0.3227532120290633
1.7018722466960352,-0.3102643475574035
1.7352422907488987,-0.21295432351920685
1.7686123348017622,-0.020663286450281926
1.8019823788546256,0.24162587708862726
1.8353524229074891,0.5178419785025093
1.8687224669603526,0.7395540496907638
1.9020925110132159,0.8516710837152277
1.9354625550660793,0.8336556544542384
1.9688325991189428,0.706402529578095
2.002202643171806,0.5215227803745259
2.0355726872246698,0.3382838662370466
2.068942731277533,0.19946989222837738
2.1023127753303967,0.11760132807889637
2.13568281938326,0.07711280631295837
2.1690528634361232,0.04950357008563061
2.202422907488987,0.012007771474408527
2.23579295154185,-0.04048061951871816
2.269162995594714,-0.09556167255847958
2.302533039647577,-0.13353862323745977
2.3359030837004404,-0.14039247899900756
2.369273127753304,-0.11586205465056287
2.4026431718061674,-0.07298783183259898
2.436013215859031,-0.030801475129097037
2.4693832599118943,-0.005159910981886427
2.5027533039647576,-0.002614445351159053
2.5361233480176213,-0.019600090533749417
2.5694933920704845,-0.04621029748054095
2.6028634361233483,-0.0720072855202121
2.6362334801762115,-0.0910908028718236
2.6696035242290748,-0.10449197553347969
2.7029735682819385,-0.11920663805483177
2.7363436123348017,-0.14441048733404263
2.7697136563876654,-0.18636213504286636
2.8030837004405287,-0.2439909168307818
2.8364537444933924,-0.3070315752231432
2.8698237885462556,-0.35779896040347464
2.903193832599119,-0.3764531334513718
2.9365638766519826,-0.34821884623406013
2.969933920704846,-0.2699901929094065
3.0033039647577096,-0.15360427848481953
3.036674008810573,-0.024068495795945034
3.070044052863436,0.08710745793852769
3.1034140969162998,0.15137366557622348
3.136784140969163,0.15215193669768948
3.1701541850220267,0.09032347613619346
3.20352422907489,-0.015543800687110107
3.2368942731277532,-0.1341273823262882
3.270264317180617,-0.22977846260791254
3.30363436123348,-0.2719685696942769
3.337004405286344,-0.24325764308800785
3.370374449339207,-0.14385168210120397
3.4037444933920704,0.008271460757125688
3.437114537444934,0.18161518654294165
3.4704845814977974,0.3386972143163303
3.503854625550661,0.4449994140979312
3.5372246696035243,0.4772143051661492
3.5705947136563876,0.42896291259416797
3.6039647577092513,0.3128212864406112
3.6373348017621145,0.15823291269535472
3.6707048458149782,0.0055038449102718726
3.7040748898678415,-0.10338452947637458
3.737444933920705,-0.13571336705856324
3.7708149779735685,-0.0782818969668356
3.8041850220264317,0.05639395818991417
3.8375550660792954,0.23125178763314427
3.8709251101321587,0.3945889397560258
3.9042951541850224,0.4964505195897327
3.9376651982378856,0.50563617996725
3.971035242290749,0.42017950911259044
4.004405286343612,0.2664990451959018
4.037775330396476,0.08756104720279517
4.0711453744493395,-0.07433667110003918
4.104515418502203,-0.19210128432265505
4.137885462555066,-0.2594480054691823
4.171255506607929,-0.2863649941643475
4.2046255506607935,-0.2885981324343826
4.237995594713657,-0.2778799892471662
4.27136563876652,-0.2580530957952843
4.304735682819383,-0.22780775436965156
4.3381057268722465,-0.18650639382646983
4.371475770925111,-0.13821202170337185
4.404845814977974,-0.09113483985626294
4.438215859030837,-0.05341777220650425
4.4715859030837,-0.028765068003176877
4.504955947136564,-0.01527773752038578
4.538325991189428,-0.008463727244428915
4.571696035242291,-0.006564283707297356
4.605066079295154,-0.014792756426421671
4.638436123348018,-0.04547770552054055
4.671806167400881,-0.1130668121710057
4.705176211453745,-0.2255580967844003
4.738546255506608,-0.3760887321144151
4.7719162995594715,-0.5391190684624689
4.805286343612335,-0.674300423699207
4.838656387665198,-0.7379268085748721
4.872026431718062,-0.6980773498018901
4.905396475770925,-0.5470811001093838
4.938766519823789,-0.3054486342228539
4.972136563876652,-0.015154985143436293
5.005506607929515,0.27463007999993644
5.038876651982379,0.5225664858722726
5.072246696035243,0.7042518788942526
5.105616740088106,0.8126514912009062
5.138986784140969,0.8522344125770044
5.172356828193832,0.8322289080412371
5.2057268722466965,0.7634869276587305
5.23909691629956,0.6595361229095417
5.272466960352423,0.5385321549298843
5.305837004405286,0.42192596691231715
5.3392070484581495,0.3284288877567459
5.372577092511014,0.26622203813750106
5.405947136563877,0.22890280442283367
5.43931718061674,0.19910833654004065
5.4726872246696034,0.15876185313059846
5.506057268722468,0.09983268634066601
5.539427312775331,0.028234407350442022
5.572797356828194,-0.042501251423602775
5.606167400881057,-0.1040887298411441
5.639537444933921,-0.1638819738078994
5.672907488986785,-0.24427056222851484
5.706277533039648,-0.369219765208987
5.739647577092511,-0.5449793260508102
5.7730176211453745,-0.7471722816626433
5.806387665198238,-0.9240591856611958
5.839757709251102,-1.0166756264985175
5.873127753303965,-0.9861695904381085
5.9064977973568284,-0.833529441815815
5.939867841409692,-0.6004070652103872
5.973237885462555,-0.3500126093397646
6.006607929515419,-0.13807858390778782
6.039977973568282,0.010746503523050366
6.073348017621146,0.10898942269146351
6.106718061674009,0.19267741724139817
6.140088105726872,0.2963211593700403
6.173458149779736,0.43058126715144596
6.2068281938325995,0.5744239091016884
6.240198237885463,0.6852533774076975
6.273568281938326,0.7209476861441145
6.306938325991189,0.6619489586038091
6.3403083700440535,0.522136176261572
6.373678414096917,0.3432969855144153
6.40704845814978,0.1762846981939738
6.440418502202643,0.05839679040204855
6.4737885462555065,-0.0017911346294771215
6.507158590308371,-0.02471538935634139
6.540528634361234,-0.04538682559321445
6.573898678414097,-0.09200757201712874
6.60726872246696,-0.1690934018288032
6.640638766519824,-0.2540723767448263
6.674008810572688,-0.30887621920222796
6.707378854625551,-0.2997834865880817
6.740748898678414,-0.21450451993456124
6.774118942731278,-0.06767419024848809
6.807488986784141,0.10692115100850376
6.840859030837005,0.2714147456807324
6.874229074889868,0.39685186593945865
6.9075991189427315,0.46745636837043064
6.940969162995595,0.47626465276062746
6.974339207048458,0.4182611345332151
7.007709251101322,0.2883897416552355
7.041079295154185,0.0875214351310141
7.074449339207049,-0.16730305449227234
7.107819383259912,-0.436521339809053
7.141189427312775,-0.6627481851936059
7.174559471365639,-0.7876030739190976
7.207929515418503,-0.774285907544523
7.241299559471366,-0.6252093748126775
7.274669603524229,-0.3853809201706318
7.308039647577092,-0.12854919560342634
7.3414096916299565,0.06893714014315215
7.37477973568282,0.15596458792793969
7.408149779735683,0.12475794183340017
7.441519823788546,0.011978778423083874
7.47488986784141,-0.1173142818210233
7.508259911894274,-0.1959823723806915
7.541629955947137,-0.1805769018529281
7.575,-0.06631908248015546
7.608370044052863,0.11420776567368342
7.641740088105728,0.307241257876755
7.675110132158591,0.46126867290692936
7.708480176211454,0.5471639346437214
7.741850220264317,0.566247764678671
7.775220264317181,0.5432966817465271
7.808590308370045,0.5088574509155519
7.841960352422908,0.4805289800507255
7.875330396475771,0.4532819645614969
7.9087004405286345,0.40390280522781674
7.942070484581498,0.30678406366815936
7.975440528634362,0.15190124124471624
8.008810572687224,-0.04538236681321987
8.042180616740088,-0.24833541011269863
8.075550660792953,-0.41453485135431745
8.108920704845815,-0.514674170637249
8.142290748898679,-0.5446226803343155
8.175660792951541,-0.5249386535964572
8.209030837004406,-0.48888966274665585
8.24240088105727,-0.4657080992875712
8.275770925110132,-0.46744618486893413
8.309140969162996,-0.4850462585232036
8.342511013215859,-0.49413012368803366
8.375881057268723,-0.4665039261957118
8.409251101321587,-0.3816413738754402
8.44262114537445,-0.23375979229244515
8.475991189427313,-0.03313823239927517
8.509361233480176,0.19697173820599376
8.54273127753304,0.42547745123022745
8.576101321585904,0.6189391203848532
8.609471365638766,0.7470402336132451
8.64284140969163,0.7882492947519649
8.676211453744493,0.7352396775920595
8.709581497797357,0.5983301321252678
8.742951541850221,0.4045795608687393
8.776321585903084,0.19127625811497825
8.809691629955948,-0.004760340914669231
8.84306167400881,-0.15793680370160618
8.876431718061674,-0.2597996742562102
8.909801762114538,-0.31729622692766823
8.9431718061674,-0.34455081239740076
8.976541850220265,-0.3528240275733847
9.009911894273127,-0.34416758414381093
9.043281938325991,-0.31197479190621547
9.076651982378856,-0.24761515476812038
9.110022026431718,-0.14903864818100415
9.143392070484582,-0.02643991629691653
9.176762114537445,0.09804611165247175
9.210132158590309,0.19644377017605427
9.243502202643173,0.24399971973564624
9.276872246696035,0.22748080107749563
9.3102422907489,0.149858891304376
9.343612334801762,0.030290450775111586
9.376982378854626,-0.10012306565387286
9.41035242290749,-0.20544458269409116
9.443722466960352,-0.25327722577380274
9.477092511013216,-0.22277141574831924
9.510462555066079,-0.1106096527005248
9.543832599118943,0.06655722755458847
9.577202643171807,0.27420914788140427
9.61057268722467,0.4665619698427309
9.643942731277534,0.5964447967551966
9.677312775330396,0.6262973972613057
9.71068281938326,0.5378292160407057
9.744052863436124,0.33815276289613033
9.777422907488987,0.06077320691470419
9.81079295154185,-0.23951350111815498
9.844162995594713,-0.4978662417852594
9.877533039647577,-0.655399777176696
9.910903083700441,-0.6765175738791668
9.944273127753304,-0.5622041199442166
9.977643171806168,-0.35340984304625056
10.01101321585903,-0.12088427864893588
10.044383259911895,0.057239084653110006
10.077753303964759,0.12298737859963117
10.111123348017621,0.06047350964375476
10.144493392070485,-0.09751119405989751
10.177863436123348,-0.28205282238411405
10.211233480176212,-0.41536386768830225
10.244603524229076,-0.44155652827285097
10.277973568281938,-0.3479245705054684
10.311343612334802,-0.16774720148730973
10.344713656387665,0.03622566978181325
10.378083700440529,0.1998779721134346
10.411453744493393,0.28463704537464773
10.444823788546255,0.29122618530068434
10.47819383259912,0.2546437019948057
10.511563876651982,0.22364580456308555
10.544933920704846,0.23523977818097835
10.57830396475771,0.29681211443014693
10.611674008810573,0.3844844339944897
10.645044052863437,0.4580000386875881
10.678414096916299,0.4839123785162571
10.711784140969163,0.4543903418062937
10.745154185022027,0.39107284054706654
10.77852422907489,0.3313375094496634
10.811894273127754,0.30416313961794456
10.845264317180618,0.3091760920281601
10.87863436123348,0.311644442708269
10.912004405286345,0.25805407662927454
10.945374449339207,0.1055448960693327
10.978744493392071,-0.1499010513269034
11.012114537444935,-0.4621649839033352
11.045484581497798,-0.7482353382068415
11.078854625550662,-0.9211426548477781
11.112224669603524,-0.9273562449258252
11.145594713656388,-0.7706751656499091
11.178964757709252,-0.5110245303945482
11.212334801762115,-0.23875286423415412
11.245704845814979,-0.036750285379572076
11.279074889867841,0.051921379936047396
11.312444933920705,0.03663718747153982
11.34581497797357,-0.03207526679166931
11.379185022026432,-0.0904557297989604
11.412555066079296,-0.09180769014157801
11.445925110132158,-0.025282113974736477
11.479295154185023,0.08393395611021943
11.512665198237887,0.19080280283661677
11.546035242290749,0.25361872625109083
11.579405286343613,0.2528375604627594
11.612775330396476,0.19763619296575782
11.64614537444934,0.11884503548788138
11.679515418502204,0.05319811522755979
11.712885462555066,0.02708386257440454
11.74625550660793,0.04709279183279694
11.779625550660793,0.10056219862256337
11.812995594713657,0.1642728123807306
11.846365638766521,0.2159274129651629
11.879735682819383,0.24256124617673988
11.913105726872248,0.24249887752559615
11.94647577092511,0.2213046528817169
11.979845814977974,0.1852435616191472
12.013215859030838,0.13656697447614802
12.0465859030837,0.07331064338222172
12.079955947136565,-0.006637387917706164
12.113325991189427,-0.10001396324295386
12.146696035242291,-0.19492903085268265
12.180066079295155,-0.2724856987988393
12.213436123348018,-0.3133202760354272
12.246806167400882,-0.3063550627245565
12.280176211453744,-0.2554212142349842
12.313546255506608,-0.17982494811824395
12.346916299559473,-0.10749780347039362
12.380286343612335,-0.06308862483047264
12.413656387665199,-0.05636610829007519
12.447026431718061,-0.07682116891346277
12.480396475770926,-0.09779166951569421
12.51376651982379,-0.08886873040043819
12.547136563876652,-0.03104854811297015
12.580506607929516,0.07268299437416015
12.613876651982379,0.19683534555298093
12.647246696035243,0.30376954772598214
12.680616740088107,0.3603442800633557
12.71398678414097,0.3529083678493837
12.747356828193833,0.29319316759947744
12.780726872246696,0.21196380103091764
12.81409691629956,0.14338165902850453
12.847466960352424,0.107870379634319
12.880837004405286,0.10231165084069385
12.91420704845815,0.10288323044976608
12.947577092511013,0.0793493262726421
12.980947136563877,0.013375068793852514
13.014317180616741,-0.08913285767580348
13.047687224669604,-0.19884700719710183
13.081057268722468,-0.27717520226242254
13.11442731277533,-0.29643388843644924
13.147797356828194,-0.25504443546569194
13.181167400881058,-0.17918614181323841
13.21453744493392,-0.10965927109730109
13.247907488986785,-0.08083811331639305
13.281277533039647,-0.10296158729241077
13.314647577092511,-0.157207410064417
13.348017621145376,-0.20608563149624345
13.381387665198238,-0.213512668269097
13.414757709251102,-0.1639235468444348
13.448127753303964,-0.07054147669856595
13.481497797356829,0.031148759704819375
13.514867841409693,0.10093619493613008
13.548237885462555,0.11324429309554208
13.58160792951542,0.06873273278076292
13.614977973568282,-0.007029417542943799
13.648348017621146,-0.07640168462930753
13.68171806167401,-0.10727511876284546
13.715088105726872,-0.08700887493375432
13.748458149779736,-0.026595342279778167
13.781828193832599,0.046177944901842946
13.815198237885463,0.10074935640162402
13.848568281938327,0.11815076336161541
13.88193832599119,0.09913066822598939
13.915308370044054,0.06270393385151361
13.948678414096916,0.03641753150398889
13.98204845814978,0.04328964155547928
14.015418502202644,0.0913870495514114
14.048788546255507,0.1701916835775754
14.08215859030837,0.25459951627856564
14.115528634361233,0.31439001326966487
14.148898678414097,0.3254260126653952
14.182268722466961,0.27875481335669117
14.215638766519824,0.18465511169978216
14.249008810572688,0.07009366937722226
14.28237885462555,-0.03006259849390713
14.315748898678414,-0.08550467408286974
14.349118942731279,-0.08209030454849256
14.382488986784141,-0.027560763879306477
14.415859030837005,0.05183359516160611
14.449229074889868,0.12298920781245946
14.482599118942732,0.16065925123673905
14.515969162995596,0.15775385308851533
14.549339207048458,0.1255265341210444
14.582709251101322,0.08329481712032745
14.616079295154185,0.04351217238857286
14.649449339207049,0.0013065920971059275
14.682819383259913,-0.06431738823024959
14.716189427312775,-0.17691712855311192
14.74955947136564,-0.3435617316196672
14.782929515418502,-0.5413255639916137
14.816299559471366,-0.7183676765853254
14.84966960352423,-0.8112593532719378
14.883039647577093,-0.771409486913021
14.916409691629957,-0.5880803424948678
14.94977973568282,-0.29658903504476886
14.983149779735683,0.03268978389356194
15.016519823788547,0.3196752792904429
15.04988986784141,0.5027868166447962
15.083259911894274,0.5577129306292445
15.116629955947138,0.49963844368719035
15.15,0.3700341935136073
15.183370044052865,0.2160207935945921
15.216740088105727,0.07260132392354275
15.250110132158591,-0.04491804722002915
15.283480176211455,-0.13709744646466712
15.316850220264318,-0.2096582955318713
15.350220264317182,-0.2630716685485406
15.383590308370044,-0.28832085641995586
15.416960352422908,-0.2707454283539808
15.450330396475772,-0.1994796262527214
15.483700440528635,-0.07722068836186081
15.517070484581499,0.07511480289159225
15.550440528634361,0.22206220381127212
15.583810572687225,0.3251956968125247
15.61718061674009,0.3585392058898639
15.650550660792952,0.32135032523598894
15.683920704845816,0.2418988948547609
15.717290748898678,0.16881005794644716
15.750660792951543,0.15168356934233707
15.784030837004407,0.21810053895119183
15.817400881057269,0.35716440245979364
15.850770925110133,0.5183251840035977
15.884140969162996,0.6282212029586727
15.91751101321586,0.619929828579727
15.950881057268724,0.46235805870926727
15.984251101321586,0.17628067638064146
16.01762114537445,-0.1709867433643619
16.050991189427315,-0.4904546586352216
16.084361233480177,-0.7048227912994459
16.11773127753304,-0.7755464487478202
16.151101321585905,-0.7123763821052874
16.184471365638768,-0.5628455484304502
16.21784140969163,-0.3883195737240795
16.251211453744492,-0.23840761453055623
16.284581497797358,-0.1348411930601879
16.31795154185022,-0.07043202870303739
16.351321585903083,-0.021411540513847124
16.38469162995595,0.034329632276473135
16.41806167400881,0.10252942371538631
16.451431718061674,0.168380472948486
16.48480176211454,0.20446487698732424
16.518171806167402,0.1864683445254657
16.551541850220264,0.10864599924531117
16.584911894273127,-0.00889171191552664
16.618281938325993,-0.12522989188933165
16.651651982378855,-0.19443886813187913
16.685022026431717,-0.18530657227981812
16.718392070484583,-0.0959468574454308
16.751762114537446,0.04389050277565738
16.785132158590308,0.18449710437198086
16.818502202643174,0.27687896400628825
16.851872246696036,0.29286102109392553
16.8852422907489,0.2351308435813081
16.91861233480176,0.13266592932504767
16.951982378854627,0.02433606311793288
16.98535242290749,-0.0606398495091355
17.01872246696035,-0.11537975552900194
17.052092511013218,-0.15501209654412618
17.08546255506608,-0.20406246746515688
17.118832599118942,-0.2785888335344693
17.152202643171808,-0.3727038933610369
17.18557268722467,-0.4568508551630002
17.218942731277533,-0.4892749009147928
17.2523127753304,-0.43548269730201367
