Frequency (Hz),Amplitude
0.0,1.2585209951267848
0.019867549668874173,1.258391510103857
0.039735099337748346,1.2580035082880088
0.059602649006622516,1.2573583486472135
0.07947019867549669,1.256458293484685
0.09933774834437085,1.255306504449318
0.11920529801324503,1.2539070369013614
0.13907284768211922,1.2522648325844827
0.15894039735099338,1.2503857105418779
0.17880794701986755,1.2482763562005261
0.1986754966887417,1.2459443085345605
0.2185430463576159,1.2433979452064194
0.23841059602649006,1.2406464655718368
0.2582781456953642,1.2376998714243204
0.27814569536423844,1.2345689453440287
0.2980132450331126,1.2312652265073765
0.31788079470198677,1.2278009838065769
0.33774834437086093,1.2241891861231375
0.3576158940397351,1.2204434695964934
0.3774834437086093,1.2165781017292907
0.3973509933774834,1.2126079421742506
0.4172185430463576,1.2085484000549596
0.4370860927152318,1.2044153876849555
0.45695364238410596,1.2002252705661958
0.4768211920529801,1.1959948135703424
0.49668874172185434,1.1917411232351343
0.5165562913907285,1.187481586142185
0.5364238410596026,1.1832338033849732
0.5562913907284769,1.1790155211835538
0.5761589403973509,1.1748445577583446
0.5960264900662252,1.1707387266370108
0.6158940397350993,1.1667157566371444
0.6357615894039735,1.1627932088401929
0.6556291390728477,1.158988390950858
0.6754966887417219,1.1553182695160573
0.695364238410596,1.151799380559557
0.7152317880794702,1.1484477392690018
0.7350993377483444,1.1452787494489989
0.7549668874172186,1.1423071135251883
0.7748344370860927,1.1395467439463058
0.7947019867549668,1.1370106768817592
0.8145695364238411,1.134710989148714
0.8344370860927152,1.1326587193216846
0.8543046357615894,1.130863793978381
0.8741721854304636,1.1293349600151645
0.8940397350993378,1.1280797239236169
0.9139072847682119,1.1271042988565028
0.9337748344370861,1.1264135602260548
0.9536423841059603,1.1260110104732648
0.9735099337748344,1.1258987535243614
0.9933774834437087,1.1260774793138713
1.0132450331125828,1.1265464586059852
1.033112582781457,1.1273035481914053
1.0529801324503312,1.128345206380166
1.0728476821192052,1.1296665185566876
1.0927152317880795,1.1312612324156537
1.1125827814569538,1.133121802360831
1.1324503311258278,1.135239442427137
1.1523178807947019,1.1376041869820004
1.1721854304635762,1.140204958377614
1.1920529801324504,1.1430296406628286
1.2119205298013245,1.14606515842177
1.2317880794701985,1.1492975597868413
1.2516556291390728,1.152712102674639
1.271523178807947,1.1562933433123734
1.2913907284768211,1.1600252261599047
1.3112582781456954,1.163891174382233
1.3311258278145695,1.1678741800903154
1.3509933774834437,1.1719568936387736
1.370860927152318,1.1761217113463058
1.390728476821192,1.1803508610850533
1.410596026490066,1.184626485266752
1.4304635761589404,1.1889307208337214
1.4503311258278146,1.1932457759407418
1.4701986754966887,1.19755400308663
1.4900662251655628,1.2018379685228417
1.5099337748344372,1.2060805178275447
1.5298013245033113,1.2102648375894385
1.5496688741721854,1.2143745131930803
1.5695364238410596,1.2183935827395083
1.5894039735099337,1.2223065871700345
1.609271523178808,1.2260986166897025
1.6291390728476822,1.229755353608963
1.6490066225165563,1.2332631117388262
1.6688741721854303,1.2366088724866977
1.6887417218543048,1.2397803178073306
1.7086092715231789,1.2427658601667206
1.728476821192053,1.2455546696771502
1.7483443708609272,1.2481366985584277
1.7682119205298013,1.25050270307554
1.7880794701986755,1.252644263095483
1.8079470198675496,1.2545537993974814
1.8278145695364238,1.2562245888603176
1.847682119205298,1.2576507776396166
1.8675496688741722,1.2588273924357343
1.8874172185430464,1.2597503499402933
1.9072847682119205,1.2604164645361973
1.9271523178807946,1.2608234543127823
1.9470198675496688,1.260969945443555
1.9668874172185429,1.260855474960484
1.9867549668874174,1.2604804919445016
2.0066225165562916,1.259846357137855
2.0264900662251657,1.258955340969762
2.0463576158940397,1.2578106199725874
2.066225165562914,1.2564162715517948
2.086092715231788,1.2547772670584818
2.1059602649006623,1.2528994630999148
2.1258278145695364,1.2507895910091258
2.1456953642384105,1.248455244381799
2.165562913907285,1.2459048645752249
2.185430463576159,1.2431477240519622
2.205298013245033,1.2401939074392574
2.2251655629139075,1.2370542901644077
2.2450331125827816,1.2337405145173312
2.2649006622516556,1.2302649629838325
2.2847682119205297,1.226640728687189
2.3046357615894038,1.222881582772916
2.324503311258278,1.2190019385710449
2.3443708609271523,1.2150168123733152
2.364238410596027,1.2109417806700982
2.384105960264901,1.2067929337032728
2.403973509933775,1.2025868252082417
2.423841059602649,1.1983404182406494
2.443708609271523,1.194071027012099
2.463576158940397,1.1897962546944203
2.4834437086092715,1.18553392719438
2.5033112582781456,1.1813020229501765
2.52317880794702,1.1771185988577606
2.543046357615894,1.1730017124985093
2.562913907284768,1.1689693409102242
2.5827814569536423,1.1650392962188154
2.6026490066225163,1.1612291385286886
2.622516556291391,1.1575560865532302
2.642384105960265,1.1540369265514752
2.662251655629139,1.150687920220578
2.6821192052980134,1.1475247122745342
2.7019867549668874,1.144562238513219
2.7218543046357615,1.1418146352513707
2.741721854304636,1.139295151030298
2.76158940397351,1.1370160615733385
2.781456953642384,1.134988588967539
2.801324503311258,1.1332228260548878
2.821192052980132,1.131727666997022
2.8410596026490067,1.1305107449344467
2.8609271523178808,1.1295783775965358
2.8807947019867552,1.128935521631344
2.9006622516556293,1.1285857363160898
2.9205298013245033,1.1285311571835004
2.9403973509933774,1.128772479957244
2.9602649006622515,1.1293089550373736
2.9801324503311255,1.1301383926166544
3.0,1.1312571783468306
3.0198675496688745,1.1326602993138775
3.0397350993377485,1.1343413799294149
3.0596026490066226,1.1362927272037457
3.0794701986754967,1.1385053847410012
3.0993377483443707,1.1409691946889708
3.119205298013245,1.1436728667899296
3.1390728476821192,1.146604053614074
3.1589403973509933,1.14974943101544
3.1788079470198674,1.1530947828304716
3.198675496688742,1.1566250888414984
3.218543046357616,1.1603246150480675
3.23841059602649,1.1641770053284315
3.2582781456953644,1.1681653736259083
3.2781456953642385,1.1722723958604082
3.2980132450331126,1.1764804008392638
3.3178807947019866,1.1807714595212468
3.3377483443708607,1.185127472071237
3.3576158940397347,1.1895302522271858
3.3774834437086096,1.1939616085838165
3.3973509933774837,1.1984034224773188
3.4172185430463577,1.2028377222307842
3.437086092715232,1.207246753589442
3.456953642384106,1.2116130462379615
3.47682119205298,1.2159194763485845
3.4966887417218544,1.2201493251572315
3.5165562913907285,1.2242863336075296
3.5364238410596025,1.2283147531369312
3.556291390728477,1.2322193927080798
3.576158940397351,1.2359856622103742
3.596026490066225,1.2395996123738136
3.615894039735099,1.2430479713482974
3.6357615894039736,1.246318178108893
3.6556291390728477,1.2493984128507485
3.6754966887417218,1.2522776245367508
3.695364238410596,1.254945555758047
3.7152317880794703,1.2573927650620362
3.7350993377483444,1.2596106468945463
3.754966887417219,1.26159144929375
3.774834437086093,1.2633282894629938
3.794701986754967,1.2648151673378174
3.814569536423841,1.2660469772501335
3.834437086092715,1.2670195177794703
3.854304635761589,1.26772949986782
3.8741721854304636,1.2681745532604398
3.8940397350993377,1.2683532313211152
3.9139072847682117,1.2682650142559426
3.9337748344370858,1.2679103107652825
3.9536423841059607,1.2672904581289548
3.9735099337748347,1.2664077207151785
3.993377483443709,1.2652652868889482
4.013245033112583,1.2638672642811264
4.033112582781457,1.2622186733646188
4.052980132450331,1.2603254392696528
4.072847682119205,1.2581943817557963
4.0927152317880795,1.2558332032437594
4.112582781456953,1.2532504747971358
4.132450331125828,1.250455619929923
4.152317880794702,1.2474588961040698
4.172185430463576,1.2442713737690818
4.19205298013245,1.2409049127857388
4.211920529801325,1.2373721360672578
4.231788079470199,1.2336864002643297
4.251655629139073,1.2298617633163789
4.271523178807947,1.2259129486898543
4.291390728476821,1.2218553061266624
4.311258278145695,1.2177047687319857
4.33112582781457,1.2134778062415463
4.3509933774834435,1.2091913743247082
4.370860927152318,1.204862859801949
4.390728476821192,1.2005100216838258
4.410596026490066,1.196150927974182
4.43046357615894,1.1918038882239324
4.450331125827815,1.1874873818718459
4.470198675496689,1.1832199824683542
4.490066225165563,1.179020277943681
4.509933774834438,1.1749067871559273
4.529801324503311,1.1708978730338122
4.549668874172186,1.1670116527144445
4.569536423841059,1.1632659051648058
4.589403973509934,1.1596779768665315
4.6092715231788075,1.1562646862337589
4.629139072847682,1.153042227520395
4.649006622516556,1.1500260750547946
4.66887417218543,1.1472308887109368
4.688741721854305,1.1446704215854442
4.708609271523179,1.1423574308931
4.728476821192054,1.1403035931199297
4.748344370860927,1.1385194244772059
4.768211920529802,1.1370142076821697
4.788079470198675,1.1357959260488877
4.80794701986755,1.134871205806621
4.827814569536423,1.1342452674719259
4.847682119205298,1.1339218869885794
4.867549668874172,1.1339033672154772
4.887417218543046,1.134190520193834
4.9072847682119205,1.1347826604618891
4.927152317880794,1.135677609515771
4.947019867549669,1.1368717113414604
4.966887417218543,1.1383598587728043
4.986754966887418,1.1401355302665335
5.006622516556291,1.1421908365349183
5.026490066225166,1.144516576341512
5.04635761589404,1.1471023006507313
5.066225165562914,1.1499363842291515
5.086092715231788,1.153006103727859
5.105960264900662,1.1562977212301324
5.125827814569536,1.159796572228927
5.14569536423841,1.1634871570004641
5.1655629139072845,1.1673532343641049
5.185430463576159,1.1713779168601504
5.205298013245033,1.1755437664351007
5.225165562913908,1.179832889793544
5.245033112582782,1.1842270326559603
5.264900662251656,1.1887076722466836
5.28476821192053,1.1932561074260324
5.304635761589404,1.197853545970145
5.324503311258278,1.2024811885904403
5.344370860927152,1.2071203093691112
5.364238410596027,1.2117523323673338
5.3841059602649,1.2163589042354714
5.403973509933775,1.2209219627217844
5.4238410596026485,1.2254238010346115
5.443708609271523,1.2298471280644474
5.463576158940397,1.234175124515606
5.483443708609272,1.2383914950339927
5.503311258278146,1.2424805164458577
5.52317880794702,1.2464270822458259
5.543046357615895,1.2502167434889024
5.562913907284768,1.253835746252443
5.582781456953643,1.2572710658411221
5.602649006622516,1.2605104379105014
5.622516556291391,1.2635423866833426
5.642384105960264,1.266356250429927
5.662251655629139,1.2689422043762442
5.682119205298013,1.2712912811961905
5.701986754966887,1.2733953892336722
5.7218543046357615,1.2752473285888974
5.741721854304636,1.2768408051913371
5.7615894039735105,1.2781704429677831
5.781456953642384,1.2792317942011393
5.801324503311259,1.2800213481604579
5.821192052980132,1.2805365380688383
5.841059602649007,1.2807757464604157
5.860927152317881,1.280738308963277
5.880794701986755,1.2804245165294004
5.900662251655629,1.279835616118
5.920529801324503,1.2789738098228827
5.940397350993377,1.2778422524191628
5.960264900662251,1.2764450472896072
5.980132450331126,1.2747872406744432
6.0,1.272874814174147
6.0198675496688745,1.2707146754182985
6.039735099337749,1.2683146467991222
6.059602649006623,1.2656834521526759
6.079470198675497,1.262830701256789
6.099337748344371,1.259766872000206
6.119205298013245,1.2565032900648874
6.139072847682119,1.2530521059510469
6.158940397350993,1.2494262691643871
6.178807947019867,1.245639499376065
6.198675496688741,1.2417062543602115
6.218543046357616,1.23764169451015
6.23841059602649,1.2334616437349297
6.258278145695365,1.2291825465422055
6.2781456953642385,1.2248214211225987
6.298013245033113,1.2203958082654365
6.317880794701987,1.215923715956855
6.337748344370861,1.2114235595393892
6.357615894039735,1.2069140973471963
6.377483443708609,1.2024143617750063
6.397350993377484,1.1979435857910863
6.417218543046357,1.193521124965173
6.437086092715232,1.189166375151317
6.456953642384105,1.1848986860439639
6.47682119205298,1.1807372709102273
6.496688741721854,1.1767011128930733
6.516556291390729,1.1728088683764923
6.5364238410596025,1.1690787680037302
6.556291390728477,1.1655285160385396
6.5761589403973515,1.1621751888577467
6.596026490066225,1.1590351334550986
6.6158940397351,1.156123866919169
6.635761589403973,1.153455977918573
6.655629139072848,1.1510450312820675
6.675496688741721,1.1489034767955386
6.695364238410596,1.1470425633506725
6.715231788079469,1.1454722595665394
6.735099337748344,1.1442011819671631
6.754966887417219,1.1432365317310553
6.774834437086093,1.1425840409356807
6.794701986754967,1.1422479291008882
6.814569536423841,1.1422308706936068
6.8344370860927155,1.142533974094683
6.854304635761589,1.1431567723531566
6.874172185430464,1.1440972258663986
6.894039735099337,1.145351736935568
6.913907284768212,1.1469151759567813
6.933774834437086,1.1487809188280762
6.95364238410596,1.1509408949844002
6.973509933774834,1.1533856453225877
6.993377483443709,1.1561043891500107
7.013245033112583,1.1590850991864143
7.033112582781457,1.1623145835710142
7.052980132450331,1.1657785737764668
7.072847682119205,1.1694618173073488
7.0927152317880795,1.173348174063091
7.112582781456954,1.1774207152700777
7.132450331125828,1.1816618239336167
7.152317880794702,1.186053295823686
7.172185430463576,1.1905764400855214
7.19205298013245,1.1952121786537342
7.211920529801324,1.1999411437427936
7.231788079470198,1.2047437727852195
7.251655629139073,1.2096004002869334
7.271523178807947,1.2144913461665492
7.291390728476822,1.219397000237614
7.311258278145695,1.2242979025802445
7.33112582781457,1.229174819628039
7.3509933774834435,1.234008815868575
7.370860927152318,1.2387813211191807
7.390728476821192,1.243474193395156
7.410596026490066,1.248069777433642
7.430463576158941,1.2525509589755925
7.450331125827814,1.256901214938493
7.470198675496689,1.2611046596365794
7.490066225165562,1.2651460872222784
7.509933774834438,1.2690110105343873
7.52980132450331,1.2726856965447162
7.549668874172186,1.2761571985971125
7.569536423841059,1.2794133856309975
7.589403973509934,1.2824429685770233
7.6092715231788075,1.285235524104586
7.629139072847682,1.287781515892087
7.649006622516557,1.290072313578914
7.66887417218543,1.2921002095464633
7.6887417218543055,1.2938584336611034
7.708609271523178,1.2953411660986363
7.728476821192054,1.2965435483541667
7.748344370860927,1.297461692526607
7.768211920529802,1.2980926889511408
7.788079470198675,1.2984346122375114
7.80794701986755,1.2984865257556755
7.827814569536423,1.2982484845947118
7.847682119205298,1.2977215370043047
7.8675496688741715,1.2969077243123481
7.887417218543046,1.2958100792952538
7.907284768211921,1.2944326229613239
7.927152317880795,1.2927803596912588
7.9470198675496695,1.290859270662544
7.966887417218543,1.2886763054683037
7.986754966887418,1.2862393718245095
8.006622516556291,1.2835573232423614
8.026490066225167,1.2806399445272736
8.046357615894038,1.2774979349492273
8.066225165562914,1.274142888914425
8.086092715231787,1.2705872739542792
8.105960264900663,1.266844405834267
8.125827814569536,1.2629284205745472
8.14569536423841,1.2588542431650105
8.165562913907285,1.254637552751369
8.185430463576159,1.2502947440663574
8.205298013245034,1.2458428848812062
8.225165562913906,1.2412996692592073
8.245033112582782,1.2366833664050783
8.264900662251655,1.2320127649225308
8.28476821192053,1.2273071123182082
8.304635761589404,1.2225860496245446
8.324503311258278,1.2178695410569182
8.344370860927151,1.2131777986729222
8.364238410596027,1.2085312020639072
8.3841059602649,1.2039502131808553
8.403973509933774,1.1994552864790127
8.42384105960265,1.1950667746564991
8.443708609271523,1.1908048303615593
8.463576158940398,1.1866893043489786
8.483443708609272,1.1827396406773307
8.503311258278146,1.1789747696508521
8.52317880794702,1.1754129993223001
8.543046357615895,1.1720719064802
8.562913907284768,1.168968228143367
8.582781456953642,1.166117754672324
8.602649006622515,1.163535225677512
8.62251655629139,1.1612342299540608
8.642384105960264,1.1592271106980006
8.66225165562914,1.1575248772572209
8.682119205298013,1.1561371246385237
8.701986754966887,1.1550719619299203
8.721854304635762,1.1543359507034487
8.741721854304636,1.1539340543401395
8.76158940397351,1.1538695990683452
8.781456953642383,1.1541442473313483
8.801324503311259,1.1547579839072346
8.821192052980132,1.1557091149972878
8.841059602649008,1.1569942802860032
8.86092715231788,1.1586084777630457
8.880794701986755,1.1605451008913548
8.90066225165563,1.1627959875128246
8.920529801324504,1.1653514797093585
8.940397350993377,1.168200493687214
8.960264900662251,1.171330598629959
8.980132450331126,1.1747281033729617
9.0,1.1783781496904586
9.019867549668875,1.182264810955472
9.039735099337747,1.186371194930875
9.059602649006623,1.190679549475945
9.079470198675496,1.1951713700016406
9.099337748344372,1.1998275075775844
9.119205298013245,1.2046282766799428
9.139072847682119,1.209553561666882
9.158940397350994,1.214582921174713
9.178807947019868,1.2196956897379914
9.198675496688743,1.2248710760478556
9.218543046357615,1.230088257372154
9.23841059602649,1.2353264697645252
9.258278145695364,1.240565093788253
9.27814569536424,1.2457837355690975
9.298013245033111,1.2509623030730683
9.317880794701987,1.2560810775748406
9.33774834437086,1.2611207803449074
9.357615894039736,1.2660626346340411
9.37748344370861,1.2708884230767614
9.397350993377483,1.2755805406685863
9.417218543046358,1.2801220434978733
9.437086092715232,1.2844966934312627
9.456953642384107,1.2886889989637373
9.47682119205298,1.2926842524509705
9.496688741721854,1.2964685639427673
9.516556291390728,1.3000288918344995
9.536423841059603,1.303353070547105
9.556291390728477,1.3064298354378931
9.57615894039735,1.309248845133313
9.596026490066224,1.3118007014624988
9.6158940397351,1.3140769671562866
9.635761589403973,1.3160701814616058
9.655629139072847,1.31777387380524
9.675496688741722,1.319182575625039
9.695364238410596,1.3202918304698832
9.715231788079471,1.321098202453044
9.735099337748345,1.3215992831264545
9.754966887417218,1.3217936968263864
9.774834437086092,1.3216811045240693
9.794701986754967,1.3212622061969541
9.814569536423841,1.320538741719528
9.834437086092716,1.3195134902547176
9.854304635761588,1.3181902681093187
9.874172185430464,1.316573924999061
9.894039735099337,1.314670338650874
9.913907284768213,1.3124864076520542
9.933774834437086,1.3100300424370812
9.95364238410596,1.307310154285217
9.973509933774835,1.304336642183376
9.993377483443709,1.3011203773906272
10.013245033112582,1.2976731855231949
10.033112582781456,1.2940078259618382
10.052980132450331,1.2901379683673242
10.072847682119205,1.2860781660755336
10.09271523178808,1.281843826130792
10.112582781456952,1.2774511757064388
10.132450331125828,1.272917224654316
10.152317880794701,1.2682597239224178
10.172185430463577,1.2634971195817388
10.192052980132452,1.2586485022111147
10.211920529801324,1.2537335514031704
10.2317880794702,1.2487724751768394
10.251655629139073,1.2437859441125625
10.271523178807948,1.2387950200667341
10.29139072847682,1.233821079372818
10.311258278145695,1.228885730498881
10.331125827814569,1.2240107262041833
10.350993377483444,1.2192178703232246
10.370860927152318,1.2145289194017055
10.390728476821192,1.2099654795160066
10.410596026490065,1.2055488987238718
10.43046357615894,1.2013001557177314
10.450331125827816,1.1972397453797345
10.470198675496688,1.1933875620683378
10.490066225165563,1.1897627815928251
10.509933774834437,1.186383742953433
10.529801324503312,1.1832678310350118
10.549668874172186,1.1804313615348534
10.56953642384106,1.177889469478411
10.589403973509933,1.1756560027228014
10.609271523178808,1.1737434218653118
10.629139072847682,1.1721627079571277
10.649006622516556,1.1709232793710824
10.66887417218543,1.1700329190836873
10.688741721854305,1.1694977135079738
10.70860927152318,1.1693220038556782
