Time (s),Filtered Signal
0.0,-0.009420735323806802
0.033370165745856356,-0.2170179234656852
0.06674033149171271,-0.3887378954274933
0.10011049723756907,-0.4962525795416475
0.13348066298342542,-0.5237037623509914
0.16685082872928178,-0.4703961894662225
0.20022099447513814,-0.35019620748662456
0.2335911602209945,-0.18787444173003157
0.26696132596685085,-0.013342209315749089
0.30033149171270723,0.14482105969373846
0.33370165745856356,0.26506115816767517
0.3670718232044199,0.33652836306343464
0.4004419889502763,0.36002290207271126
0.43381215469613266,0.3461416413838003
0.467182320441989,0.3112170220795356
0.5005524861878453,0.27216783206620765
0.5339226519337017,0.241674159096649
0.5672928176795581,0.22504839039773686
0.6006629834254145,0.21972992426287208
0.6340331491712707,0.21751561678435152
0.6674033149171271,0.20866716015224923
0.7007734806629835,0.18629039649711368
0.7341436464088398,0.14923708066010186
0.7675138121546962,0.10238085897071812
0.8008839779005525,0.054243071832908184
0.8342541436464089,0.013081231609323677
0.8676243093922653,-0.016822684977701424
0.9009944751381216,-0.03708651732308
0.934364640883978,-0.054584319118244067
0.9677348066298344,-0.07853022531419183
1.0011049723756906,-0.11648066197764298
1.0344751381215471,-0.1708367040633243
1.0678453038674034,-0.23720818961508505
1.1012154696132597,-0.3052879121478556
1.1345856353591162,-0.3619589768758978
1.1679558011049724,-0.3955536572721071
1.201325966850829,-0.3997623870106414
1.2346961325966852,-0.3757836312946182
1.2680662983425415,-0.33189006535373955
1.301436464088398,-0.2805075654507115
1.3348066298342542,-0.23386660432972634
1.3681767955801105,-0.19989666368793987
1.401546961325967,-0.17995074592988833
1.4349171270718233,-0.16911366268322217
1.4682872928176796,-0.158640517237154
1.501657458563536,-0.13915667317091038
1.5350276243093923,-0.10316612322811354
1.5683977900552488,-0.04616972007072291
1.601767955801105,0.033271836645535346
1.6351381215469614,0.13361206904615572
1.6685082872928179,0.24984668409676028
1.7018784530386741,0.3726311947572408
1.7352486187845306,0.48789987524704004
1.768618784530387,0.5780678046044321
1.8019889502762432,0.6253100838121828
1.8353591160220997,0.6163630312945642
1.868729281767956,0.5473139403588255
1.9020994475138122,0.4264336586318106
1.9354696132596687,0.2735164781514116
1.968839779005525,0.11535442053436348
2.0022099447513813,-0.021500646249621887
2.0355801104972375,-0.11825394056759059
2.0689502762430942,-0.1688271012654424
2.1023204419889505,-0.1802431981513564
2.135690607734807,-0.16825550916454307
2.169060773480663,-0.150101922530345
2.2024309392265193,-0.137547179519923
2.235801104972376,-0.1331913118819891
2.2691712707182323,-0.13142901429912998
2.3025414364640886,-0.12321747132407813
2.335911602209945,-0.10204161810243727
2.369281767955801,-0.06801449572795748
2.402651933701658,-0.028125755424679624
2.436022099447514,0.007289266239906545
2.4693922651933704,0.029790423312331907
2.5027624309392267,0.03682515969041118
2.536132596685083,0.03223706296695916
2.5695027624309392,0.02304742162727457
2.602872928176796,0.01446395198155209
2.636243093922652,0.0062232011781185185
2.6696132596685085,-0.00726838619480001
2.7029834254143648,-0.032743356251732726
2.736353591160221,-0.07220418135138519
2.7697237569060777,-0.1192396864947178
2.803093922651934,-0.1606648561177917
2.8364640883977903,-0.18374384201895624
2.8698342541436466,-0.1855942100089447
2.903204419889503,-0.1790372729124036
2.936574585635359,-0.18989568367226609
2.969944751381216,-0.24477375869471973
3.003314917127072,-0.3539394781416971
3.0366850828729284,-0.49800694532267564
3.0700552486187846,-0.6269667318020706
3.103425414364641,-0.6750466553617427
3.1367955801104976,-0.5869980750673603
3.170165745856354,-0.34470369000637824
3.20353591160221,0.018669664769166316
3.2369060773480665,0.42494672664458116
3.2702762430939227,0.776349230042775
3.3036464088397794,0.9896237507595056
3.3370165745856357,1.024342205313513
3.370386740331492,0.8938450301682126
3.4037569060773483,0.6557154822000282
3.4371270718232045,0.38783924711982604
3.4704972375690613,0.16134132898023423
3.5038674033149175,0.020997986457120796
3.537237569060774,-0.021490679658159716
3.57060773480663,0.01770256178049718
3.6039779005524863,0.10646484253556714
3.6373480662983426,0.20931289862385127
3.6707182320441993,0.29636977125627906
3.7040883977900556,0.34743768269706354
3.737458563535912,0.35220207247323154
3.770828729281768,0.3085567335211552
3.8041988950276244,0.2207100097209163
3.837569060773481,0.09777474472919405
3.8709392265193374,-0.04733446459418362
3.9043093922651937,-0.19925657526346272
3.93767955801105,-0.3421845278686103
3.9710497237569062,-0.46239575058282495
4.0044198895027625,-0.5506791868996569
4.037790055248619,-0.6038004446463218
4.071160220994475,-0.6243650856828891
4.104530386740332,-0.6190226636082441
4.1379005524861885,-0.5956310812379675
4.171270718232044,-0.5604531315262677
4.204640883977901,-0.5164743079445526
4.238011049723757,-0.4634941828386327
4.271381215469614,-0.39991146138857114
4.30475138121547,-0.3253659222944664
4.338121546961326,-0.2429266070129207
4.371491712707183,-0.15957755472408447
4.404861878453039,-0.08442461678195208
4.438232044198895,-0.02512267910009635
4.471602209944752,0.01596629383459273
4.504972375690608,0.043964191857313095
4.538342541436465,0.0706023734100698
4.5717127071823205,0.11016301304811484
4.605082872928177,0.17364028465603054
4.638453038674034,0.26353411132650645
4.67182320441989,0.37163738321769973
4.7051933701657465,0.4810080235099153
4.738563535911602,0.5715169442239261
4.771933701657459,0.626754033320736
4.805303867403316,0.6394331445100137
4.8386740331491715,0.6131056085962348
4.872044198895028,0.5596735534493353
4.905414364640884,0.4940719085050108
4.938784530386741,0.428640102729174
4.972154696132597,0.3696008825780685
5.005524861878453,0.3168378457600267
5.03889502762431,0.26650212245102134
5.072265193370166,0.21472445731831474
5.105635359116023,0.1604297390344236
5.1390055248618784,0.10599686761416921
5.172375690607735,0.055822348549945354
5.205745856353592,0.013997378033991164
5.239116022099448,-0.017357253767797474
5.272486187845304,-0.03824051059739885
5.30585635359116,-0.04982334878028672
5.339226519337017,-0.05379736338350699
5.372596685082874,-0.05326975025386365
5.4059668508287295,-0.05507163783482232
5.439337016574586,-0.07156194866875656
5.472707182320442,-0.11921911640896381
5.506077348066299,-0.21254890776659813
5.5394475138121555,-0.3548802251813665
5.572817679558011,-0.5308283145487871
5.606187845303868,-0.7063033114453714
5.639558011049724,-0.8394299957965624
5.672928176795581,-0.9000797721636064
5.706298342541437,-0.8895126823317313
5.739668508287293,-0.8485786892806273
5.77303867403315,-0.8458419582678196
5.806408839779006,-0.9458831076950446
5.839779005524862,-1.1693731620461245
5.873149171270718,-1.4643758549202763
5.906519337016575,-1.7072858651627605
5.939889502762432,-1.7402618049859802
5.9732596685082875,-1.434144759629344
6.006629834254144,-0.7504939534455773
6.04,0.22730480374937514
6.073370165745857,1.311939981466113
6.1067403314917135,2.274281624562218
6.140110497237569,2.922908906382248
6.173480662983426,3.165559740718684
6.206850828729282,3.0267284685202513
6.240220994475139,2.618217985135774
6.273591160220995,2.0819970568731265
6.306961325966851,1.5351030964319696
6.340331491712708,1.040351248741394
6.373701657458564,0.6096059352105946
6.40707182320442,0.22900642998458984
6.440441988950277,-0.11296743168376204
6.473812154696133,-0.4104942368705971
6.50718232044199,-0.6434599534446154
6.5405524861878455,-0.7923174760681643
6.573922651933702,-0.8530828411177157
6.607292817679559,-0.8428917817914671
6.640662983425415,-0.7935373330373169
6.674033149171271,-0.7376252810981736
6.707403314917127,-0.6955515656981047
6.740773480662984,-0.6701463145899965
6.774143646408841,-0.6509626028953007
6.8075138121546965,-0.6247718602563691
6.840883977900553,-0.5857421921943573
6.874254143646409,-0.5394699166599471
6.907624309392266,-0.4989167191108772
6.9409944751381225,-0.47511326783233215
6.974364640883978,-0.4685147101375127
7.007734806629835,-0.46646000496124934
7.041104972375691,-0.4485888180860737
7.074475138121548,-0.39739838306580366
7.107845303867403,-0.30807915414383436
7.14121546961326,-0.1921128604591086
7.174585635359117,-0.07263481481972875
7.207955801104973,0.025831822473030248
7.241325966850829,0.08768606063746179
7.274696132596685,0.11136589950971003
7.308066298342542,0.1073406115443117
7.341436464088399,0.091169688488769
7.3748066298342545,0.07623350614693751
7.408176795580111,0.0701346544762309
7.441546961325967,0.07580054695098622
7.474917127071824,0.09508169446634873
7.5082872928176805,0.13125309172625102
7.541657458563536,0.18807678052346805
7.575027624309393,0.2659851847867385
7.608397790055249,0.3584291323692313
7.641767955801106,0.45172156858230583
7.675138121546962,0.5294988394761605
7.708508287292818,0.5796520229556605
7.741878453038675,0.5995149538082556
7.775248618784531,0.5957906417336283
7.808618784530387,0.5788767089491941
7.841988950276244,0.5549089380992428
7.8753591160221,0.5205586900779319
7.908729281767957,0.46417356832251144
7.9420994475138125,0.37304733053924405
7.975469613259669,0.24278001479296796
8.008839779005525,0.08322168367881477
8.042209944751383,-0.08270389038450379
8.075580110497238,-0.2270352817965541
8.108950276243094,-0.3276647577868972
8.14232044198895,-0.37668144251072844
8.175690607734808,-0.382318628389074
8.209060773480664,-0.36405798861462507
8.24243093922652,-0.3437059410588006
8.275801104972377,-0.3367482068923395
8.309171270718233,-0.3475405264132648
8.342541436464089,-0.36964615954111785
8.375911602209946,-0.3902299350166333
8.409281767955802,-0.3960135997798464
8.442651933701658,-0.378289870361817
8.476022099447514,-0.3354899160480254
8.509392265193371,-0.2730229709093206
8.542762430939227,-0.20095058079791614
8.576132596685083,-0.13040490321582163
8.60950276243094,-0.06977162504770808
8.642872928176796,-0.021774222999210106
8.676243093922652,0.017373338621234597
8.709613259668508,0.055985408555261566
8.742983425414366,0.1023845132730234
8.776353591160222,0.1595104369886998
8.809723756906077,0.221246219492468
8.843093922651935,0.27274762367473865
8.87646408839779,0.2954005723417
8.909834254143647,0.2747150133367048
8.943204419889504,0.20770999092503384
8.97657458563536,0.10618378027220972
9.009944751381216,-0.0060782359129972026
9.043314917127072,-0.10136914171524541
9.07668508287293,-0.15812884632962806
9.110055248618785,-0.16873560880198057
9.143425414364641,-0.14168829999990162
9.176795580110499,-0.09728747139935613
9.210165745856354,-0.05872122582702466
9.24353591160221,-0.04237278143539111
9.276906077348068,-0.05139519184500374
9.310276243093924,-0.07511204023322687
9.34364640883978,-0.09429793012152118
9.377016574585635,-0.08995917583534341
9.410386740331493,-0.05187488976098347
9.443756906077349,0.0166282525195536
9.477127071823205,0.09958078458819458
9.510497237569062,0.17457085923004995
9.543867403314918,0.22179147200921248
9.577237569060774,0.23239176823157862
9.610607734806631,0.21279585803728826
9.643977900552487,0.18304528314043902
9.677348066298343,0.1693461241679863
9.710718232044199,0.19320302002413609
9.744088397790057,0.26108084982953583
9.777458563535912,0.35882561029238513
9.810828729281768,0.45377299401569426
9.844198895027626,0.5047684318876366
9.877569060773482,0.47704690640508346
9.910939226519337,0.35640546917572297
9.944309392265193,0.15668111338948515
9.97767955801105,-0.0831694369541092
10.011049723756907,-0.31178885893710834
10.044419889502763,-0.48292596172606955
10.07779005524862,-0.5704456754638112
10.111160220994476,-0.5747234727263072
10.144530386740332,-0.518393931708394
10.17790055248619,-0.43431673818792255
10.211270718232045,-0.3518156625247205
10.244640883977901,-0.28726616119327286
10.278011049723757,-0.24225385487841997
10.311381215469615,-0.20853927408982068
10.34475138121547,-0.17605083257428253
10.378121546961326,-0.1394266702891835
10.411491712707184,-0.10022170020201222
10.44486187845304,-0.06461700453716762
10.478232044198895,-0.03876040400637299
10.511602209944753,-0.024658511035607865
10.544972375690609,-0.018719946893168363
10.578342541436465,-0.013345332241978786
10.61171270718232,-0.0003944107194191708
10.645082872928178,0.025336765594855117
10.678453038674034,0.06418452849461524
10.71182320441989,0.11183644201886025
10.745193370165747,0.16128227117140204
10.778563535911603,0.20544328764826314
10.811933701657459,0.23935125893392953
10.845303867403315,0.26113345988758213
10.878674033149172,0.27165260454964985
10.912044198895028,0.2731903206276501
10.945414364640884,0.2678726051650577
10.978784530386742,0.256547899329768
11.012154696132598,0.238572128152347
11.045524861878453,0.21253355636230498
11.078895027624311,0.17751703422153525
11.112265193370167,0.13423407008795285
11.145635359116023,0.08537319685106212
11.179005524861878,0.034893504405587646
11.212375690607736,-0.013438080605428596
11.245745856353592,-0.057477956798863215
11.279116022099448,-0.09725068695927193
11.312486187845305,-0.13422667917401246
11.345856353591161,-0.1697198498937552
11.379226519337017,-0.20335254075628542
11.412596685082875,-0.23248990010020396
11.44596685082873,-0.252926632877154
11.479337016574586,-0.26036325841821517
11.512707182320442,-0.2518455733946253
11.5460773480663,-0.2265399144559882
11.579447513812156,-0.18573716680780789
11.612817679558011,-0.13240558698904148
11.646187845303869,-0.07069225332089621
11.679558011049725,-0.0055564400293345905
11.71292817679558,0.057549032451147654
11.746298342541436,0.11313293279666227
11.779668508287294,0.15633302025944254
11.81303867403315,0.1836736356811963
11.846408839779006,0.19366364637327751
11.879779005524863,0.18700525320726905
11.91314917127072,0.16631768246575865
11.946519337016575,0.13543957442911653
11.979889502762433,0.09850246983780894
12.013259668508288,0.0590548096928768
12.046629834254144,0.019543405203975243
12.08,-0.018634043082563365
12.113370165745858,-0.05454404418733253
12.146740331491714,-0.08695289459677336
12.18011049723757,-0.11388859472259055
12.213480662983427,-0.13286048260061745
12.246850828729283,-0.1416448953192051
12.280220994475139,-0.13917287903610612
12.313591160220996,-0.12601053434811604
12.346961325966852,-0.10422098628155634
12.380331491712708,-0.07678965388908393
12.413701657458564,-0.0469835465275408
12.447071823204421,-0.017896204741455722
12.480441988950277,0.00784438416441471
12.513812154696133,0.028394216020295193
12.54718232044199,0.043136090911377496
12.580552486187846,0.05307540451817952
12.613922651933702,0.06081116653978353
12.64729281767956,0.06977430438648731
12.680662983425416,0.08279014511104636
12.714033149171271,0.10048194742492883
12.747403314917127,0.12029529814480389
12.780773480662985,0.13678937299294675
12.81414364640884,0.14332641907528562
12.847513812154697,0.13462507998491405
12.880883977900554,0.10915720018487042
12.91425414364641,0.0703281511834524
12.947624309392266,0.025844215910637906
12.980994475138122,-0.014567284877964671
13.01436464088398,-0.04223241601583842
13.047734806629835,-0.052272430409567305
13.081104972375691,-0.04512470741188089
13.114475138121549,-0.026515152928709103
13.147845303867404,-0.006090227671481893
13.18121546961326,0.004831275234211493
13.214585635359118,-0.004041444497077861
13.247955801104974,-0.03915778752715183
13.28132596685083,-0.1006227307760952
13.314696132596685,-0.18068220197294058
13.348066298342543,-0.2640241167641916
13.381436464088399,-0.330443283989714
13.414806629834255,-0.35964635384535554
13.448176795580112,-0.33701484239548646
13.481546961325968,-0.2584963147184596
13.514917127071824,-0.13282733786103998
13.548287292817681,0.019946705432607317
13.581657458563537,0.17346572934863616
13.615027624309393,0.3021205064917524
13.648397790055249,0.3879117738692125
13.681767955801106,0.42474565662630254
13.715138121546962,0.41860823330353814
13.748508287292818,0.38355743879371745
13.781878453038676,0.3351464853562925
13.815248618784532,0.2840343484585144
13.848618784530387,0.2325364591169428
13.881988950276245,0.17558038801615966
13.9153591160221,0.10546493346281043
13.948729281767957,0.017963749496480674
13.982099447513813,-0.08335760416706849
14.01546961325967,-0.18682131167308297
14.048839779005526,-0.27645750677017583
14.082209944751382,-0.3380038017467767
14.11558011049724,-0.3641218508443568
14.148950276243095,-0.3564684344773809
14.182320441988951,-0.3240221345307973
14.215690607734807,-0.27893269569660206
14.249060773480664,-0.2321222663157165
14.28243093922652,-0.19054968941649983
14.315801104972376,-0.15682849367669643
14.349171270718234,-0.1305685053564733
14.38254143646409,-0.11010720676601748
14.415911602209945,-0.09347073131625444
14.449281767955803,-0.07820309209536776
14.482651933701659,-0.06058571267956041
14.516022099447515,-0.03523847575935921
14.54939226519337,0.004070260962602196
14.582762430939228,0.06225578088154018
14.616132596685084,0.14008474649675837
14.64950276243094,0.2319704285821075
14.682872928176797,0.32573550154826186
14.716243093922653,0.405074060852695
14.749613259668509,0.454321447690647
14.782983425414367,0.46390714828935414
14.816353591160222,0.43412225755028
14.849723756906078,0.37514412792062096
14.883093922651934,0.30278325908138404
14.916464088397792,0.23160043689453205
14.949834254143648,0.16872507275589615
14.983204419889503,0.11172976028505067
15.016574585635361,0.051943283488097146
15.049944751381217,-0.018472749221542375
15.083314917127073,-0.099730239689191
15.116685082872928,-0.18208686193028634
15.150055248618786,-0.24979550771414627
15.183425414364642,-0.2895359714371878
15.216795580110498,-0.298763308212341
15.250165745856355,-0.28908409228437854
15.283535911602211,-0.28213227144791525
15.316906077348067,-0.2992619862356912
15.350276243093925,-0.34976955649391805
15.38364640883978,-0.4235876191467001
15.417016574585636,-0.4927334338932615
15.450386740331492,-0.521833208768125
15.48375690607735,-0.4835274752517916
15.517127071823205,-0.3717007001862545
15.550497237569061,-0.20591789442143935
15.583867403314919,-0.024316889719170908
15.617237569060775,0.13219949770887596
15.65060773480663,0.23711947572668807
15.683977900552488,0.28852685002752765
15.717348066298344,0.3073585846196667
15.7507182320442,0.32467587739078335
15.784088397790056,0.36442733302572555
15.817458563535913,0.4303721485041126
15.85082872928177,0.5035909342761848
15.884198895027625,0.5515929522424963
15.917569060773483,0.5442821935457979
15.950939226519338,0.46885464985615816
15.984309392265194,0.3365135041116155
16.01767955801105,0.17809919315138953
16.051049723756908,0.03111234670340835
16.084419889502765,-0.07549541613437769
16.11779005524862,-0.13174396860069
16.151160220994477,-0.14793070136880743
16.18453038674033,-0.14698969687511845
16.21790055248619,-0.1521337848487866
16.251270718232046,-0.17579868923574124
16.2846408839779,-0.21482099231815427
16.318011049723758,-0.2535665109079677
16.351381215469615,-0.2729920167154144
16.38475138121547,-0.2610455654608508
16.418121546961327,-0.21942381104529865
16.451491712707185,-0.16354708238013804
16.48486187845304,-0.11578830629602907
16.518232044198896,-0.09507824996580488
16.551602209944754,-0.10766131365666527
16.584972375690608,-0.1432903501191185
16.618342541436466,-0.1787573961598667
16.651712707182323,-0.1874133382861649
16.685082872928177,-0.1506512535241005
16.718453038674035,-0.0663949079620801
16.751823204419892,0.049123922056755434
16.785193370165747,0.16712809023344494
16.818563535911604,0.2571761654911869
16.851933701657458,0.2985854444236175
16.885303867403316,0.28770445404435063
16.918674033149173,0.23824780014430974
16.952044198895027,0.1748922039730077
16.985414364640885,0.12303624316822705
17.018784530386743,0.09893625410764742
17.052154696132597,0.10396308948313884
17.085524861878454,0.12487828826007648
17.118895027624312,0.13967339992795758
17.152265193370166,0.12655528729787477
17.185635359116024,0.07270581825728159
17.21900552486188,-0.020300566988874603
