Frequency (Hz),Amplitude
0.0,4.489774203624654
0.019801980198019802,4.4929879852668915
0.039603960396039604,4.502602914883009
0.0594059405940594,4.518540357605324
0.07920792079207921,4.54067125742517
0.09900990099009901,4.5688190222339
0.1188118811881188,4.6027633390341185
0.13861386138613863,4.642244722376592
0.15841584158415842,4.686969576560408
0.1782178217821782,4.7366155478527565
0.19801980198019803,4.790836955005273
0.21782178217821782,4.849270111146378
0.2376237623762376,4.911538383376727
0.25742574257425743,4.977256873686437
0.27722772277227725,5.046036642258962
0.297029702970297,5.117488428825794
0.31683168316831684,5.191225857496558
0.33663366336633666,5.266868134392308
0.3564356435643564,5.344042265241703
0.37623762376237624,5.42238483223295
0.39603960396039606,5.501543376589586
0.4158415841584158,5.581177436473462
0.43564356435643564,5.66095928986043
0.45544554455445546,5.740574449868736
0.4752475247524752,5.819721956406671
0.495049504950495,5.898114503564467
0.5148514851485149,5.9754784373778165
0.5346534653465347,6.051553653781459
0.5544554455445545,6.126093421982356
0.5742574257425742,6.19886415425752
0.594059405940594,6.269645139398893
0.613861386138614,6.338228253715154
0.6336633663366337,6.404417660652356
0.6534653465346534,6.468029507687406
0.6732673267326733,6.528891627140241
0.6930693069306931,6.58684324589935
0.7128712871287128,6.641734707714682
0.7326732673267327,6.693427210637949
0.7524752475247525,6.741792561341786
0.7722772277227723,6.786712947389602
0.7920792079207921,6.828080728024222
0.8118811881188118,6.865798243668272
0.8316831683168316,6.899777644058114
0.8514851485148516,6.929940734746423
0.8712871287128713,6.956218841589264
0.891089108910891,6.97855269276811
0.9108910891089109,6.996892317873984
0.9306930693069307,7.011196963590941
0.9504950495049505,7.0214350255521625
0.9702970297029703,7.027583995996852
0.99009900990099,7.029630426926027
1.00990099009901,7.027569908535969
1.0297029702970297,7.02140706279513
1.0495049504950495,7.011155552121843
1.0693069306930694,6.996838103212733
1.0891089108910892,6.978486546163001
1.108910891089109,6.9561418691067285
1.1287128712871286,6.929854288685115
1.1485148514851484,6.899683336719488
1.1683168316831685,6.86569796352033
1.188118811881188,6.8279766582973815
1.2079207920792079,6.78660758714425
1.227722772277228,6.741688749045309
1.2475247524752475,6.6933281502834285
1.2673267326732673,6.6416439975044606
1.2871287128712872,6.586764909501715
1.3069306930693068,6.528830147506906
1.3267326732673268,6.467989863390104
1.3465346534653466,6.404405364658762
1.3663366336633662,6.338249394473364
1.3861386138613863,6.2697064240357765
1.405940594059406,6.198972953614587
1.4257425742574257,6.126257817112116
1.4455445544554455,6.051782483403449
1.4653465346534653,5.9757813456444016
1.4851485148514851,5.898501987308377
1.504950495049505,5.820205410833837
1.5247524752475248,5.741166211419716
1.5445544554455446,5.66167267469195
1.5643564356435644,5.582026772712556
1.5841584158415842,5.502544028193502
1.6039603960396038,5.423553211959182
1.6237623762376237,5.345395833915822
1.6435643564356437,5.268425383379444
1.6633663366336633,5.193006271074321
1.683168316831683,5.119512423062981
1.7029702970297032,5.04832547708081
1.7227722772277227,4.979832535110621
1.7425742574257426,4.914423433493146
1.7623762376237624,4.852487504340845
1.782178217821782,4.794409820225659
1.801980198019802,4.740566938388458
1.8217821782178218,4.6913221908117375
1.8415841584158414,4.647020601329957
1.8613861386138615,4.607983548474441
1.881188118811881,4.574503329897006
1.900990099009901,4.546837817063392
1.920792079207921,4.525205413039016
1.9405940594059405,4.509780537303848
1.9603960396039604,4.500689856189152
1.98019801980198,4.498009453914709
2.0,4.5017630977300005
2.01980198019802,4.511921694207351
2.0396039603960396,4.528403967425635
2.0594059405940595,4.551078320298843
2.0792079207920793,4.579765774834237
2.099009900990099,4.614243832194551
2.118811881188119,4.654251053971684
2.1386138613861387,4.6994921446445534
2.1584158415841586,4.749643311914494
2.1782178217821784,4.8043576944461215
2.1980198019801978,4.863270671907857
2.217821782178218,4.926004905753574
2.237623762376238,4.992174996534226
2.257425742574257,5.061391680840489
2.2772277227722775,5.133265525308639
2.297029702970297,5.207410104543981
2.3168316831683167,5.283444673360053
2.336633663366337,5.360996361222197
2.3564356435643563,5.43970192861805
2.376237623762376,5.519209132008734
2.3960396039603964,5.599177746961961
2.4158415841584158,5.67928029897876
2.4356435643564356,5.75920254927258
2.455445544554456,5.8386437790993
2.4752475247524752,5.917316911774347
2.495049504950495,5.994948506718397
2.514851485148515,6.0712786550786975
2.5346534653465347,6.146060801908231
2.5544554455445545,6.219061515688469
2.5742574257425743,6.290060222228497
2.594059405940594,6.358848916688496
2.6138613861386135,6.425231864655759
2.633663366336634,6.489025300816031
2.6534653465346536,6.550057131777446
2.673267326732673,6.608166647970283
2.6930693069306932,6.663204248221352
2.712871287128713,6.715031179540385
2.7326732673267324,6.7635192938180575
2.7524752475247527,6.808550822484203
2.7722772277227725,6.850018169678449
2.792079207920792,6.887823724115526
2.811881188118812,6.921879689561288
2.8316831683168315,6.9521079336519644
2.8514851485148514,6.9784398546729385
2.8712871287128716,7.0008162658498865
2.891089108910891,7.019187296683501
2.910891089108911,7.033512310870663
2.9306930693069306,7.0437598403909725
2.9504950495049505,7.049907535394292
2.9702970297029703,7.051942129594315
2.99009900990099,7.049859420954618
3.00990099009901,7.043664267540391
3.0297029702970297,7.033370598500962
3.0495049504950495,7.019001440239829
3.0693069306930694,7.000588957920517
3.089108910891089,6.9781745125420045
3.108910891089109,6.951808733896754
3.128712871287129,6.9215516097922665
3.148514851485148,6.887472591968733
3.1683168316831685,6.849650719178033
3.1881188118811883,6.808174757894426
3.2079207920792077,6.7631433610974145
3.227722772277228,6.714665245494747
3.2475247524752473,6.662859387423695
3.267326732673267,6.60785523747031
3.2871287128712874,6.549792953560004
3.3069306930693068,6.488823651878713
3.3267326732673266,6.425109674458601
3.346534653465347,6.358824871574403
3.366336633663366,6.29015489621667
3.386138613861386,6.219297506795349
3.4059405940594063,6.146462872843168
3.4257425742574257,6.071873876785068
3.4455445544554455,5.9957664027765425
3.4653465346534653,5.91838960114178
3.485148514851485,5.840006114029225
3.504950495049505,5.760892244521552
3.5247524752475248,5.6813380475896045
3.5445544554455446,5.601647317000138
3.564356435643564,5.522137437660501
3.5841584158415842,5.443139068065151
3.603960396039604,5.364995612746023
3.6237623762376234,5.2880624402802425
3.6435643564356437,5.212705798967661
3.6633663366336635,5.139301380392765
3.683168316831683,5.068232481509694
3.702970297029703,4.9998877195275275
3.722772277227723,4.934658261672713
3.7425742574257423,4.87293454476475
3.762376237623762,4.815102478157534
3.7821782178217824,4.7615391482767775
3.801980198019802,4.712608073411531
3.8217821782178216,4.668654092456883
3.841584158415842,4.629998008839067
3.8613861386138613,4.596931147762396
3.881188118811881,4.569710017241624
3.9009900990099013,4.548551286711503
3.9207920792079207,4.533627307088977
3.9405940594059405,4.525062389661493
3.96039603960396,4.522930036415553
3.98019801980198,4.527251271969444
4.0,4.537994170158123
4.01980198019802,4.555074601764228
4.03960396039604,4.578358160611861
4.0594059405940595,4.607663160391548
4.079207920792079,4.642764540604114
4.099009900990099,4.683398481639481
4.118811881188119,4.729267508675231
4.138613861386139,4.780045861774965
4.158415841584159,4.835384923151778
4.178217821782178,4.894918518408126
4.198019801980198,4.95826794231971
4.217821782178218,5.02504659705633
4.237623762376238,5.0948641678479065
4.257425742574258,5.167330295128885
4.2772277227722775,5.242057731262418
4.297029702970297,5.318664993132799
4.316831683168317,5.396778539062046
4.336633663366336,5.476034510068784
4.356435643564357,5.5560800822049
4.376237623762377,5.636574479498994
4.3960396039603955,5.7171896968419755
4.415841584158416,5.797610979837106
4.435643564356436,5.877537104948591
4.455445544554455,5.956680498817194
4.475247524752476,6.034767230828867
4.4950495049504955,6.111536908250399
4.514851485148514,6.186742498708696
4.534653465346535,6.26015010062321
4.554455445544555,6.3315386784758685
4.574257425742574,6.400699776545867
4.594059405940594,6.467437221938845
4.613861386138614,6.531566825377273
4.633663366336633,6.592916086248846
4.653465346534653,6.651323906792067
4.673267326732674,6.706640318984599
4.693069306930693,6.758726226648702
4.712871287128713,6.807453164458204
4.732673267326733,6.8527030748862865
4.752475247524752,6.894368103641621
4.772277227722772,6.9323504137748495
4.792079207920793,6.966562018372761
4.811881188118812,6.996924631577424
4.8316831683168315,7.023369537551816
4.851485148514852,7.045837476951636
4.871287128712871,7.064278550442291
4.891089108910891,7.07865213881163
4.910891089108912,7.088926839266271
4.930693069306931,7.095080417555349
4.9504950495049505,7.097099775635627
4.97029702970297,7.094980934672733
4.99009900990099,7.088729033260327
5.00990099009901,7.078358340829645
5.02970297029703,7.063892286314123
5.0495049504950495,7.045363502223148
5.069306930693069,7.022813884364637
5.089108910891089,6.99629466753326
5.108910891089109,6.96586651754708
5.128712871287129,6.9315996400651505
5.148514851485149,6.893573906647984
5.1683168316831685,6.851878998523518
5.188118811881188,6.80661456848739
5.207920792079208,6.757890421286807
5.227722772277227,6.705826712700681
5.247524752475248,6.650554167320331
5.267326732673268,6.592214314737716
5.2871287128712865,6.530959743440565
5.306930693069307,6.466954371171465
5.326732673267327,6.400373729801274
5.346534653465346,6.331405261863977
5.366336633663367,6.260248624761055
5.3861386138613865,6.187115997228573
5.405940594059405,6.112232380923328
5.425742574257426,6.035835887882842
5.445544554455446,5.95817800210194
5.465346534653465,5.879523800513794
5.485148514851486,5.800152115241687
5.504950495049505,5.720355615104295
5.524752475247524,5.640440780048784
5.544554455445545,5.560727737546756
5.564356435643565,5.481549925177626
5.584158415841584,5.403253538901521
5.603960396039604,5.326196722255784
5.623762376237624,5.2507484484017715
5.643564356435643,5.177287045245887
5.663366336633663,5.106198314548522
5.683168316831684,5.037873199909345
5.702970297029703,4.972704966720767
5.7227722772277225,4.911085870490782
5.742574257425743,4.853403309020709
5.762376237623762,4.800035479035857
5.782178217821782,4.75134658863698
5.801980198019803,4.707681712155412
5.821782178217822,4.669361411469508
5.841584158415841,4.636676284397253
5.861386138613861,4.609881632434742
5.881188118811881,4.589192462472299
5.900990099009901,4.57477904601283
5.920792079207921,4.5667632516255
5.9405940594059405,4.565215840382647
5.96039603960396,4.570154870587186
5.98019801980198,4.581545300375024
6.0,4.599299810091222
6.01980198019802,4.6232807974202945
6.03960396039604,4.653303434184728
6.0594059405940595,4.689139620821903
6.079207920792079,4.730522637379143
6.099009900990099,4.777152270695204
6.118811881188119,4.8287001961122815
6.138613861386139,4.884815406359533
6.158415841584159,4.945129506507152
6.178217821782178,5.009261727776805
6.198019801980198,5.076823550217449
6.217821782178218,5.14742286110764
6.237623762376237,5.220667609618073
6.257425742574258,5.296168946951591
6.2772277227722775,5.373543864001694
6.297029702970296,5.45241735541934
6.316831683168317,5.53242415028394
6.336633663366337,5.613210056102016
6.356435643564356,5.694432965519627
6.376237623762377,5.775763574861814
6.396039603960396,5.856885861261362
6.415841584158415,5.937497361440483
6.435643564356436,6.0173092907559615
6.455445544554456,6.096046536357533
6.475247524752475,6.173447553568413
6.495049504950495,6.249264190090441
6.514851485148515,6.323261458500975
6.534653465346534,6.395217273812071
6.554455445544554,6.4649221696309915
6.574257425742575,6.5321790036853695
6.594059405940594,6.596802661131107
6.6138613861386135,6.65861976210683
6.633663366336634,6.717468378391813
6.653465346534653,6.77319776272074
6.673267326732673,6.82566809326419
6.693069306930694,6.874750234958662
6.712871287128713,6.920325518729509
6.732673267326732,6.962285539160889
6.752475247524753,7.000531970802319
6.772277227722772,7.034976403040045
6.792079207920792,7.0655401932799595
6.811881188118813,7.0921543380750185
6.8316831683168315,7.114759361768051
6.851485148514851,7.133305222199772
6.871287128712871,7.1477512330441675
6.891089108910891,7.158066002369404
6.910891089108911,7.164227387078978
6.930693069306931,7.166222462957301
6.9504950495049505,7.164047510124158
6.97029702970297,7.157708013788762
6.99009900990099,7.147218680284858
7.00990099009901,7.132603468458421
7.02970297029703,7.113895636568863
7.0495049504950495,7.091137804947852
7.069306930693069,7.064382034735475
7.089108910891089,7.033689923076885
7.108910891089109,6.99913271520887
7.128712871287128,6.96079143389118
7.148514851485149,6.918757026633489
7.1683168316831685,6.87313053112776
7.188118811881187,6.824023259209327
7.207920792079208,6.771556999522933
7.227722772277228,6.715864238849938
7.247524752475247,6.657088401741422
7.267326732673268,6.5953841076764235
7.287128712871287,6.530917444401893
7.306930693069306,6.46386625537997
7.326732673267327,6.394420438336075
7.346534653465347,6.322782250729911
7.366336633663366,6.249166616518847
7.3861386138613865,6.173801426805517
7.405940594059406,6.096927824813965
7.425742574257425,6.018800463079777
7.445544554455446,5.939687717735703
7.465346534653466,5.859871841307198
7.485148514851485,5.779649031508584
7.504950495049505,5.699329389195142
7.524752475247524,5.61923673397772
7.544554455445544,5.539708241217529
7.564356435643565,5.461093859454294
7.584158415841584,5.383755463164636
7.603960396039604,5.308065692612857
7.623762376237624,5.234406431101972
7.643564356435643,5.16316687095044
7.663366336633663,5.0947411239044635
7.683168316831684,5.02952534037843
7.702970297029703,4.9679143157519245
7.7227722772277225,4.910297581566122
7.742574257425743,4.857055005052851
7.762376237623762,4.808551951547982
7.782178217821782,4.765134099697717
7.801980198019803,4.727122036695773
7.821782178217822,4.694805796861133
7.841584158415841,4.668439537676818
7.861386138613862,4.648236568607816
7.881188118811881,4.634364955522642
7.900990099009901,4.626943914296799
7.92079207920792,4.626041179858143
7.9405940594059405,4.63167149247087
7.96039603960396,4.64379628477383
7.980198019801979,4.662324586393676
8.0,4.687115094563133
8.01980198019802,4.717979296082839
8.03960396039604,4.754685474315274
8.05940594059406,4.796963399072938
8.07920792079208,4.844509479340071
8.099009900990099,4.896992158454053
8.118811881188119,4.954057346363817
8.138613861386139,5.015333710196752
8.158415841584159,5.0804376783050555
8.178217821782178,5.148978050004085
8.198019801980198,5.220560139729822
8.217821782178218,5.294789417602707
8.237623762376238,5.371274636646374
8.257425742574258,5.449630459347
8.277227722772277,5.529479612763419
8.297029702970297,5.610454612456237
8.316831683168317,5.692199101854683
8.336633663366337,5.774368856231329
8.356435643564357,5.8566325001235455
8.376237623762377,5.9386719846692815
8.396039603960396,6.020182867635402
8.415841584158416,6.100874434487649
8.435643564356436,6.180469694125988
8.455445544554456,6.258705278205768
8.475247524752476,6.335331268496131
8.495049504950495,6.410110972626199
8.514851485148515,6.482820664903433
8.534653465346535,6.553249305682317
8.554455445544555,6.621198250007009
8.574257425742575,6.686480953922613
8.594059405940595,6.7489226849087425
8.613861386138613,6.808360241290979
8.633663366336634,6.864641684190162
8.653465346534654,6.917626084528761
8.673267326732672,6.967183286792778
8.693069306930694,7.013193690608232
8.712871287128714,7.055548050703324
8.732673267326732,7.0941472954639675
8.752475247524753,7.128902364027316
8.772277227722773,7.159734061677748
8.792079207920791,7.186572933194532
8.811881188118813,7.209359153737403
8.831683168316832,7.228042436835556
8.85148514851485,7.242581959055907
8.871287128712872,7.252946300962842
8.891089108910892,7.259113404036603
8.91089108910891,7.261070543286757
8.930693069306932,7.25881431537612
8.950495049504951,7.252350642156342
8.97029702970297,7.241694789605482
8.990099009900991,7.226871402246888
9.00990099009901,7.2079145532163995
9.029702970297029,7.184867810225969
9.04950495049505,7.157784317744667
9.06930693069307,7.126726895778067
9.089108910891088,7.09176815566948
9.10891089108911,7.052990633366137
9.12871287128713,7.010486940582914
9.148514851485148,6.96435993424729
9.16831683168317,6.914722904512199
9.188118811881187,6.861699781464043
9.207920792079207,6.805425360418571
9.227722772277229,6.7460455453667
9.247524752475247,6.683717609686421
9.267326732673267,6.618610472647435
9.287128712871288,6.550904989474714
9.306930693069306,6.480794251769971
9.326732673267326,6.408483893878213
9.346534653465348,6.334192399289746
9.366336633663366,6.258151399339603
9.386138613861386,6.180605954266253
9.405940594059407,6.101814804076042
9.425742574257425,6.022050573601292
9.445544554455445,5.941599912620563
9.465346534653467,5.860763547944508
9.485148514851485,5.779856220009077
9.504950495049505,5.699206471869373
9.524752475247526,5.619156253733448
9.544554455445544,5.540060301596934
9.564356435643564,5.462285244529772
9.584158415841586,5.386208392256259
9.603960396039604,5.312216153526159
9.623762376237623,5.240702037196942
9.643564356435645,5.17206419282665
9.663366336633663,5.106702456829302
9.683168316831683,5.045014884691795
9.702970297029704,4.987393769967169
9.722772277227723,4.93422117686878
9.742574257425742,4.88586404475854
9.762376237623764,4.84266895826844
9.782178217821782,4.804956713868468
9.801980198019802,4.773016849110843
9.821782178217823,4.747102330533136
9.841584158415841,4.727424615996571
9.861386138613861,4.714149313122125
9.881188118811881,4.7073926445925744
9.900990099009901,4.70721890231112
9.92079207920792,4.713639026888224
9.94059405940594,4.726610390151204
9.96039603960396,4.746037791812716
9.98019801980198,4.771775613780467
10.0,4.803631013703091
10.01980198019802,4.841367989171403
10.03960396039604,4.884712109689801
10.05940594059406,4.933355696974527
10.07920792079208,4.986963234885979
10.099009900990099,5.045176805976989
10.118811881188119,5.107621378554982
10.138613861386139,5.1739098020668495
10.158415841584159,5.243647405380749
10.178217821782178,5.316436128630173
10.198019801980198,5.391878152058709
10.217821782178218,5.469579013089028
10.237623762376238,5.549150224854778
10.257425742574258,5.630211425619585
10.277227722772277,5.712392099313787
10.297029702970297,5.79533291360265
10.316831683168317,5.878686724354837
10.336633663366337,5.962119295008075
10.356435643564357,6.045309776956572
10.376237623762377,6.127950993421494
10.396039603960396,6.209749564876826
10.415841584158416,6.290425909425201
10.435643564356436,6.369714146861901
10.455445544554454,6.447361930741842
10.475247524752476,6.523130228701736
10.495049504950495,6.596793067657467
10.514851485148514,6.668137257317054
10.534653465346535,6.73696210271603
10.554455445544555,6.803079114169554
10.574257425742573,6.866311721105225
10.594059405940595,6.926494994651901
10.613861386138614,6.9834753825675975
10.633663366336632,7.03711045905343
10.653465346534654,7.087268691180146
10.673267326732674,7.1338292230151215
10.693069306930692,7.176681678048713
10.712871287128714,7.215725980154902
10.732673267326733,7.250872193056299
10.752475247524751,7.282040378082063
10.772277227722773,7.309160469890278
10.792079207920793,7.332172169762129
10.81188118811881,7.351024856052702
10.831683168316832,7.365677511392043
10.851485148514852,7.376098666265894
10.87128712871287,7.382266358657995
10.891089108910892,7.38416810950499
10.910891089108912,7.381800913791827
