Frequency (Hz),Amplitude
0.0,2.3587285771785664
0.01993355481727575,2.357578942693835
0.0398671096345515,2.3541312494867133
0.059800664451827246,2.3483891278372413
0.079734219269103,2.34035862669129
0.09966777408637874,2.330048211435863
0.11960132890365449,2.317468760900172
0.13953488372093023,2.302633563702197
0.159468438538206,2.285558314102021
0.17940199335548174,2.2662611075695516
0.19933554817275748,2.244762436328336
0.21926910299003324,2.2210851852007885
0.23920265780730898,2.1952546281562975
0.25913621262458475,2.1672984260553636
0.27906976744186046,2.137246626195592
0.29900332225913623,2.1051316644038423
0.318936877076412,2.0709883705915266
0.3388704318936877,2.0348539789065803
0.3588039867109635,1.9967681438893117
0.37873754152823924,1.9567729643879754
0.39867109634551495,1.9149130174377327
0.4186046511627907,1.8712354048849775
0.4385382059800665,1.8257898162938515
0.4584717607973422,1.7786286126627227
0.47840531561461797,1.729806936791774
0.49833887043189373,1.6793828578982397
0.5182724252491695,1.6274175604435492
0.5382059800664452,1.5739755903608599
0.5581395348837209,1.5191251763071532
0.5780730897009968,1.4629386497307373
0.5980066445182725,1.405492996214883
0.6179401993355482,1.3468705828909544
0.637873754152824,1.2871601244753748
0.6578073089700996,1.2264579763922268
0.6777408637873754,1.1648698817434595
0.6976744186046512,1.1025133562860665
0.717607973421927,1.0395209827867156
0.7375415282392027,0.9760450204242203
0.7574750830564785,0.9122639442901515
0.7774086378737541,0.8483918597118104
0.7973421926910299,0.7846922578051416
0.8172757475083057,0.7214984003897784
0.8372093023255814,0.6592438857325456
0.8571428571428572,0.5985087595850265
0.877076411960133,0.5400886677982215
0.8970099667774087,0.4850953678626969
0.9169435215946844,0.43509035711227934
0.9368770764119602,0.3922225768176276
0.9568106312292359,0.35925599829565824
0.9767441860465116,0.33923836921363437
0.9966777408637875,0.33458802998286646
1.0166112956810631,0.3459456587683476
1.036544850498339,0.37180819650327807
1.0564784053156147,0.40934803298227607
1.0764119601328903,0.455562183147621
1.0963455149501662,0.5079343951103908
1.1162790697674418,0.5645778832790362
1.1362126245847177,0.6241390239187644
1.1561461794019936,0.685654057831192
1.176079734219269,0.7484285852408553
1.196013289036545,0.8119512038103404
1.2159468438538206,0.8758351308084631
1.2358803986710964,0.9397794534493052
1.255813953488372,1.0035434018470275
1.275747508305648,1.066929113566928
1.2956810631229239,1.1297699356043436
1.3156146179401993,1.1919223680983828
1.3355481727574752,1.2532604332464519
1.3554817275747508,1.3136716825316115
1.3754152823920267,1.373054327243294
1.3953488372093024,1.4313151505903638
1.4152823920265782,1.488367971434657
1.435215946843854,1.5441325026338797
1.4551495016611296,1.5985334952820465
1.4750830564784054,1.6515000925513992
1.495016611295681,1.7029653388929955
1.514950166112957,1.7528658055541224
1.5348837209302328,1.8011413039820063
1.5548172757475083,1.8477346661808143
1.5747508305647842,1.892591576446611
1.5946843853820598,1.935660442777139
1.6146179401993357,1.976892299079315
1.6345514950166113,2.0162407313819384
1.6544850498338872,2.0536618228116232
1.6744186046511629,2.089114113255585
1.6943521594684385,2.122558570516502
1.7142857142857144,2.1539585704388924
1.73421926910299,2.183279884004833
1.754152823920266,2.2104906697992384
1.7740863787375416,2.2355614705592695
1.7940199335548175,2.2584652127699356
1.8139534883720931,2.2791772084646085
1.8338870431893688,2.2976751585457245
1.8538205980066447,2.3139391570680634
1.8737541528239203,2.327951696029453
1.893687707641196,2.3396976702983654
1.9136212624584719,2.3491643823780923
1.9335548172757475,2.356341546765863
1.9534883720930232,2.361221293715679
1.9734219269102993,2.3637981722569155
1.993355481727575,2.3640691523599875
2.0132890365448506,2.3620336261745156
2.0332225913621262,2.357693408298867
2.0531561461794023,2.3510527350708776
2.073089700996678,2.342118262900726
2.0930232558139537,2.330899065699017
2.1129568106312293,2.3174066314862993
2.132890365448505,2.301654858307599
2.1528239202657806,2.2836600496155777
2.1727574750830567,2.263440909333394
2.1926910299003324,2.2410185368620157
2.212624584717608,2.216416422361475
2.2325581395348837,2.1896604427126047
2.25249169435216,2.160778858659046
2.2724252491694354,2.1298023137450794
2.292358803986711,2.096763835806028
2.312292358803987,2.061698841946752
2.332225913621263,2.024645148166553
2.352159468438538,1.9856429850735848
2.3720930232558137,1.9447350214943637
2.39202657807309,1.9019663982520396
2.4119601328903655,1.857384774995002
2.431893687707641,1.8110403937525947
2.4518272425249172,1.7629861639454956
2.471760797342193,1.713277774977036
2.4916943521594686,1.6619738444112935
2.511627906976744,1.6091361122946943
2.5315614617940203,1.554829695671996
2.551495016611296,1.4991234221885814
2.5714285714285716,1.4420902684489767
2.5913621262458477,1.3838079384071131
2.611295681063123,1.324359630845958
2.6312292358803986,1.263835065037375
2.6511627906976742,1.202331863196925
2.6710963455149503,1.1399574324866637
2.691029900332226,1.07683155628291
2.7109634551495017,1.013090007564271
2.7308970099667778,0.9488896584896043
2.7508305647840534,0.8844158157462558
2.770764119601329,0.8198929208906974
2.7906976744186047,0.7556004159752235
2.810631229235881,0.6918966379516259
2.8305647840531565,0.6292552741758248
2.850498338870432,0.5683213457967637
2.870431893687708,0.5099965271544316
2.8903654485049834,0.45556425014249124
2.910299003322259,0.4068535441788644
2.9302325581395348,0.3663895830600807
2.950166112956811,0.337346403902251
2.9700996677740865,0.3229547643098078
2.990033222591362,0.3252316097296298
3.0099667774086383,0.3438446650833458
3.029900332225914,0.37631888257718177
3.0498338870431896,0.4193421386855581
3.0697674418604657,0.46988699146046115
3.089700996677741,0.5256234230329142
3.1096345514950166,0.5848851873897815
3.129568106312292,0.6465052429222944
3.1495016611295683,0.7096605257765383
3.169435215946844,0.7737582819875066
3.1893687707641196,0.8383596838123571
3.2093023255813957,0.9031299098685333
3.2292358803986714,0.9678056109449322
3.249169435215947,1.0321735204473432
3.2691029900332227,1.0960561948239758
3.289036544850499,1.159302354742986
3.3089700996677744,1.2217802352761993
3.32890365448505,1.2833729349508882
3.3488372093023258,1.3439751143337169
3.3687707641196014,1.4034906204829933
3.388704318936877,1.4618307565019293
3.4086378737541527,1.5189130072025834
3.428571428571429,1.5746600917195952
3.4485049833887045,1.62899925350427
3.46843853820598,1.6818617247159573
3.4883720930232562,1.7331823201350132
3.508305647840532,1.782899128222625
3.5282392026578075,1.8309532756951712
3.548172757475083,1.8772887481699818
3.5681063122923593,1.9218522538721607
3.588039867109635,1.9645931206019749
3.60797342192691,2.0054632185110206
3.6279069767441863,2.0444169029710086
3.647840531561462,2.0814109731135964
3.6677740863787376,2.1164046425940017
3.6877076411960132,2.149359519871098
3.7076411960132893,2.1802395958622016
3.727574750830565,2.2090112372680637
3.7475083056478407,2.235643184202472
3.7674418604651168,2.2601065510271323
3.787375415282392,2.2823748295022064
3.807308970099668,2.30242389352973
3.8272425249169437,2.3202320049008285
3.8471760797342194,2.3357798195658988
3.867109634551495,2.3490503940348275
3.887043189368771,2.3600291915869582
3.9069767441860463,2.3687040880309516
3.9269102990033224,2.375065376805656
3.9468438538205985,2.379105773256533
3.9667774086378738,2.380820417960679
3.98671096345515,2.3802068790068107
4.0066445182724255,2.377265153168066
4.026578073089701,2.3719976659340425
4.046511627906977,2.364409270396822
4.0664451827242525,2.3545072450137257
4.086378737541528,2.342301290298259
4.106312292358805,2.327803524521617
4.1262458471760795,2.311028478540567
4.146179401993356,2.2919930899052687
4.166112956810632,2.2707166964438206
4.186046511627907,2.2472210295707935
4.205980066445183,2.221530207627219
4.225913621262459,2.193670729631439
4.245847176079734,2.1636714699088473
4.26578073089701,2.1315636741765904
4.2857142857142865,2.097380957794436
4.305647840531561,2.0611593070619993
4.325581395348838,2.0229370846565136
4.345514950166113,1.9827550405777679
4.365448504983389,1.940656330316996
4.385382059800665,1.8966865424199482
4.40531561461794,1.8508937382066544
4.425249169435216,1.803328507189741
4.445182724252492,1.754044042769128
4.465116279069767,1.7030962441689186
4.485049833887043,1.650543852461637
4.50498338870432,1.5964486310940995
4.524916943521594,1.5408756048796994
4.544850498338871,1.4838933763847941
4.5647840531561465,1.4255745456583975
4.584717607973422,1.3659962693136316
4.604651162790698,1.3052410095832854
4.624584717607974,1.243397545504016
4.644518272425249,1.1805623506057048
4.664451827242526,1.1168414904814041
4.6843853820598005,1.0523532694060769
4.704318936877076,0.9872319744950131
4.724252491694353,0.9216332571705078
4.7441860465116275,0.8557420038369856
4.764119601328904,0.7897840654868902
4.78405315614618,0.7240440862836235
4.803986710963455,0.6588931417427083
4.823920265780731,0.5948323533069018
4.8438538205980075,0.5325625437290243
4.863787375415282,0.47309524163896677
4.883720930232559,0.41792344988286034
4.9036544850498345,0.36925483598117687
4.92358803986711,0.3302226952306469
4.943521594684386,0.3047467248721283
4.963455149501661,0.2964666184026661
4.983388704318937,0.30682393631690474
5.003322259136213,0.3340652624885432
5.023255813953488,0.3744429393083544
5.043189368770764,0.42409829266172694
5.063122923588041,0.4800061120231131
5.083056478405315,0.5400503367460002
5.102990033222592,0.6028014107564204
5.122923588039868,0.6672887939929824
5.142857142857143,0.7328376550185309
5.162790697674419,0.7989633793299853
5.182724252491695,0.8653054527234635
5.20265780730897,0.9315860241131773
5.222591362126246,0.9975835993759509
5.242524916943522,1.063116035733529
5.262458471760797,1.12802932922057
5.282392026578074,1.192190075356688
5.3023255813953485,1.2554803044489518
5.322259136212625,1.3177938822216342
5.342192691029901,1.3790339619122973
5.362126245847176,1.4391111553786686
5.382059800664452,1.4979422041555672
5.4019933554817285,1.5554490035708413
5.421926910299003,1.6115578797773071
5.44186046511628,1.6661990503541608
5.4617940199335555,1.7193062197487208
5.48172757475083,1.770816274843207
5.501661129568107,1.820669055594031
5.5215946843853825,1.868807182444579
5.541528239202658,1.9151759269925437
5.561461794019934,1.959723115817239
5.5813953488372094,2.0023990598526913
5.601328903654485,2.0431565035089574
5.621262458471762,2.08195058908708
5.641196013289036,2.1187388330363244
5.661129568106313,2.1534811113578494
5.681063122923589,2.1861396520334258
5.700996677740864,2.2166790327978156
5.72093023255814,2.2450661829135363
5.740863787375416,2.27127038787136
5.760797342192691,2.2952632961475166
5.780730897009967,2.317018927313009
5.800664451827243,2.33651368092088
5.820598006644518,2.3537263457027042
5.840531561461795,2.368638108690456
5.8604651162790695,2.3812325639495673
5.880398671096346,2.3914957206663963
5.900332225913622,2.3994160103813806
5.920265780730897,2.404984293199684
5.940199335548173,2.408193862846147
5.960132890365449,2.4090404504618794
5.980066445182724,2.407522227067277
6.0,2.403639804641195
6.0199335548172765,2.397396235789736
6.039867109634551,2.3887970120010618
6.059800664451828,2.37785006050556
6.0797342192691035,2.3645657397846134
6.099667774086379,2.3489568337964117
6.119601328903655,2.3310385450152755
6.139534883720931,2.310828486412036
6.159468438538206,2.2883466725391344
6.179401993355482,2.2636155099261908
6.1993355481727574,2.2366597870419422
6.219269102990033,2.207506664139111
6.23920265780731,2.176185663372813
6.259136212624584,2.1427286596745097
6.279069767441861,2.107169872977894
6.299003322259137,2.0695458625364385
6.318936877076412,2.02989552425524
6.338870431893688,1.988260092193105
6.3588039867109645,1.9446831456928302
6.378737541528239,1.899210623990621
6.398671096345516,1.8518908506719656
6.418604651162791,1.802774571025752
6.438538205980066,1.7519150062642568
6.458471760797343,1.6993679298143494
6.4784053156146175,1.6451917725743517
6.498338870431894,1.5894477663633724
6.51827242524917,1.5322001380459582
6.538205980066445,1.4735163714187476
6.558139534883721,1.4134675605415776
6.578073089700998,1.352128887779561
6.598006644518272,1.289580273963345
6.617940199335549,1.2259072692808768
6.6378737541528245,1.1612022858810618
6.6578073089701,1.0955663235116548
6.677740863787376,1.029111419418942
6.6976744186046515,0.9619641833462205
6.717607973421927,0.8942709936062598
6.737541528239203,0.8262057960564073
6.7574750830564785,0.7579820855614292
6.777408637873754,0.6898717883882386
6.797342192691031,0.6222358403831773
6.8172757475083055,0.5555750859123867
6.837209302325582,0.4906171078615318
6.857142857142858,0.4284664362269154
6.877076411960133,0.3708604306560481
6.897009966777409,0.3205650794725345
6.9169435215946855,0.2817929491125967
6.93687707641196,0.2599582662230963
6.956810631229236,0.2594884996200908
6.9767441860465125,0.28051453659903286
6.996677740863787,0.31875973016006764
7.016611295681064,0.36880001455008843
7.036544850498339,0.42635762206288375
7.056478405315615,0.4886102469777443
7.076411960132891,0.5537836884719637
7.096345514950166,0.6207509023237299
7.116279069767442,0.6887704598074516
7.136212624584719,0.7573326606152921
7.156146179401993,0.8260705745251119
7.17607973421927,0.8947079392523297
7.196013289036546,0.9630278959010637
7.21594684385382,1.0308537067784442
7.235880398671097,1.0980365353178962
7.2558139534883725,1.1644475012128686
7.275747508305648,1.2299723931741198
7.295681063122924,1.2945080759045542
7.3156146179402,1.3579600027620242
7.335548172757475,1.4202404657884733
7.355481727574752,1.481267347308879
7.3754152823920265,1.5409632189249463
7.395348837209303,1.5992546851043437
7.415282392026579,1.6560719015684409
7.435215946843854,1.711348220286568
7.45514950166113,1.7650199272803995
7.475083056478406,1.8170260491917252
7.495016611295681,1.867308211272425
7.514950166112956,1.9158105341324727
7.5348837209302335,1.9624795598882732
7.554817275747508,2.0072642007198502
7.574750830564784,2.050115704558916
7.5946843853820605,2.090987633884152
7.614617940199336,2.129835854527767
7.634551495016611,2.166618532090396
7.6544850498338874,2.2012961340836963
7.674418604651163,2.233831436317412
7.694352159468439,2.264189532352249
7.714285714285715,2.2923378450758496
7.73421926910299,2.318246139642632
7.754152823920266,2.341886537162773
7.774086378737542,2.3632335286400337
7.794019933554818,2.382263988749351
7.813953488372093,2.398957189118578
7.83388704318937,2.4132948108386807
7.853820598006645,2.4252609559753435
7.8737541528239205,2.434842157895829
7.893687707641197,2.4420273902585876
7.913621262458472,2.446808074542289
7.9335548172757475,2.44917808601568
7.953488372093024,2.449133758071533
7.9734219269103,2.446673884867721
7.9933554817275745,2.4417997222363703
8.013289036544851,2.4345149868388667
8.033222591362128,2.4248258535612393
8.053156146179402,2.4127409511607496
8.073089700996679,2.3982713561913145
8.093023255813954,2.381430585253698
8.11295681063123,2.3622345856358895
8.132890365448505,2.340701724430926
8.152823920265782,2.316852776245007
8.172757475083056,2.290710909637742
8.192691029900331,2.2623016724716383
8.21262458471761,2.231652976390024
8.232558139534884,2.198795080694077
8.252491694352159,2.1637605759535368
8.272425249169435,2.126584367765269
8.292358803986712,2.0873036611744515
8.312292358803987,2.045957946401278
8.332225913621263,2.0025889866811344
8.352159468438538,1.9572408092398266
8.372093023255815,1.9099597007060372
8.392026578073091,1.8607942086332951
8.411960132890366,1.8097951512987738
8.43189368770764,1.7570156386128895
8.451827242524917,1.7025111078830852
8.471760797342194,1.6463393794280243
8.491694352159469,1.588560738786426
8.511627906976745,1.5292380547339013
8.53156146179402,1.4684369458576865
8.551495016611296,1.4062260135784868
8.571428571428573,1.3426771670979214
8.591362126245848,1.2778660771498813
8.611295681063122,1.2118728128817136
8.6312292358804,1.1447827434432944
8.651162790697676,1.0766878293866713
8.67109634551495,1.0076885002097458
8.691029900332227,0.9378964341183457
8.710963455149502,0.8674387633995053
8.730897009966778,0.7964645995960145
8.750830564784053,0.7251554599169006
8.77076411960133,0.6537425004013303
8.790697674418604,0.582536119831923
8.81063122923588,0.5119790633280671
8.830564784053157,0.44274623550367315
8.850498338870432,0.3759410545904167
8.870431893687707,0.313493474781031
8.890365448504983,0.25894183308531316
8.91029900332226,0.2186096297227925
8.930232558139535,0.20146700113833763
8.950166112956811,0.21328914112055636
8.970099667774086,0.24999406808946192
8.990033222591363,0.3025757858650542
9.00996677740864,0.36408561033589554
9.029900332225914,0.43054494385507264
9.049833887043189,0.49979006917250557
9.069767441860467,0.5705976023813745
9.089700996677742,0.6422287997112625
9.109634551495017,0.7142049631037048
9.129568106312293,0.7861941390167894
9.14950166112957,0.8579513824745947
9.169435215946844,0.9292857473733096
9.189368770764121,1.0000412240798864
9.209302325581396,1.0700852882410539
9.22923588039867,1.1393017792571725
9.249169435215949,1.2075863360334007
9.269102990033224,1.2748433948798035
9.289036544850498,1.3409841707866408
9.308970099667773,1.4059252745603623
9.328903654485051,1.4695877510753301
9.348837209302326,1.5318964024468777
9.368770764119601,1.5927793076917107
9.388704318936878,1.652167480210469
9.408637873754152,1.709994623407797
9.428571428571429,1.7661969571196747
9.448504983388705,1.8207130957140452
9.46843853820598,1.8734839642629069
9.488372093023255,1.9244527429802156
9.508305647840533,1.9735648327622475
9.528239202657808,2.0207678365331874
9.548172757475083,2.0660115524329417
9.56810631229236,2.1092479758499323
9.588039867109636,2.150431308008665
9.60797342192691,2.1895179693448
9.627906976744187,2.2264666162914604
9.647840531561462,2.261238160395324
9.667774086378738,2.2937957889057414
9.687707641196015,2.324104986152573
9.70764119601329,2.3521335551621747
9.727574750830565,2.37785163906543
9.747508305647841,2.4012317419341134
9.767441860465118,2.4222487487471764
9.787375415282392,2.4408799442411167
9.807308970099669,2.457105030440952
9.827242524916944,2.4709061427029058
9.84717607973422,2.4822678641285134
9.867109634551497,2.4911772382335293
9.887043189368772,2.497623779775229
9.906976744186046,2.5015994836585014
9.926910299003321,2.5030988318563625
9.9468438538206,2.50211879829317
9.966777408637874,2.4986588516507453
9.986710963455149,2.4927209560681836
10.006644518272426,2.484309569716292
10.026578073089702,2.473431641236875
10.046511627906977,2.46009660404674
10.066445182724253,2.444316368515696
10.086378737541528,2.4261053120374627
10.106312292358805,2.4054802670232336
10.126245847176081,2.382460506858467
10.146179401993356,2.357067729876823
10.16611295681063,2.329326041419132
10.186046511627907,2.299261934062705
10.205980066445184,2.2669042661260446
10.225913621262459,2.232284238578607
10.245847176079735,2.1954353705147027
10.26578073089701,2.156393473387874
10.285714285714286,2.1151966242481914
10.305647840531563,2.071885138284141
10.325581395348838,2.0265015410465157
10.345514950166113,1.9790905408305342
10.36544850498339,1.9296990018218332
10.385382059800666,1.878375918784274
10.40531561461794,1.8251723942985258
10.425249169435217,1.7701416198742135
10.445182724252492,1.7133388626893662
10.465116279069768,1.6548214603109102
10.485049833887045,1.594648826594555
10.50498338870432,1.532882473170569
10.524916943521594,1.4695860526738973
10.544850498338871,1.4048254324614124
10.564784053156147,1.3386688114373195
10.584717607973422,1.2711868985423966
10.604651162790697,1.2024531807381347
10.624584717607974,1.1325443231554497
10.64451827242525,1.061540768438148
10.664451827242525,0.9895276434766391
10.684385382059801,0.9165961535763733
10.704318936877076,0.842845774184763
10.724252491694353,0.7683877958162616
