Frequency (Hz),Amplitude
0.0,2.6975191153818687
0.019801980198019802,2.6963124669561185
0.039603960396039604,2.6926940820448904
0.0594059405940594,2.686668643628028
0.07920792079207921,2.6782439630043102
0.09900990099009901,2.667430989501371
0.1188118811881188,2.6542438244982196
0.13861386138613863,2.6386997402032133
0.15841584158415842,2.620819203778439
0.1782178217821782,2.6006259075656275
0.19801980198019803,2.57814680635549
0.21782178217821782,2.5534121628574598
0.2376237623762376,2.5264556027762812
0.25742574257425743,2.497314181195333
0.27722772277227725,2.466028462314497
0.297029702970297,2.4326426150042106
0.31683168316831684,2.397204527134164
0.33663366336633666,2.359765942232664
0.3564356435643564,2.320382622755265
0.37623762376237624,2.279114545117222
0.39603960396039606,2.2360261327096
0.4158415841584158,2.191186534415533
0.43564356435643564,2.144669957726025
0.45544554455445546,2.0965560674845447
0.4752475247524752,2.0469304636445216
0.495049504950495,1.9958852542896464
0.5148514851485149,1.9435197436429845
0.5346534653465347,1.8899412589818767
0.5544554455445545,1.8352661453810792
0.5742574257425742,1.7796209630971054
0.594059405940594,1.7231439291878274
0.613861386138614,1.6659866524863336
0.6336633663366337,1.6083162189087485
0.6534653465346534,1.5503176913631338
0.6732673267326733,1.4921970935024982
0.6930693069306931,1.434184946083531
0.7128712871287128,1.3765404133725827
0.7326732673267327,1.3195560860450246
0.7524752475247525,1.2635633625115303
0.7722772277227723,1.2089382720973418
0.7920792079207921,1.1561073831134427
0.8118811881188118,1.1055531236497926
0.8316831683168316,1.0578173848267658
0.8514851485148516,1.013501676817221
0.8712871287128713,0.9732614456650741
0.891089108910891,0.93779165794744
0.9108910891089109,0.9078008495404816
0.9306930693069307,0.8839721081715546
0.9504950495049505,0.8669124014532126
0.9702970297029703,0.8570960819240998
0.99009900990099,0.8548128638389026
1.00990099009901,0.8601325531643527
1.0297029702970297,0.8728961671091194
1.0495049504950495,0.8927360211874524
1.0693069306930694,0.9191190323543338
1.0891089108910892,0.9514019445650526
1.108910891089109,0.9888865162367152
1.1287128712871286,1.030866000522977
1.1485148514851484,1.0766589533366004
1.1683168316831685,1.125630331920303
1.188118811881188,1.1772020977402302
1.2079207920792079,1.2308562682181738
1.227722772277228,1.2861331527913178
1.2475247524752475,1.3426269051134256
1.2673267326732673,1.3999798690793086
1.2871287128712872,1.457876649346354
1.3069306930693068,1.5160384378811476
1.3267326732673268,1.5742178623646979
1.3465346534653466,1.632194458122303
1.3663366336633662,1.6897707710475387
1.3861386138613863,1.746769049788127
1.405940594059406,1.8030284635836815
1.4257425742574257,1.8584027759362005
1.4455445544554455,1.912758406457785
1.4653465346534653,1.9659728194024637
1.4851485148514851,2.017933185046465
1.504950495049505,2.0685352678757214
1.5247524752475248,2.1176825027952417
1.5445544554455446,2.16528522700477
1.5643564356435644,2.211260040716588
1.5841584158415842,2.2555292745603905
1.6039603960396038,2.298020545413507
1.6237623762376237,2.3386663856146273
1.6435643564356437,2.377403933170749
1.6633663366336633,2.4141746727420412
1.683168316831683,2.4489242189732514
1.7029702970297032,2.481602135201801
1.7227722772277227,2.51216178177176
1.7425742574257426,2.540560189167964
1.7623762376237624,2.566757951996023
1.782178217821782,2.590719140502905
1.801980198019802,2.61241122688878
1.8217821782178218,2.6318050241217925
1.8415841584158414,2.6488746353538573
1.8613861386138615,2.6635974123603514
1.881188118811881,2.675953921701463
1.900990099009901,2.68592791753825
1.920792079207921,2.69350632023913
1.9405940594059405,2.6986792000901496
1.9603960396039604,2.701439765579714
1.98019801980198,2.7017843558708794
2.0,2.6997124372060854
2.01980198019802,2.6952266031129994
2.0396039603960396,2.688332578401453
2.0594059405940595,2.67903922706131
2.0792079207920793,2.6673585642950712
2.099009900990099,2.6533057730485394
2.118811881188119,2.6368992255434787
2.1386138613861387,2.618160510470275
2.1584158415841586,2.5971144666724575
2.1782178217821784,2.5737892243528733
2.1980198019801978,2.548216255059509
2.217821782178218,2.5204304319770534
2.237623762376238,2.490470102364438
2.257425742574257,2.458377174353065
2.2772277227722775,2.4241972207666995
2.297029702970297,2.38797960316059
2.3168316831683167,2.3497776199235902
2.336633663366337,2.3096486830694984
2.3564356435643563,2.267654529292788
2.376237623762376,2.2238614720191237
2.3960396039603964,2.178340702586541
2.4158415841584158,2.131168650409887
2.4356435643564356,2.0824274140714145
2.455445544554456,2.0322052778297777
2.4752475247524752,1.9805973311345604
2.495049504950495,1.9277062124782505
2.514851485148515,1.8736430034122284
2.5346534653465347,1.8185283038881432
2.5544554455445545,1.7624935263062713
2.5742574257425743,1.7056824527091383
2.594059405940594,1.6482531072102753
2.6138613861386135,1.5903800034064774
2.633663366336634,1.5322568329835058
2.6534653465346536,1.474099664749786
2.673267326732673,1.4161507189825386
2.6930693069306932,1.3586827636343617
2.712871287128713,1.3020041359979522
2.7326732673267324,1.2464643096050203
2.7524752475247527,1.19245977815903
2.7722772277227725,1.1404397860407824
2.792079207920792,1.0909110661986459
2.811881188118812,1.044440231711646
2.8316831683168315,1.0016518333378144
2.8514851485148514,0.9632194703261376
2.8712871287128716,0.9298470258948245
2.891089108910891,0.9022375959386051
2.910891089108911,0.8810495793459747
2.9306930693069306,0.866842983487302
2.9504950495049505,0.8600236280469661
2.9702970297029703,0.8607966731903627
2.99009900990099,0.8691411832776882
3.00990099009901,0.8848128789601173
3.0297029702970297,0.9073742727816726
3.0495049504950495,0.9362438237500956
3.0693069306930694,0.9707520945792508
3.089108910891089,1.0101940096140636
3.108910891089109,1.0538704185884478
3.128712871287129,1.10111670986936
3.148514851485148,1.1513194923739616
3.1683168316831685,1.2039239591479418
3.1881188118811883,1.2584348424844787
3.2079207920792077,1.3144134639087934
3.227722772277228,1.3714727396274404
3.2475247524752473,1.4292713857117838
3.267326732673267,1.4875080809707688
3.2871287128712874,1.5459160032646175
3.3069306930693068,1.6042579333456461
3.3267326732673266,1.6623219867076497
3.346534653465347,1.719917959428074
3.366336633663366,1.7768742367385637
3.386138613861386,1.8330351980145578
3.4059405940594063,1.8882590492961107
3.4257425742574257,1.9424160183332362
3.4455445544554455,1.995386853940473
3.4653465346534653,2.0470615791456472
3.485148514851485,2.0973384551681615
3.504950495049505,2.146123120153778
3.5247524752475248,2.193327872632324
3.5445544554455446,2.238871074824138
3.564356435643564,2.282676655257974
3.5841584158415842,2.3246736937699857
3.603960396039604,2.3647960749328547
3.6237623762376234,2.4029821984149984
3.6435643564356437,2.439174736781505
3.6633663366336635,2.4733204328978386
3.683168316831683,2.5053699304504398
3.702970297029703,2.5352776322091204
3.722772277227723,2.5630015815699676
3.7425742574257423,2.5885033636710255
3.762376237623762,2.611748022996072
3.7821782178217824,2.6327039948993427
3.801980198019802,2.65134304891515
3.8217821782178216,2.6676402420783933
3.841584158415842,2.681573880786594
3.8613861386138613,2.693125489993786
3.881188118811881,2.7022797887488115
3.9009900990099013,2.7090246712839052
3.9207920792079207,2.7133511930292125
3.9405940594059405,2.71525356108073
3.96039603960396,2.714729128787906
3.98019801980198,2.7117783942560725
4.0,2.7064050026824087
4.01980198019802,2.6986157525654058
4.03960396039604,2.688420605949937
4.0594059405940595,2.675832702996967
4.079207920792079,2.6608683813015452
4.099009900990099,2.6435472005298695
4.118811881188119,2.623891973108759
4.138613861386139,2.6019288018855113
4.158415841584159,2.5776871258873464
4.178217821782178,2.551199775555023
4.198019801980198,2.522503039112585
4.217821782178218,2.4916367420755994
4.237623762376238,2.4586443423040834
4.257425742574258,2.4235730434908644
4.2772277227722775,2.3864739305573726
4.297029702970297,2.3474021311313122
4.316831683168317,2.306417008130433
4.336633663366336,2.2635823895087457
4.356435643564357,2.2189668424763904
4.376237623762377,2.172644001032808
4.3960396039603955,2.1246929575156464
4.415841584158416,2.075198731135407
4.435643564356436,2.0242528292230806
4.455445544554455,1.9719539202578193
4.475247524752476,1.918408641762965
4.4950495049504955,1.8637325709573713
4.514851485148514,1.8080513916931436
4.534653465346535,1.7515022977068595
4.554455445544555,1.6942356794320583
4.574257425742574,1.636417149188222
4.594059405940594,1.5782299666519937
4.613861386138614,1.5198779315348228
4.633663366336633,1.4615888104671477
4.653465346534653,1.4036183553041235
4.673267326732674,1.3462549423507701
4.693069306930693,1.2898248036953277
4.712871287128713,1.2346977141434572
4.732673267326733,1.1812928143649217
4.752475247524752,1.1300839617333436
4.772277227722772,1.0816035768546706
4.792079207920793,1.0364433919441747
4.811881188118812,0.9952498685891215
4.8316831683168315,0.9587115268792366
4.851485148514852,0.9275353938667094
4.871287128712871,0.9024107879652681
4.891089108910891,0.8839612144439083
4.910891089108912,0.872689224233781
4.930693069306931,0.8689235405631636
4.9504950495049505,0.8727803050261195
4.97029702970297,0.8841486699497477
4.99009900990099,0.9027048340817528
5.00990099009901,0.9279505084823038
5.02970297029703,0.959265633822885
5.0495049504950495,0.9959634971370936
5.069306930693069,1.0373389082067765
5.089108910891089,1.0827045372107285
5.108910891089109,1.1314146000002359
5.128712871287129,1.1828776507172118
5.148514851485149,1.2365612635720518
5.1683168316831685,1.2919913603922137
5.188118811881188,1.348748419380326
5.207920792079208,1.4064621633130685
5.227722772277227,1.4648057634392504
5.247524752475248,1.5234901711049058
5.267326732673268,1.5822588991477504
5.2871287128712865,1.6408833914752816
5.306930693069307,1.6991590109632158
5.326732673267327,1.7569016170771614
5.346534653465346,1.813944676606649
5.366336633663367,1.8701368409119876
5.3861386138613865,1.9253399230238903
5.405940594059405,1.979427212863289
5.425742574257426,2.0322820758789204
5.445544554455446,2.083796787928365
5.465346534653465,2.1338715664225063
5.485148514851486,2.182413764232431
5.504950495049505,2.2293371984907098
5.524752475247524,2.274561591210175
5.544554455445545,2.318012102660062
5.564356435643565,2.359618941775745
5.584158415841584,2.39931704063367
5.603960396039604,2.437045782289753
5.623762376237624,2.472748773141056
5.643564356435643,2.506373652498684
5.663366336633663,2.537871933314964
5.683168316831684,2.5671988690394842
5.702970297029703,2.5943133424287934
5.7227722772277225,2.61917777283692
5.742574257425743,2.64175803909586
5.762376237623762,2.662023415579237
5.782178217821782,2.6799465194474656
5.801980198019803,2.6955032674128834
5.821782178217822,2.7086728406514426
5.841584158415841,2.7194376567336187
5.861386138613861,2.7277833476589213
5.881188118811881,2.7336987432637443
5.900990099009901,2.7371758594358773
5.920792079207921,2.738209890716976
5.9405940594059405,2.7367992070101903
5.96039603960396,2.732945354238051
5.98019801980198,2.726653058919832
6.0,2.7179302367601794
6.01980198019802,2.706788005466496
6.03960396039604,2.693240702143839
6.0594059405940595,2.677305905757442
6.079207920792079,2.6590044653078126
6.099009900990099,2.638360534536907
6.118811881188119,2.6154016141809997
6.138613861386139,2.590158603013198
6.158415841584159,2.562665859183518
6.178217821782178,2.5329612736755194
6.198019801980198,2.5010863580677327
6.217821782178218,2.4670863492278374
6.237623762376237,2.431010334094201
6.257425742574258,2.392911398333829
6.2772277227722775,2.3528468034308316
6.297029702970296,2.310878197687083
6.316831683168317,2.2670718677419037
6.336633663366337,2.2214990385856144
6.356435643564356,2.174236231706592
6.376237623762377,2.125365693036231
6.396039603960396,2.074975904817524
6.415841584158415,2.023162198504601
6.435643564356436,1.9700274893976926
6.455445544554456,1.9156831580235036
6.475247524752475,1.8602501083645056
6.495049504950495,1.80386003896152
6.514851485148515,1.7466569696055718
6.534653465346534,1.688799073563403
6.554455445544554,1.6304608724831102
6.574257425742575,1.5718358571663011
6.594059405940594,1.5131396001758275
6.6138613861386135,1.4546134221159388
6.633663366336634,1.3965286562685795
6.653465346534653,1.3391915163305828
6.673267326732673,1.282948494386647
6.693069306930694,1.2281920796888737
6.712871287128713,1.1753663656927797
6.732673267326732,1.1249717732447606
6.752475247524753,1.077567642466894
6.772277227722772,1.033770854286611
6.792079207920792,0.9942480425886355
6.811881188118813,0.9596986091940426
6.8316831683168315,0.9308261036837321
6.851485148514851,0.9082971282494833
6.871287128712871,0.892690103333955
6.891089108910891,0.8844405425139118
6.910891089108911,0.8837933171278478
6.930693069306931,0.89077336231975
6.9504950495049505,0.9051827771956472
6.97029702970297,0.9266251285554883
6.99009900990099,0.9545502358193532
7.00990099009901,0.9883083241713867
7.02970297029703,1.0272025735994585
7.0495049504950495,1.0705325378209543
7.069306930693069,1.1176252848242296
7.089108910891089,1.167854580576374
7.108910891089109,1.2206503405353586
7.128712871287128,1.2755011316202516
7.148514851485149,1.33195225940015
7.1683168316831685,1.3896014013285982
7.188118811881187,1.4480931428788697
7.207920792079208,1.5071132724993246
7.227722772277228,1.5663833260991573
7.247524752475247,1.6256556279831718
7.267326732673268,1.6847089237343507
7.287128712871287,1.7433446130219914
7.306930693069306,1.8013835441252015
7.326732673267327,1.858663311063534
7.346534653465347,1.9150359879679655
7.366336633663366,1.9703662369858501
7.3861386138613865,2.0245297315293795
7.405940594059406,2.077411843695403
7.425742574257425,2.1289065519145893
7.445544554455446,2.178915531672095
7.465346534653466,2.2273473981927796
7.485148514851485,2.2741170752167044
7.504950495049505,2.319145268428912
7.524752475247524,2.3623580258229055
7.544554455445544,2.4036863703632347
7.564356435643565,2.4430659928609315
7.584158415841584,2.480436995074714
7.603960396039604,2.5157436747759108
7.623762376237624,2.54893434593429
7.643564356435643,2.579961188348151
7.663366336633663,2.6087801220031563
7.683168316831684,2.6353507022380813
7.702970297029703,2.6596360324523247
7.7227722772277225,2.6816026916352214
7.742574257425743,2.7012206744530647
7.762376237623762,2.7184633420106086
7.782178217821782,2.733307381726238
7.801980198019803,2.745732775032996
7.821782178217822,2.755722771852731
7.841584158415841,2.763263870993432
7.861386138613862,2.7683458057985337
7.881188118811881,2.7709615345362755
7.900990099009901,2.7711072351621002
7.92079207920792,2.7687823042216837
7.9405940594059405,2.7639893597902727
7.96039603960396,2.7567342484696398
7.980198019801979,2.7470260565894358
8.0,2.7348771258900544
8.01980198019802,2.720303074101494
8.03960396039604,2.7033228209818323
8.05940594059406,2.6839586205441925
8.07920792079208,2.6622361003867234
8.099009900990099,2.638184309253081
8.118811881188119,2.6118357741965283
8.138613861386139,2.5832265690087417
8.158415841584159,2.5523963959136413
8.178217821782178,2.519388682928962
8.198019801980198,2.4842506997791935
8.217821782178218,2.4470336958197603
8.237623762376238,2.407793064126735
8.257425742574258,2.3665885367443504
8.277227722772277,2.323484417098221
8.297029702970297,2.2785498568134246
8.316831683168317,2.2318591856726564
8.336633663366337,2.1834923052669035
8.356435643564357,2.1335351590971525
8.376237623762377,2.0820802945588652
8.396039603960396,2.0292275354662417
8.415841584158416,1.9750847876424602
8.435643564356436,1.9197690046968368
8.455445544554456,1.8634073464874186
8.475247524752476,1.8061385689182188
8.495049504950495,1.7481146905057068
8.514851485148515,1.6895029881871308
8.534653465346535,1.6304883813249762
8.554455445544555,1.5712762672534164
8.574257425742575,1.5120958712839372
8.594059405940595,1.4532041642179083
8.613861386138613,1.3948903735867613
8.633663366336634,1.3374810593696136
8.653465346534654,1.281345623602685
8.673267326732672,1.226901952605752
8.693069306930694,1.1746216223234305
8.712871287128714,1.125033705885792
8.732673267326732,1.0787257033199222
8.752475247524753,1.0363395188668985
8.772277227722773,0.998559906089999
8.792079207920791,0.9660927163318921
8.811881188118813,0.939631114531168
8.831683168316832,0.919810148631318
8.85148514851485,0.9071537264115579
8.871287128712872,0.902022265859212
8.891089108910892,0.9045720686863562
8.91089108910891,0.9147366489600215
8.930693069306932,0.9322351456898756
8.950495049504951,0.956605448513121
8.97029702970297,0.9872532973441156
8.990099009900991,1.023506117941943
9.00990099009901,1.06466198045646
9.029702970297029,1.1100280041296118
9.04950495049505,1.1589465682594409
9.06930693069307,1.2108104917199196
9.089108910891088,1.265069655769625
9.10891089108911,1.3212317456326892
9.12871287128713,1.3788593948534535
9.148514851485148,1.4375654312798363
9.16831683168317,1.4970073670705646
9.188118811881187,1.5568818350887337
9.207920792079207,1.6169193622874118
9.227722772277229,1.6768796667591417
9.247524752475247,1.7365475406462056
9.267326732673267,1.795729310544093
9.287128712871288,1.854249830864992
9.306930693069306,1.9119499502699626
9.326732673267326,1.9686843878123963
9.346534653465348,2.0243199582879523
9.366336633663366,2.0787340921098414
9.386138613861386,2.1318136019021243
9.405940594059407,2.1834536548832744
9.425742574257425,2.2335569164791984
9.445544554455445,2.282032836242267
9.465346534653467,2.3287970520086887
9.485148514851485,2.373770892337798
9.504950495049505,2.416880960716638
9.524752475247526,2.458058787870515
9.544554455445544,2.497240540882109
9.564356435643564,2.534366779769074
9.584158415841586,2.5693822537736657
9.603960396039604,2.6022357309377577
9.623762376237623,2.632879855625333
9.643564356435645,2.6612710295518784
9.663366336633663,2.687369312623608
9.683168316831683,2.7111383405055567
9.702970297029704,2.7325452563513144
9.722772277227723,2.7515606545565245
9.742574257425742,2.768158534759634
9.762376237623764,2.782316264619043
9.782178217821782,2.7940145501573146
9.801980198019802,2.803237412687228
9.821782178217823,2.809972171531302
9.841584158415841,2.8142094319193887
9.861386138613861,2.815943077605094
9.881188118811881,2.8151702678849753
9.900990099009901,2.8118914388390754
9.92079207920792,2.806110308740477
9.94059405940594,2.797833887710173
9.96039603960396,2.7870724918231233
9.98019801980198,2.7738397620077286
10.0,2.758152688225784
10.01980198019802,2.7400316395792417
10.03960396039604,2.719500401166849
10.05940594059406,2.696586218715037
10.07920792079208,2.671319852237649
10.099009900990099,2.643735640247385
10.118811881188119,2.6138715763566336
10.138613861386139,2.581769400476189
10.158415841584159,2.547474707262889
10.178217821782178,2.5110370749951842
10.198019801980198,2.4725102186894423
10.217821782178218,2.43195217203375
10.237623762376238,2.389425503638182
10.257425742574258,2.3449975742174667
10.277227722772277,2.298740842675259
10.297029702970297,2.2507332307016497
10.316831683168317,2.2010585574861223
10.336633663366337,2.149807058559611
10.356435643564357,2.0970760056889066
10.376237623762377,2.042970448241625
10.396039603960396,1.9876041006025646
10.415841584158416,1.9311004051191025
10.435643564356436,1.8735938057073174
10.455445544554454,1.8152312735861127
10.475247524752476,1.7561741333754406
10.495049504950495,1.6966002444183477
10.514851485148514,1.636706597544799
10.534653465346535,1.5767123895435553
10.554455445544555,1.516862632836766
10.574257425742573,1.457432340467878
10.594059405940595,1.3987312873504558
10.613861386138614,1.3411092739576402
10.633663366336632,1.2849616886750743
10.653465346534654,1.2307349547319137
10.673267326732674,1.1789311299523308
10.693069306930692,1.1301104851329367
10.712871287128714,1.084890336931329
10.732673267326733,1.0439378490891587
