Frequency (Hz),Amplitude
0.0,0.37352641523058366
0.019867549668874173,0.3794249045983532
0.039735099337748346,0.39657218263231225
0.059602649006622516,0.4235422070350359
0.07947019867549669,0.4585097381880154
0.09933774834437085,0.49967678295354706
0.11920529801324503,0.5454987715995537
0.13907284768211922,0.5947416107416263
0.15894039735099338,0.6464522762601411
0.17880794701986755,0.6999025739528807
0.1986754966887417,0.7545341543564185
0.2185430463576159,0.8099138195003636
0.23841059602649006,0.8656998937332858
0.2582781456953642,0.9216177727968674
0.27814569536423844,0.9774423837458742
0.2980132450331126,1.0329856330531564
0.31788079470198677,1.0880873922685375
0.33774834437086093,1.1426089800937063
0.3576158940397351,1.1964284096468172
0.3774834437086093,1.2494368911894693
0.3973509933774834,1.3015362349227944
0.4172185430463576,1.3526369049341962
0.4370860927152318,1.4026565487211837
0.45695364238410596,1.4515188774052512
0.4768211920529801,1.4991528069883118
0.49668874172185434,1.5454917956901915
0.5165562913907285,1.590473329846828
0.5364238410596026,1.6340385232807961
0.5562913907284769,1.6761318039984674
0.5761589403973509,1.7167006685588535
0.5960264900662252,1.755695489212396
0.6158940397350993,1.7930693624192475
0.6357615894039735,1.8287779899720935
0.6556291390728477,1.8627795859129572
0.6754966887417219,1.8950348039205416
0.695364238410596,1.9255066809788202
0.7152317880794702,1.954160594009262
0.7350993377483444,1.9809642268237126
0.7549668874172186,2.0058875452806952
0.7748344370860927,2.028902778940872
0.7947019867549668,2.0499844078431075
0.8145695364238411,2.0691091532828354
0.8344370860927152,2.086255971681951
0.8543046357615894,2.1014060508079058
0.8741721854304636,2.11454280773656
0.8940397350993378,2.1256518880656374
0.9139072847682119,2.1347211659794323
0.9337748344370861,2.1417407448436507
0.9536423841059603,2.146702958076368
0.9735099337748344,2.1496023700991964
0.9933774834437087,2.150435777223954
1.0132450331125828,2.149202208376906
1.033112582781457,2.1459029256057405
1.0529801324503312,2.140541424356169
1.0728476821192052,2.133123433545892
1.0927152317880795,2.123656915505984
1.1125827814569538,2.1121520659037922
1.1324503311258278,2.0986213138094683
1.1523178807947019,2.0830793221219555
1.1721854304635762,2.0655429886308725
1.1920529801324504,2.0460314480615462
1.2119205298013245,2.024566075533606
1.2317880794701985,2.0011704919628674
1.2516556291390728,1.9758705720566963
1.271523178807947,1.9486944556990784
1.2913907284768211,1.9196725637024028
1.3112582781456954,1.8888376191264507
1.3311258278145695,1.8562246756446863
1.3509933774834437,1.821871154789722
1.370860927152318,1.7858168943559005
1.390728476821192,1.7481042108054334
1.410596026490066,1.7087779792559739
1.4304635761589404,1.6678857355727956
1.4503311258278146,1.6254778063215471
1.4701986754966887,1.5816074739554398
1.4900662251655628,1.5363311867516798
1.5099337748344372,1.489708825866139
1.5298013245033113,1.4418040457126355
1.5496688741721854,1.392684709075329
1.5695364238410596,1.342423445475826
1.5894039735099337,1.2910983711295143
1.609271523178808,1.2387940224829541
1.6291390728476822,1.1856025745017993
1.6490066225165563,1.1316254420402434
1.6688741721854303,1.0769754014009474
1.6887417218543048,1.0217794249400034
1.7086092715231789,0.9661825021032603
1.728476821192053,0.9103528367996724
1.7483443708609272,0.8544889788879727
1.7682119205298013,0.7988296859033982
1.7880794701986755,0.7436676381850253
1.8079470198675496,0.689368546196022
1.8278145695364238,0.6363976235748477
1.847682119205298,0.5853555810660658
1.8675496688741722,0.5370254395076983
1.8874172185430464,0.4924276623959214
1.9072847682119205,0.45287061949086904
1.9271523178807946,0.4199614345123784
1.9470198675496688,0.39551108487341896
1.9668874172185429,0.3812582424247403
1.9867549668874174,0.3784188172579748
2.0066225165562916,0.38725868416009923
2.0264900662251657,0.4069881656018389
2.0463576158940397,0.43606402237470226
2.066225165562914,0.472665253348336
2.086092715231788,0.5150653230123581
2.1059602649006623,0.5618080551800807
2.1258278145695364,0.6117383832023288
2.1456953642384105,0.6639650616082773
2.165562913907285,0.7178052223825404
2.185430463576159,0.7727328200557474
2.205298013245033,0.8283374354113311
2.2251655629139075,0.8842934452734749
2.2450331125827816,0.9403376131287015
2.2649006622516556,0.9962529788300531
2.2847682119205297,1.0518572915640247
2.3046357615894038,1.1069946711126921
2.324503311258278,1.1615295546471651
2.3443708609271523,1.2153422657489923
2.364238410596027,1.268325741844362
2.384105960264901,1.3203830954636842
2.403973509933775,1.3714257810832162
2.423841059602649,1.4213722059136953
2.443708609271523,1.4701466692120297
2.463576158940397,1.5176785469475125
2.4834437086092715,1.5639016613376833
2.5033112582781456,1.6087537908556317
2.52317880794702,1.652176287819189
2.543046357615894,1.6941137789789615
2.562913907284768,1.7345139305715096
2.5827814569536423,1.7733272637473536
2.6026490066225163,1.810507009575906
2.622516556291391,1.846008995288444
2.642384105960265,1.8797915552724807
2.662251655629139,1.911815461736115
2.6821192052980134,1.942043871035763
2.7019867549668874,1.9704422824882584
2.7218543046357615,1.9969785071305344
2.741721854304636,2.0216226443915213
2.76158940397351,2.044347065035654
2.781456953642384,2.0651263990495803
2.801324503311258,2.083937527393322
2.821192052980132,2.1007595767369462
2.8410596026490067,2.115573916466513
2.8609271523178808,2.1283641573750494
2.8807947019867552,2.139116151564015
2.9006622516556293,2.147817993171276
2.9205298013245033,2.1544600196189125
2.9403973509933774,2.1590348131398183
2.9602649006622515,2.161537202399656
2.9801324503311255,2.1619642640820946
3.0,2.160315324352005
3.0198675496688745,2.1565919601555867
3.0397350993377485,2.150798000358926
3.0596026490066226,2.142939526769426
3.0794701986754967,2.1330248751287204
3.0993377483443707,2.1210646362127865
3.119205298013245,2.107071657226459
3.1390728476821192,2.0910610437375565
3.1589403973509933,2.07305016246215
3.1788079470198674,2.053058645289562
3.198675496688742,2.031108395027724
3.218543046357616,2.0072235934587455
3.23841059602649,1.9814307124278336
3.2582781456953644,1.9537585288510075
3.2781456953642385,1.9242381447275057
3.2980132450331126,1.8929030134916813
3.3178807947019866,1.8597889743506135
3.3377483443708607,1.824934296645972
3.3576158940397347,1.7883797367764966
3.3774834437086096,1.7501686108528085
3.3973509933774837,1.7103468870735303
3.4172185430463577,1.668963302869571
3.437086092715232,1.626069513242686
3.456953642384106,1.581720278536187
3.47682119205298,1.5359737022730875
3.4966887417218544,1.4888915328940437
3.5165562913907285,1.4405395475253344
3.5364238410596025,1.390988041731734
3.556291390728477,1.3403124571692961
3.576158940397351,1.2885941900231155
3.596026490066225,1.2359216383613845
3.615894039735099,1.18239156789903
3.6357615894039736,1.1281109058286107
3.6556291390728477,1.0731991152559146
3.6754966887417218,1.0177913640521448
3.695364238410596,0.9620427897031366
3.7152317880794703,0.906134287183059
3.7350993377483444,0.850280424366425
3.754966887417219,0.7947403344833489
3.774834437086093,0.7398327555726495
3.794701986754967,0.6859567571430667
3.814569536423841,0.6336199858856743
3.834437086092715,0.5834760785817021
3.854304635761589,0.5363712186958277
3.8741721854304636,0.4933944616118893
3.8940397350993377,0.4559137545481532
3.9139072847682117,0.42555673891308726
3.9337748344370858,0.404071083357215
3.9536423841059607,0.39301207556451573
3.9735099337748347,0.39331215860181284
3.993377483443709,0.4049521515034588
4.013245033112583,0.4269694388095767
4.033112582781457,0.4577965600541396
4.052980132450331,0.4956897783155348
4.072847682119205,0.5390338711756968
4.0927152317880795,0.586475215795865
4.112582781456953,0.6369375410414866
4.132450331125828,0.6895848185172848
4.152317880794702,0.7437710021094509
4.172185430463576,0.7989939251044899
4.19205298013245,0.8548583819151016
4.211920529801325,0.9110482992658012
4.231788079470199,0.9673063281016244
4.251655629139073,1.0234190371772574
4.271523178807947,1.0792061879353396
4.291390728476821,1.1345129386010857
4.311258278145695,1.1892041418471688
4.33112582781457,1.243160141591674
4.3509933774834435,1.296273649017846
4.370860927152318,1.348447401197577
4.390728476821192,1.3995923919565496
4.410596026490066,1.4496265248448645
4.43046357615894,1.498473580236031
4.450331125827815,1.5460624182440328
4.470198675496689,1.5923263601671824
4.490066225165563,1.6372027061740875
4.509933774834438,1.680632357750303
4.529801324503311,1.7225595212658456
4.549668874172186,1.7629314747645732
4.569536423841059,1.8016983843139862
4.589403973509934,1.8388131594073902
4.6092715231788075,1.8742313392763479
4.629139072847682,1.9079110037594589
4.649006622516556,1.9398127037358115
4.66887417218543,1.9698994071766642
4.688741721854305,1.9981364576762337
4.708609271523179,2.0244915429513153
4.728476821192054,2.048934671291362
4.748344370860927,2.071438154329523
4.768211920529802,2.091976594813235
4.788079470198675,2.110526878300028
4.80794701986755,2.1270681679030172
4.827814569536423,2.1415819013721844
4.847682119205298,2.1540517899297695
4.867549668874172,2.1644638183880516
4.887417218543046,2.1728062461691766
4.9072847682119205,2.1790696089248773
4.927152317880794,2.1832467205210113
4.947019867549669,2.1853326752108946
4.966887417218543,2.185324849874598
4.986754966887418,2.1832229062505597
5.006622516556291,2.1790287931321783
5.026490066225166,2.1727467485483016
5.04635761589404,2.164383301992285
5.066225165562914,2.1539472768131236
5.086092715231788,2.141449792934015
5.105960264900662,2.126904270121321
5.125827814569536,2.1103264320917985
5.14569536423841,2.0917343118212117
5.1655629139072845,2.0711482585049095
5.185430463576159,2.0485909467257777
5.205298013245033,2.0240873885099333
5.225165562913908,1.997664949103397
5.245033112582782,1.9693533674890478
5.264900662251656,1.9391847828936812
5.28476821192053,1.907193768821387
5.304635761589404,1.8734173765076845
5.324503311258278,1.837895190140912
5.344370860927152,1.8006693967704044
5.364238410596027,1.7617848745531517
5.3841059602649,1.7212893039313897
5.403973509933775,1.6792333075516659
5.4238410596026485,1.6356706263226375
5.443708609271523,1.5906583410916928
5.463576158940397,1.5442571521735067
5.483443708609272,1.496531732629741
5.503311258278146,1.4475511761186586
5.52317880794702,1.3973895667847027
5.543046357615895,1.3461267077216972
5.562913907284768,1.293849056987078
5.582781456953643,1.240650937357509
5.602649006622516,1.1866361099880454
5.622516556291391,1.1319198357243672
5.642384105960264,1.076631595082258
5.662251655629139,1.0209187045497576
5.682119205298013,0.9649511606096995
5.701986754966887,0.908928173518347
5.7218543046357615,0.8530870309854514
5.741721854304636,0.7977151637882923
5.7615894039735105,0.7431665582712814
5.781456953642384,0.689883904823531
5.801324503311259,0.6384278707529314
5.821192052980132,0.5895140903891882
5.841059602649007,0.5440556626634105
5.860927152317881,0.5032019279494652
5.880794701986755,0.46835039870545786
5.900662251655629,0.4410889055194503
5.920529801324503,0.423014669223962
5.940397350993377,0.41541425356829526
5.960264900662251,0.4188991882429929
5.980132450331126,0.43319921261522387
6.0,0.45725798945279866
6.0198675496688745,0.4895616395952374
6.039735099337749,0.5284945741007983
6.059602649006623,0.5725770145091147
6.079470198675497,0.6205649100372304
6.099337748344371,0.6714591507385742
6.119205298013245,0.7244736874933321
6.139072847682119,0.7789929970870987
6.158940397350993,0.8345325810658291
6.178807947019867,0.8907067842889868
6.198675496688741,0.9472041033831581
6.218543046357616,1.003768773235803
6.23841059602649,1.0601872010139601
6.258278145695365,1.1162780025548533
6.2781456953642385,1.1718846696110465
6.298013245033113,1.2268701465075615
6.317880794701987,1.2811127927727328
6.337748344370861,1.3345033556483221
6.357615894039735,1.3869426828466236
6.377483443708609,1.4383399818184155
6.397350993377484,1.4886114856514352
6.417218543046357,1.5376794239527458
6.437086092715232,1.5854712243086002
6.456953642384105,1.6319188894289747
6.47682119205298,1.6769585091545924
6.496688741721854,1.720529876723144
6.516556291390729,1.762576186170183
6.5364238410596025,1.803043793254468
6.556291390728477,1.8418820263959783
6.5761589403973515,1.8790430371834377
6.596026490066225,1.9144816823230733
6.6158940397351,1.9481554306600404
6.635761589403973,1.9800242902500884
6.655629139072848,2.0100507514972894
6.675496688741721,2.0381997431788355
6.695364238410596,2.064438598807396
6.715231788079469,2.0887370312761475
6.735099337748344,2.1110671141238697
6.754966887417219,2.1314032680695236
6.774834437086093,2.149722251716855
6.794701986754967,2.166003155532217
6.814569536423841,2.1802273983644116
6.8344370860927155,2.1923787259114937
6.854304635761589,2.2024432106526604
6.874172185430464,2.2104092528587653
6.894039735099337,2.2162675823762523
6.913907284768212,2.2200112609503018
6.933774834437086,2.2216356849153023
6.95364238410596,2.221138588138289
6.973509933774834,2.2185200451536025
6.993377483443709,2.2137824744785433
7.013245033112583,2.206930642150453
7.033112582781457,2.1979716655776698
7.052980132450331,2.1869150178516095
7.072847682119205,2.173772532727281
7.0927152317880795,2.158558410545607
7.112582781456954,2.1412892254471587
7.132450331125828,2.121983934314023
7.152317880794702,2.1006638879805406
7.172185430463576,2.0773528453760477
7.19205298013245,2.0520769914114685
7.211920529801324,2.024864959601836
7.231788079470198,1.9957478606376795
7.251655629139073,1.9647593183915173
7.271523178807947,1.9319355151850932
7.291390728476822,1.89731524856815
7.311258278145695,1.8609400023951153
7.33112582781457,1.8228540356649943
7.3509933774834435,1.7831044934561937
7.370860927152318,1.7417415454000593
7.390728476821192,1.6988185585743487
7.410596026490066,1.6543923135667606
7.430463576158941,1.6085232749063785
7.450331125827814,1.5612759302866124
7.470198675496689,1.512719217284575
7.490066225165562,1.4629270620027344
7.509933774834438,1.411979061755211
7.52980132450331,1.3599613543443954
7.549668874172186,1.3069677306780927
7.569536423841059,1.2531010669439775
7.589403973509934,1.1984751793585764
7.6092715231788075,1.1432172415121957
7.629139072847682,1.0874709554354611
7.649006622516557,1.0314007378013252
7.66887417218543,0.975197278267385
7.6887417218543055,0.9190849539096868
7.708609271523178,0.8633317444245915
7.728476821192054,0.8082624766269202
7.748344370860927,0.7542763873539737
7.768211920529802,0.7018699988352123
7.788079470198675,0.6516658303679994
7.80794701986755,0.6044458443926344
7.827814569536423,0.5611845049180425
7.847682119205298,0.523068240108482
7.8675496688741715,0.49147540605882273
7.887417218543046,0.4678789948993286
7.907284768211921,0.4536417228480283
7.927152317880795,0.44972543405330834
7.9470198675496695,0.45642520182709617
7.966887417218543,0.4732784168514155
7.986754966887418,0.4992083890180591
8.006622516556291,0.5328097937204594
8.026490066225167,0.5726249042021905
8.046357615894038,0.6173215767959023
8.066225165562914,0.6657684237068403
8.086092715231787,0.7170424532954821
8.105960264900663,0.7704047788381022
8.125827814569536,0.8252668857722488
8.14569536423841,0.8811582509999362
8.165562913907285,0.9376991636838676
8.185430463576159,0.9945793062488092
8.205298013245034,1.0515413968439586
8.225165562913906,1.108368881880711
8.245033112582782,1.1648767273484215
8.264900662251655,1.2209045296167893
8.28476821192053,1.2763113456796953
8.304635761589404,1.3309717946604493
8.324503311258278,1.3847731006761117
8.344370860927151,1.4376128356179838
8.364238410596027,1.4893971852406849
8.3841059602649,1.5400396090366162
8.403973509933774,1.5894597984648446
8.42384105960265,1.6375828628138502
8.443708609271523,1.684338689946432
8.463576158940398,1.7296614423060375
8.483443708609272,1.7734891582149732
8.503311258278146,1.8157634356336323
8.52317880794702,1.8564291808652127
8.543046357615895,1.8954344086757922
8.562913907284768,1.9327300833073244
8.582781456953642,1.968269992147694
8.602649006622515,2.0020106455707314
8.62251655629139,2.0339111978068543
8.642384105960264,2.0639333847490025
8.66225165562914,2.0920414754141037
8.682119205298013,2.1182022344198193
8.701986754966887,2.1423848933427387
8.721854304635762,2.164561129226187
8.741721854304636,2.1847050488284987
8.76158940397351,2.202793177462289
8.781456953642383,2.218804451486715
8.801324503311259,2.232720213687749
8.821192052980132,2.244524210924743
8.841059602649008,2.2542025935413497
8.86092715231788,2.261743916140356
8.880794701986755,2.2671391394093616
8.90066225165563,2.270381632760678
8.920529801324504,2.271467177617514
8.940397350993377,2.2703939712413073
8.960264900662251,2.2671626310547266
8.980132450331126,2.261776199472635
9.0,2.254240149311641
9.019867549668875,2.2445623899093423
9.039735099337747,2.2327532741486213
9.059602649006623,2.21882560665364
9.079470198675496,2.2027946535030707
9.099337748344372,2.1846781538977003
9.119205298013245,2.164496334325213
9.139072847682119,2.1422719258904124
9.158940397350994,2.1180301856285615
9.178807947019868,2.0917989228003355
9.198675496688743,2.0636085313862336
9.218543046357615,2.033492030268068
9.23841059602649,2.00148511291767
9.258278145695364,1.9676262088265817
9.27814569536424,1.9319565594275547
9.298013245033111,1.894520311909393
9.317880794701987,1.855364635149799
9.33774834437086,1.8145398630392335
9.357615894039736,1.7720996718104591
9.37748344370861,1.7281012997172365
9.397350993377483,1.6826058196451295
9.417218543046358,1.6356784781566847
9.437086092715232,1.5873891183010314
9.456953642384107,1.537812708565752
9.47682119205298,1.487030007044631
9.496688741721854,1.435128398822119
9.516556291390728,1.382202956536234
9.536423841059603,1.3283577901686667
9.556291390728477,1.273707773803835
9.57615894039735,1.2183807663660893
9.596026490066224,1.1625204827262405
9.6158940397351,1.1062902241543782
9.635761589403973,1.049877746194687
9.655629139072847,0.9935016300934381
9.675496688741722,0.9374196296522151
9.695364238410596,0.8819395771681482
9.715231788079471,0.8274335134351603
9.735099337748345,0.774355666644857
9.754966887417218,0.7232645430487792
9.774834437086092,0.6748483115719626
9.794701986754967,0.629950181426439
9.814569536423841,0.5895856793682495
9.834437086092716,0.5549361862053598
9.854304635761588,0.5272949215767707
9.874172185430464,0.5079409968815813
9.894039735099337,0.49793868449745543
9.913907284768213,0.49790907286218394
9.933774834437086,0.5078707368696688
9.95364238410596,0.5272360554133718
9.973509933774835,0.5549651556798688
9.993377483443709,0.589793023013138
10.013245033112582,0.6304322126712301
10.033112582781456,0.6757018061288598
10.052980132450331,0.7245839638026698
10.072847682119205,0.7762320174243186
10.09271523178808,0.8299540586183274
10.112582781456952,0.8851879444096922
10.132450331125828,0.9414760376964565
10.152317880794701,0.9984431216949583
10.172185430463577,1.0557783794870943
10.192052980132452,1.1132212107162678
10.211920529801324,1.1705502753485142
10.2317880794702,1.2275751045904333
10.251655629139073,1.284129696093909
10.271523178807948,1.3400676207082907
10.29139072847682,1.3952582733044245
10.311258278145695,1.449583988263242
10.331125827814569,1.5029378095057375
10.350993377483444,1.5552217577473548
10.370860927152318,1.6063454772436485
10.390728476821192,1.6562251737294198
10.410596026490065,1.704782777078735
10.43046357615894,1.7519452784026126
10.450331125827816,1.7976442033391482
10.470198675496688,1.8418151922766381
10.490066225165563,1.8843976649900362
10.509933774834437,1.9253345522516123
10.529801324503312,1.9645720808300153
10.549668874172186,2.002059601229585
10.56953642384106,2.0377494497762894
10.589403973509933,2.071596838396368
10.609271523178808,2.103559766784336
10.629139072847682,2.133598952712167
10.649006622516556,2.1616777770605915
10.66887417218543,2.187762240808271
10.688741721854305,2.2118209317362596
