Time (s),Filtered Signal
0.0,-0.01634061739089252
0.03337028824833703,0.3439949696882639
0.06674057649667406,0.6622493336199453
0.10011086474501109,0.907654429166193
0.13348115299334812,1.068670356905744
0.16685144124168516,1.1529976385280771
0.20022172949002218,1.1818605640116266
0.2335920177383592,1.181741314865538
0.26696230598669624,1.1762490108149186
0.3003325942350333,1.179242555590221
0.3337028824833703,1.1896952200318052
0.3670731707317073,1.1897888205681317
0.40044345898004435,1.1488430429036487
0.4338137472283814,1.034542372188759
0.4671840354767184,0.828872148697732
0.5005543237250555,0.5416164447621102
0.5339246119733925,0.21307984539963495
0.5672949002217295,-0.09804970649582775
0.6006651884700666,-0.33784638616249957
0.6340354767184035,-0.48047876068029244
0.6674057649667406,-0.5393294716035287
0.7007760532150776,-0.5587503046761555
0.7341463414634146,-0.5890241475608425
0.7675166297117517,-0.6564501497841191
0.8008869179600887,-0.7444349161705774
0.8342572062084257,-0.7973350417432441
0.8676274944567628,-0.7477622235188464
0.9009977827050998,-0.5553184180464998
0.9343680709534368,-0.23722031636827906
0.9677383592017739,0.1262149537864295
1.001108647450111,0.41639979395312193
1.0344789356984478,0.5218135421825514
1.067849223946785,0.3839656848645463
1.101219512195122,0.023945141937240982
1.134589800443459,-0.4613742044194001
1.167960088691796,-0.9312141633754915
1.2013303769401331,-1.2476611361042869
1.23470066518847,-1.3196911980027621
1.268070953436807,-1.1296495955047499
1.3014412416851442,-0.7351643971755594
1.3348115299334813,-0.24841344757471331
1.3681818181818182,0.19866737092809095
1.4015521064301553,0.49201925146005204
1.4349223946784924,0.5659313124333248
1.4682926829268292,0.41976829541254684
1.5016629711751663,0.11809194817318186
1.5350332594235034,-0.2258013384955303
1.5684035476718403,-0.48055263700840345
1.6017738359201774,-0.5362352125143105
1.6351441241685145,-0.3430751277187745
1.6685144124168514,0.06398453179691546
1.7018847006651885,0.5680091370224478
1.7352549889135256,1.0057866726181515
1.7686252771618625,1.2282752589223451
1.8019955654101996,1.163035272785622
1.8353658536585367,0.8497533417711027
1.8687361419068735,0.4283680240773028
1.9021064301552106,0.0805777201541749
1.9354767184035477,-0.050530657049668457
1.9688470066518848,0.0752242682526987
2.002217294900222,0.37880122134207295
2.035587583148559,0.7021812890794152
2.0689578713968957,0.8851571299510432
2.102328159645233,0.840132671345485
2.13569844789357,0.5880970842151033
2.1690687361419068,0.23986707492467857
2.202439024390244,-0.06481267680668736
2.235809312638581,-0.22725120867573145
2.269179600886918,-0.23375706581119887
2.302549889135255,-0.15433373967375172
2.335920177383592,-0.10080429209086138
2.369290465631929,-0.16806905909604214
2.4026607538802662,-0.38770874668166205
2.436031042128603,-0.714290854335299
2.46940133037694,-1.047571278647156
2.5027716186252773,-1.2772963346089923
2.536141906873614,-1.3288306966836483
2.569512195121951,-1.1899941107598153
2.6028824833702884,-0.9098461666309171
2.6362527716186253,-0.5731419945667429
2.6696230598669626,-0.2639947230189825
2.7029933481152995,-0.03529642712869219
2.7363636363636363,0.10379165083744488
2.7697339246119737,0.17911590207488123
2.8031042128603105,0.2284010757728667
2.8364745011086474,0.27700398894694117
2.8698447893569847,0.325700754283796
2.9032150776053216,0.3566736158658507
2.9365853658536585,0.3532452491659359
2.969955654101996,0.32024340942272816
3.0033259423503327,0.2904021668304097
3.0366962305986696,0.30967141855970354
3.070066518847007,0.40730556736126466
3.1034368070953438,0.567758631852888
3.1368070953436806,0.7233880257423342
3.170177383592018,0.7772352828272487
3.203547671840355,0.6483555273632946
3.2369179600886917,0.31794556841163074
3.270288248337029,-0.1483379211422231
3.303658536585366,-0.6157411665417977
3.337028824833703,-0.9288411276513265
3.37039911308204,-0.9723204047176127
3.403769401330377,-0.7177786154294232
3.437139689578714,-0.236983812369156
3.470509977827051,0.3233653808711147
3.503880266075388,0.7946801436878989
3.537250554323725,1.0460948181565815
3.5706208425720622,1.027323013271423
3.603991130820399,0.7783710570187566
3.637361419068736,0.4035449336444122
3.6707317073170733,0.022777442574077673
3.70410199556541,-0.2764048339061313
3.737472283813747,-0.4638620413196545
3.7708425720620844,-0.5591551109600629
3.8042128603104213,-0.5999025170674648
3.8375831485587586,-0.6080825574973705
3.8709534368070955,-0.5758518957239299
3.9043237250554323,-0.47849966933103505
3.9376940133037697,-0.30359200721191076
3.9710643015521065,-0.07454627970921104
4.004434589800444,0.14901426630282352
4.037804878048781,0.2958337015634268
4.071175166297118,0.3175907236221677
4.1045454545454545,0.2123851257204555
4.137915742793791,0.02392346097548171
4.171286031042128,-0.1811580947177563
4.204656319290466,-0.34287803206744855
4.238026607538803,-0.4278569967196208
4.27139689578714,-0.4319999847621936
4.304767184035477,-0.3702054776053001
4.3381374722838135,-0.2637989972013893
4.371507760532151,-0.1339453968833711
4.404878048780488,-0.0016154913397784213
4.438248337028825,0.11133628660445236
4.471618625277162,0.18533195564163812
4.504988913525499,0.21064838183958798
4.538359201773836,0.19424654975543362
4.571729490022173,0.15962347970012067
4.60509977827051,0.13750387253479407
4.638470066518847,0.15137871371879827
4.671840354767184,0.20584525542534732
4.705210643015521,0.2845611581345132
4.738580931263858,0.35896878069171667
4.771951219512196,0.4024810449760106
4.8053215077605325,0.4019017416196307
4.838691796008869,0.36031963973734527
4.872062084257206,0.29150731557578125
4.905432372505543,0.21069657401341518
4.93880266075388,0.12742009151336925
4.972172949002218,0.043265518036098106
5.005543237250555,-0.04611337212474146
5.0389135254988915,-0.14681335448916027
5.072283813747228,-0.2616115284475081
5.105654101995565,-0.3843583783521109
5.139024390243902,-0.49500176450231026
5.17239467849224,-0.5585103233944964
5.205764966740577,-0.5317551046248675
5.239135254988914,-0.3796163039356847
5.2725055432372505,-0.09572423368273468
5.305875831485587,0.2821071284288046
5.339246119733925,0.6722373186366889
5.372616407982262,0.9697996121304493
5.405986696230599,1.0819310177067212
5.439356984478936,0.9635230376245228
5.472727272727273,0.6375731665741753
5.5060975609756095,0.19037126189902537
5.539467849223947,-0.25737804389172475
5.572838137472284,-0.5923199054256394
5.606208425720621,-0.7470561666569442
5.639578713968958,-0.7212321891878583
5.672949002217295,-0.5775277144370569
5.706319290465632,-0.41416542147773067
5.7396895787139695,-0.3243043208562684
5.773059866962306,-0.3582223052580299
5.806430155210643,-0.5040126154992627
5.83980044345898,-0.6955488578462871
5.873170731707317,-0.8445798578637527
5.906541019955654,-0.8820735466084244
5.939911308203992,-0.7886123477011349
5.9732815964523285,-0.5986203546785777
6.006651884700665,-0.3768898041062675
6.040022172949002,-0.1811186856293998
6.073392461197339,-0.03197797139456163
6.106762749445676,0.09250533791395288
6.140133037694014,0.23613072773548469
6.173503325942351,0.4307535069977165
6.2068736141906875,0.6700706938277136
6.240243902439024,0.9061799937049819
6.273614190687361,1.0705716996058903
6.306984478935698,1.1079252197914407
6.340354767184036,1.005227101201607
6.373725055432373,0.8021291779179309
6.40709534368071,0.5778487466529967
6.4404656319290465,0.42012862508479826
6.473835920177383,0.3888517206088839
6.507206208425721,0.4889911226580604
6.540576496674058,0.6643984233837515
6.573946784922395,0.8163762482451843
6.607317073170732,0.8412844726288004
6.640687361419069,0.673115059787168
6.674057649667406,0.3137240352648751
6.707427937915743,-0.16273094664695764
6.74079822616408,-0.634590455826044
6.774168514412417,-0.977919912232159
6.807538802660754,-1.1141524767623716
6.840909090909091,-1.0403116899587175
6.874279379157428,-0.8287561304377584
6.9076496674057655,-0.5961179303811871
6.941019955654102,-0.4542846917015224
6.974390243902439,-0.4640355738855258
7.007760532150776,-0.6107956519744511
7.041130820399113,-0.8124080243897422
7.07450110864745,-0.9550561359714529
7.107871396895788,-0.9415497875358537
7.1412416851441245,-0.7313525935118508
7.174611973392461,-0.3560451040130912
7.207982261640798,0.09475770197565801
7.241352549889135,0.5091099360656225
7.274722838137472,0.793667439159247
7.30809312638581,0.9029686521986046
7.341463414634147,0.8470816203572157
7.3748337028824835,0.6779097279704287
7.40820399113082,0.4631046373642191
7.441574279379157,0.2601205662939679
7.474944567627494,0.10076387363350127
7.508314855875832,-0.009635978583626394
7.541685144124169,-0.08157016532267036
7.575055432372506,-0.1274388717737406
7.6084257206208425,-0.15316662371081757
7.641796008869179,-0.15971098230342898
7.675166297117517,-0.15170963330454473
7.708536585365854,-0.1449724325404518
7.741906873614191,-0.16448904730215866
7.775277161862528,-0.23081311943902155
7.808647450110865,-0.3415426768921913
7.842017738359202,-0.46019308809344106
7.875388026607539,-0.5226443119230463
7.908758314855876,-0.4619900034517671
7.942128603104213,-0.24146537101445967
7.97549889135255,0.12085142952576394
8.008869179600888,0.5488894398777905
8.042239467849225,0.9301967076405431
8.075609756097561,1.154176497528986
8.108980044345898,1.1520405927458766
8.142350332594235,0.9236218020863449
8.175720620842572,0.5414364441591367
8.209090909090909,0.1298133064814079
8.242461197339246,-0.17551290582719525
8.275831485587583,-0.2751671713910583
8.30920177383592,-0.14463073108422453
8.342572062084257,0.15257529476879766
8.375942350332595,0.48540112590957246
8.409312638580932,0.7044892225816485
8.442682926829269,0.7015636417567294
8.476053215077606,0.45385227979994175
8.509423503325943,0.033341179853264416
8.54279379157428,-0.4240529551269321
8.576164079822616,-0.7756655193705698
8.609534368070953,-0.9293938819676024
8.64290465631929,-0.8753258022951854
8.676274944567627,-0.6791681182158544
8.709645232815964,-0.44400017167042044
8.743015521064303,-0.2615632016990656
8.77638580931264,-0.17728798677065646
8.809756097560976,-0.18379049867873562
8.843126385809313,-0.241368235466488
8.87649667405765,-0.30998929464883995
8.909866962305987,-0.37271747080282297
8.943237250554324,-0.4374861894886369
8.97660753880266,-0.5183188590178668
9.009977827050998,-0.6102053795577709
9.043348115299334,-0.6761956052397626
9.076718403547671,-0.6581362743246586
9.110088691796008,-0.5077845184925158
9.143458980044347,-0.22130490655633983
9.176829268292684,0.14425835386917954
9.21019955654102,0.48578221519111564
9.243569844789358,0.6966215394756536
9.276940133037694,0.7172320443989225
9.310310421286031,0.5678490373702466
9.343680709534368,0.34474194496605276
9.377050997782705,0.1793508650419388
9.410421286031042,0.17842198946822274
9.443791574279379,0.3732595539144774
9.477161862527716,0.7022322624360108
9.510532150776053,1.0348558294683636
9.543902439024391,1.2262523613184335
9.577272727272728,1.1772389229402183
9.610643015521065,0.8739342033327664
9.644013303769402,0.39143229511566335
9.677383592017739,-0.13722658149099853
9.710753880266076,-0.5712129895572816
9.744124168514412,-0.8098558671809301
9.77749445676275,-0.8210887250200727
9.810864745011086,-0.6433270389677886
9.844235033259423,-0.3644364157720693
9.87760532150776,-0.08828821984392381
9.910975609756099,0.09896537712624484
9.944345898004435,0.15302339050603392
9.977716186252772,0.08017146800533977
10.01108647450111,-0.0705925594176026
10.044456762749446,-0.228561760760217
10.077827050997783,-0.32781950547648253
10.11119733924612,-0.3295908928787123
10.144567627494457,-0.23256792507212398
10.177937915742794,-0.06871688651758927
10.21130820399113,0.11157039590935795
10.244678492239467,0.2573661839825775
10.278048780487804,0.3311952282221017
10.311419068736143,0.3160487277885343
10.34478935698448,0.21628530429082735
10.378159645232817,0.05478784682574794
10.411529933481154,-0.1322636915586757
10.44490022172949,-0.3031662935175379
10.478270509977827,-0.42107486465787314
10.511640798226164,-0.4649665324233798
10.545011086474501,-0.436877435587418
10.578381374722838,-0.36106025081137605
10.611751662971175,-0.2739303197976941
10.645121951219512,-0.20864062322821716
10.67849223946785,-0.18166263734257362
10.711862527716187,-0.18820178829423614
10.745232815964524,-0.20851889473661822
10.778603104212861,-0.22096439747539143
10.811973392461198,-0.2136455135515533
10.845343680709535,-0.18769566914996197
10.878713968957872,-0.1506071120936592
10.912084257206208,-0.10468473850465591
10.945454545454545,-0.039235101414612596
10.978824833702882,0.06675936646383018
11.012195121951219,0.23112029000183276
11.045565410199556,0.4509837002741043
11.078935698447895,0.6919785706253855
11.112305986696231,0.8925054453077057
11.145676274944568,0.9841481077582386
11.179046563192905,0.9203974469799444
11.212416851441242,0.7003743147909481
11.245787139689579,0.37539689580398855
11.279157427937916,0.03383139043545963
11.312527716186253,-0.2301122502630694
11.34589800443459,-0.35042294884677766
11.379268292682926,-0.3118211879737602
11.412638580931263,-0.15195867454283896
11.4460088691796,0.0564102904562872
11.479379157427939,0.2346572859181375
11.512749445676276,0.32631378040826164
11.546119733924613,0.31302549793429163
11.57949002217295,0.21372448342896413
11.612860310421286,0.06990641564363705
11.646230598669623,-0.07466459449615322
11.67960088691796,-0.19057145841284814
11.712971175166297,-0.26986764180051354
11.746341463414634,-0.3232200146070958
11.77971175166297,-0.3706622681738636
11.813082039911308,-0.4307198937270562
11.846452328159646,-0.5115175989756161
11.879822616407983,-0.6058087195508304
11.91319290465632,-0.6909111252556065
11.946563192904657,-0.7340927626174693
11.979933481152994,-0.7029830878975936
12.01330376940133,-0.5785573240745415
12.046674057649668,-0.3659638920705042
12.080044345898004,-0.09774818854313128
12.113414634146341,0.1737132649578734
12.146784922394678,0.39290827266360884
12.180155210643015,0.5203888038908937
12.213525498891352,0.5458894831564176
12.24689578713969,0.4893797089018467
12.280266075388028,0.38994776370668854
12.313636363636364,0.2882611653654079
12.347006651884701,0.21100502367026766
12.380376940133038,0.1640611443416452
12.413747228381375,0.13649702792766413
12.447117516629712,0.11220110424616708
12.480487804878049,0.08260735365777491
12.513858093126386,0.053728295766715145
12.547228381374723,0.04364944282619266
12.58059866962306,0.07147510989809203
12.613968957871396,0.14332945097667202
12.647339246119735,0.24313977561532263
12.680709534368072,0.33418421762960376
12.714079822616409,0.3722156934056483
12.747450110864746,0.32479131366779657
12.780820399113082,0.18756051022876594
12.81419068736142,-0.010946317185435728
12.847560975609756,-0.21913895971801553
12.880931263858093,-0.3826580764323145
12.91430155210643,-0.4656490092791642
12.947671840354767,-0.4629859876558937
12.981042128603104,-0.3980372098000281
13.014412416851442,-0.3079212927260081
13.04778270509978,-0.22437576913392313
13.081152993348116,-0.16011378222833253
13.114523281596453,-0.10711667142453875
13.14789356984479,-0.04669540598402532
13.181263858093127,0.03505250677252539
13.214634146341464,0.13530151676152447
13.2480044345898,0.23264643695468065
13.281374722838137,0.29617854634671187
13.314745011086474,0.3004523700311541
13.348115299334811,0.23843020248364874
13.381485587583148,0.12590187106429182
13.414855875831487,-0.0045046845843194315
13.448226164079824,-0.11641880838424815
13.48159645232816,-0.1835446780401122
13.514966740576497,-0.19814467397573438
13.548337028824834,-0.1712310368378185
13.581707317073171,-0.12542608151114135
13.615077605321508,-0.08425476481739917
13.648447893569845,-0.06243176882437777
13.681818181818182,-0.06072464573135631
13.715188470066519,-0.06696642818360107
13.748558758314855,-0.06248728467241962
13.781929046563192,-0.03122324561072988
13.815299334811531,0.03237565805112086
13.848669623059868,0.12017600576893465
13.882039911308205,0.21339264731040772
13.915410199556542,0.2901143042970856
13.948780487804878,0.33304656742215977
13.982150776053215,0.33312018029439255
14.015521064301552,0.2875830268604555
14.048891352549889,0.19547974909917398
14.082261640798226,0.05583605677178563
14.115631929046563,-0.12790931587896334
14.1490022172949,-0.3389933002226353
14.182372505543238,-0.5408986949664601
14.215742793791575,-0.6811513085090976
14.249113082039912,-0.70782118292499
14.282483370288249,-0.5926367140918839
14.315853658536586,-0.34850383662013046
14.349223946784923,-0.03036403593142831
14.38259423503326,0.2831473700317434
14.415964523281596,0.5189686430909589
14.449334811529933,0.6353970899304038
14.48270509977827,0.6324344550053205
14.516075388026607,0.5438658292422425
14.549445676274944,0.41788500121698186
14.582815964523283,0.2973252664142744
14.61618625277162,0.2077963844353127
14.649556541019956,0.1555003430287839
14.682926829268293,0.1312906508499
14.71629711751663,0.11663982668729787
14.749667405764967,0.08962956804154229
14.783037694013304,0.031456513339663934
14.81640798226164,-0.06631972375371596
14.849778270509978,-0.1959663589434031
14.883148558758315,-0.33305172238836916
14.916518847006651,-0.4435665188568079
14.949889135254988,-0.49682864724862735
14.983259423503327,-0.4783340455203963
15.016629711751664,-0.3960634630271288
15.05,-0.27707693520063276
15.083370288248338,-0.15635718195761192
15.116740576496674,-0.06357702594189082
15.150110864745011,-0.013761092441594054
15.183481152993348,-0.005010355570912626
15.216851441241685,-0.022655004983042983
15.250221729490022,-0.046701484943281246
15.283592017738359,-0.05926747664822178
15.316962305986696,-0.05011454405432391
15.350332594235034,-0.01971545839397877
15.383702882483371,0.02055629231463666
15.417073170731708,0.05205807764472955
15.450443458980045,0.0568858030883539
15.483813747228382,0.02850127127011895
15.517184035476719,-0.01997020169650654
15.550554323725056,-0.05602322850604222
15.583924611973393,-0.03995759368662425
15.61729490022173,0.0544140461814851
15.650665188470066,0.2206220533547966
15.684035476718403,0.41387467613563056
15.71740576496674,0.565272032163272
15.750776053215079,0.6116604232582655
15.784146341463416,0.5271238656443411
15.817516629711752,0.33933694074093773
15.85088691796009,0.12053647464150206
15.884257206208426,-0.04436697181752813
15.917627494456763,-0.09780787021825713
15.9509977827051,-0.03798038196106884
15.984368070953437,0.07905428636808234
16.017738359201775,0.16563525173251264
16.05110864745011,0.14525522147688785
16.08447893569845,-0.008480260553485127
16.117849223946784,-0.2556574102600811
16.151219512195123,-0.5051221056723415
16.184589800443458,-0.6545912977825238
16.217960088691797,-0.63753996588132
16.251330376940132,-0.454913904284233
16.28470066518847,-0.17632018891477705
16.31807095343681,0.09050989289911086
16.351441241685144,0.24792332108271214
16.384811529933483,0.25122561486723466
16.418181818181818,0.12558181558353465
16.451552106430157,-0.05076223820704103
16.48492239467849,-0.18754190047166808
16.51829268292683,-0.22630150137321287
16.551662971175165,-0.16490386735869747
16.585033259423504,-0.051770132010411224
16.61840354767184,0.04467071192194495
16.651773835920178,0.0733154356490263
16.685144124168513,0.02455478278477406
16.71851441241685,-0.06962572292836414
16.75188470066519,-0.1563791297412783
16.785254988913525,-0.1895842971100433
16.818625277161864,-0.14881387588103276
16.8519955654102,-0.041818989997194536
16.885365853658538,0.10631109597908911
16.918736141906873,0.26700095903848514
16.95210643015521,0.4155594851832349
16.985476718403547,0.5298382956176723
17.018847006651885,0.5858512033404832
17.05221729490022,0.5586738390324142
17.08558758314856,0.43242261826904344
17.118957871396898,0.21476896473964052
17.152328159645233,-0.05448268343480155
17.18569844789357,-0.3099512950305084
17.219068736141907,-0.4831753086696539
17.252439024390245,-0.5314390580197641
17.28580931263858,-0.45773926202226506
17.31917960088692,-0.3100427413547728
