Frequency (Hz),Amplitude
0.0,1.026938560922611
0.019823788546255508,1.0336653606626913
0.039647577092511016,1.053562454154794
0.059471365638766524,1.085831566602114
0.07929515418502203,1.1292935644650304
0.09911894273127755,1.1825564591869773
0.11894273127753305,1.244169431923856
0.13876651982378857,1.3127354619595144
0.15859030837004406,1.3869775387237642
0.17841409691629956,1.4657670380748895
0.1982378854625551,1.548126932519309
0.2180616740088106,1.6332210050595206
0.2378854625550661,1.7203369042933498
0.25770925110132165,1.8088677554239674
0.27753303964757714,1.898294789366939
0.29735682819383263,1.9881720507843919
0.31718061674008813,2.078113466152287
0.3370044052863437,2.167782165860195
0.3568281938325991,2.2568817922312845
0.37665198237885467,2.3451494818080656
0.3964757709251102,2.4323502233917984
0.41629955947136565,2.5182723295297467
0.4361233480176212,2.602723801345997
0.4559471365638767,2.685529406876753
0.4757709251101322,2.766528328266163
0.49559471365638774,2.845572262544667
0.5154185022026433,2.9225238845620694
0.5352422907488987,2.9972555997113894
0.5550660792951543,3.0696485291739872
0.5748898678414097,3.139591682306625
0.5947136563876653,3.2069812801340505
0.6145374449339208,3.27172020125025
0.6343612334801763,3.33371752720138
0.6541850220264318,3.392888168969347
0.6740088105726874,3.4491525597649235
0.6938325991189428,3.5024364021837413
0.7136563876651982,3.5526704600403787
0.7334801762114539,3.599790387000682
0.7533039647577093,3.643736585579393
0.7731277533039648,3.684454091234419
0.7929515418502204,3.72189247723097
0.8127753303964759,3.7560057767134563
0.8325991189427313,3.786752419048492
0.8524229074889869,3.8140951780153185
0.8722466960352424,3.8380011298447334
0.8920704845814978,3.8584416194610274
0.9118942731277534,3.875392233578367
0.931718061674009,3.888832779555052
0.9515418502202644,3.898747269125167
0.9713656387665199,3.905123906315624
0.9911894273127755,3.9079550790233752
1.0110132158590308,3.9072373538784646
1.0308370044052866,3.9029714741580923
1.0506607929515421,3.895162360649405
1.0704845814977975,3.8838191154886292
1.090308370044053,3.868955029134119
1.1101321585903086,3.850587590766349
1.1299559471365639,3.8287385025516536
1.1497797356828194,3.803433698363577
1.1696035242290752,3.7747033677313477
1.1894273127753305,3.742581985984214
1.209251101321586,3.707108351791374
1.2290748898678416,3.6683256335670418
1.248898678414097,3.6262814265303716
1.2687224669603525,3.5810278225921017
1.288546255506608,3.532621495700465
1.3083700440528636,3.4811238058377594
1.3281938325991192,3.4266009255407757
1.3480176211453747,3.369123993655234
1.36784140969163,3.3087693020667595
1.3876651982378856,3.2456185224299623
1.4074889867841411,3.1797589815103566
1.4273127753303965,3.11128399574447
1.4471365638766522,3.0402932781231558
1.4669603524229078,2.9668934336519253
1.4867841409691631,2.8911985636227384
1.5066079295154187,2.8133310039793127
1.5264317180616742,2.7334222294728483
1.5462555066079295,2.651613963471078
1.5660792951541853,2.5680595436840075
1.5859030837004409,2.482925607299253
1.6057268722466962,2.396394175794278
1.6255506607929517,2.3086652408175725
1.6453744493392073,2.2199599788242605
1.6651982378854626,2.1305247542389036
1.6850220264317182,2.0406361087868534
1.7048458149779737,1.9506069767488297
1.7246696035242293,1.8607944074812206
1.7444933920704848,1.7716091064622728
1.7643171806167404,1.6835271013210449
1.7841409691629957,1.5971037556365781
1.8039647577092512,1.5129901115919873
1.8237885462555068,1.4319510109607227
1.8436123348017623,1.3548834245564292
1.863436123348018,1.2828316672288733
1.8832599118942732,1.2169935064024457
1.9030837004405288,1.1587077812348983
1.9229074889867843,1.1094112071484779
1.9427312775330399,1.070552373305561
1.9625550660792954,1.0434587971675182
1.982378854625551,1.029171024506951
2.002202643171806,1.0282815288771956
2.0220264317180616,1.0408304259096353
2.041850220264317,1.0662981974528973
2.061674008810573,1.1036983903441278
2.0814977973568287,1.1517340183135485
2.1013215859030843,1.208965492605985
2.1211453744493394,1.2739493914777973
2.140969162995595,1.3453309297778813
2.1607929515418505,1.4218923902951632
2.180616740088106,1.502568970506692
2.2004405286343616,1.5864445967680867
2.220264317180617,1.6727375567055642
2.2400881057268722,1.7607823732006602
2.2599118942731278,1.8500115513754243
2.2797356828193833,1.939938959356536
2.299559471365639,2.0301454992155374
2.319383259911895,2.1202671394747354
2.3392070484581504,2.2099851083737354
2.3590308370044055,2.2990179473868015
2.378854625550661,2.3871151120197136
2.3986784140969166,2.474051833713792
2.418502202643172,2.559624997456502
2.4383259911894277,2.643649832064779
2.4581497797356833,2.7259572486517794
2.4779735682819384,2.8063916956547645
2.497797356828194,2.884809425833602
2.5176211453744495,2.9610770924151018
2.537444933920705,3.0350706088645287
2.5572687224669606,3.1066742204248503
2.577092511013216,3.17577974630604
2.5969162995594717,3.2422859598411304
2.6167400881057272,3.3060980805517226
2.6365638766519828,3.3671273572764897
2.6563876651982383,3.4252907256258984
2.676211453744494,3.4805105262746987
2.6960352422907494,3.5327142731816497
2.715859030837005,3.5818344628779473
2.73568281938326,3.627808417606889
2.7555066079295156,3.6705781564144284
2.775330396475771,3.7100902893522107
2.7951541850220267,3.7462959308156627
2.8149779735682823,3.7791506287400014
2.834801762114538,3.808614306951091
2.854625550660793,3.834651218440205
2.874449339207049,3.8572299077240744
2.8942731277533045,3.8763231807784986
2.91409691629956,3.8919080813103974
2.9339207048458156,3.9039658723682975
2.953744493392071,3.9124820224944563
2.9735682819383262,3.917446195800293
2.993392070484582,3.918852245505725
3.0132158590308373,3.9166982106285344
3.033039647577093,3.910986315645783
3.0528634361233484,3.901722973079821
3.072687224669604,3.8889187890913073
3.092511013215859,3.872588572292636
3.1123348017621146,3.8527513461345255
3.1321585903083706,3.829430365366302
3.151982378854626,3.8026531372357253
3.1718061674008817,3.7724514482780354
3.1916299559471373,3.7388613977571143
3.2114537444933924,3.7019234390668143
3.231277533039648,3.661682430691691
3.2511013215859035,3.6181876986709707
3.270925110132159,3.5714931129238083
3.2907488986784146,3.5216571802944183
3.31057268722467,3.4687431577844046
3.3303964757709252,3.41281919018514
3.350220264317181,3.353958477239484
3.3700440528634363,3.2922394765960643
3.389867841409692,3.227746150227471
3.4096916299559474,3.1605682637407093
3.4295154185022034,3.09080175021002
3.4493392070484585,3.01854915293133
3.469162995594714,2.9439201649940907
3.4889867841409696,2.8670322879948356
3.508810572687225,2.7880116378426756
3.5286343612334807,2.7069939327682877
3.5484581497797363,2.62412570777645
3.5682819383259914,2.5395658114176447
3.588105726872247,2.4534872555589398
3.6079295154185025,2.366079507589717
3.627753303964758,2.277551338063221
3.6475770925110136,2.188134365967832
3.667400881057269,2.0980874791360797
3.6872246696035247,2.007702348307842
3.7070484581497802,1.9173102975423697
3.726872246696036,1.8272908341618577
3.7466960352422913,1.7380821629542333
3.7665198237885464,1.650193981275033
3.7863436123348024,1.5642227164675608
3.8061674008810575,1.4808690239109792
3.8259911894273135,1.4009566504957347
3.8458149779735686,1.3254504537285519
3.8656387665198246,1.2554691981991086
3.8854625550660797,1.1922856378249895
3.905286343612335,1.1373028475813463
3.925110132158591,1.0919936309289164
3.9449339207048464,1.057792777355106
3.964757709251102,1.0359443372908663
3.9845814977973575,1.0273284176141906
4.004405286343612,1.032314799398577
4.024229074889869,1.0506955339675166
4.044052863436123,1.0817236952858298
4.06387665198238,1.1242423953160159
4.083700440528634,1.1768558672133538
4.103524229074891,1.2380913686311843
4.123348017621146,1.3065204225318041
4.143171806167401,1.3808318304662568
4.162995594713657,1.4598643200119787
4.182819383259912,1.5426118727190095
4.2026431718061685,1.6282136156679137
4.222466960352423,1.7159367509755887
4.242290748898679,1.8051576749535654
4.262114537444934,1.8953440040740241
4.28193832599119,1.9860386976817757
4.301762114537445,2.07684661289964
4.321585903083701,2.1674234004496324
4.3414096916299565,2.257466469372965
4.361233480176212,2.3467076978335886
4.381057268722468,2.434907578710557
4.400881057268723,2.5218505257657613
4.420704845814979,2.607341110141182
4.440528634361234,2.691201039109375
4.46035242290749,2.773266725921356
4.4801762114537445,2.8533873304060386
4.500000000000001,2.9314231749851487
4.5198237885462555,3.0072444607390887
4.539647577092512,3.0807302239545584
4.559471365638767,3.151767486011254
4.579295154185023,3.22025055921718
4.599118942731278,3.286080478852892
4.618942731277533,3.3491645376918067
4.63876651982379,3.4094159039905185
4.658590308370044,3.466753307670741
4.678414096916301,3.5211007823652913
4.6982378854625555,3.5723874533431728
4.718061674008811,3.6205473631971152
4.737885462555067,3.6655193286719343
4.757709251101322,3.707246823214849
4.777533039647578,3.7456778807994353
4.797356828193833,3.780765017363426
4.817180616740089,3.8124651668436633
4.837004405286344,3.840739629318906
4.856828193832599,3.865554029207224
4.876651982378855,3.8868782818267396
4.896475770925111,3.9046865669328032
4.9162995594713665,3.918957308101503
4.936123348017622,3.929673157050237
4.955947136563877,3.9368209821774998
4.975770925110133,3.9403918607730457
4.995594713656388,3.940381074502379
5.015418502202644,3.936788107909596
5.035242290748899,3.9296166498162806
5.055066079295155,3.918874597622681
5.07488986784141,3.9045740646479508
5.094713656387666,3.8867313907796937
5.114537444933921,3.8653671568448473
5.134361233480177,3.8405062032692237
5.154185022026432,3.8121776537643783
5.174008810572688,3.780414944976757
5.193832599118943,3.745255863258522
5.213656387665199,3.7067425899844393
5.2334801762114544,3.6649217571501036
5.25330396475771,3.61984451536031
5.2731277533039655,3.571566616764827
5.292951541850221,3.5201485160432497
5.312775330396477,3.465655493204779
5.332599118942731,3.4081578027841335
5.352422907488988,3.3477308550202074
5.372246696035242,3.284455435850927
5.392070484581499,3.218417974110477
5.4118942731277535,3.1497108662571205
5.43171806167401,3.0784328713996048
5.451541850220265,3.0046895924663457
5.47136563876652,2.928594063255327
5.491189427312777,2.850267466046264
5.511013215859031,2.7698400107505927
5.530837004405288,2.68745201460467
5.550660792951542,2.6032552316655506
5.570484581497798,2.517414494458692
5.5903083700440535,2.4301097467970854
5.610132158590309,2.341538567908969
5.6299559471365646,2.251919314505136
5.64977973568282,2.1614950401092115
5.669603524229076,2.070538390203192
5.689427312775331,1.9793577165647929
5.709251101321586,1.8883047008290346
5.729074889867842,1.797783816281809
5.748898678414098,1.7082639676837694
5.768722466960353,1.6202925910609938
5.788546255506609,1.5345122943259315
5.808370044052864,1.4516796473651867
5.82819383259912,1.3726847871549412
5.848017621145375,1.2985688236884334
5.867841409691631,1.230533372939684
5.887665198237886,1.1699329681679127
5.907488986784142,1.1182375850046877
5.927312775330397,1.0769517502665469
5.9471365638766525,1.0474832139387593
5.966960352422908,1.0309717821176372
5.986784140969164,1.0281145772398397
6.00660792951542,1.039042786593421
6.026431718061675,1.063297391508999
6.04625550660793,1.099913941099995
6.066079295154186,1.1475820906409488
6.085903083700441,1.2048240736919995
6.105726872246697,1.2701457395923683
6.125550660792952,1.3421389503057006
6.145374449339208,1.4195362129698383
6.1651982378854635,1.5012294468080252
6.185022026431718,1.5862665232753526
6.204845814977975,1.6738364369540648
6.224669603524229,1.7632502208790637
6.244493392070486,1.8539216300040153
6.264317180616741,1.9453495410686734
6.284140969162996,2.037102794274484
6.303964757709252,2.128807557384218
6.323788546255507,2.2201369949339296
6.3436123348017635,2.310802917440175
6.363436123348018,2.400549073064607
6.3832599118942746,2.4891457742087533
6.403083700440529,2.576385596279469
6.422907488986785,2.662079931990315
6.44273127753304,2.7460562262770845
6.462555066079296,2.8281557522981777
6.482378854625551,2.908231817974697
6.502202643171807,2.9861483157734847
6.5220264317180625,3.0617785468558436
6.541850220264318,3.135004265206827
6.561674008810574,3.2057148987227877
6.581497797356829,3.273806913132272
6.601321585903085,3.3391832915974713
6.62114537444934,3.401753108313773
6.640969162995596,3.461431178728883
6.6607929515418505,3.5181377723987532
6.680616740088107,3.5717983771860946
6.700440528634362,3.622343505644573
6.720264317180618,3.669708536136838
6.740088105726873,3.7138335826014677
6.759911894273129,3.754663387983966
6.779735682819384,3.7921472372374874
6.799559471365639,3.826238886521813
6.819383259911895,3.8568965058213225
6.83920704845815,3.88408263268841
6.859030837004407,3.9077641352219357
6.8788546255506615,3.927912182725723
6.898678414096917,3.944502222774995
6.918502202643173,3.957513963658847
6.938325991189428,3.9669313613739634
6.958149779735684,3.9727426105256582
6.977973568281939,3.9749401386535745
6.997797356828195,3.9735206036456763
7.01762114537445,3.968484894040858
7.037444933920705,3.9598381321509644
7.0572687224669615,3.947589680061773
7.077092511013216,3.931753148703041
7.096916299559473,3.912346410314133
7.116740088105728,3.889391614778182
7.136563876651983,3.8629152104584277
7.156387665198239,3.8329479703515865
7.176211453744494,3.799525024579509
7.19603524229075,3.7626859004808035
7.215859030837005,3.7224745718464454
7.235682819383261,3.6789395191790515
7.255506607929516,3.6321338032585886
7.275330396475772,3.5821151547832635
7.295154185022027,3.5289460834471633
7.314977973568283,3.4726940105408106
7.334801762114538,3.413431430052838
7.354625550660794,3.351236104355382
7.374449339207049,3.2861913019276923
7.394273127753305,3.2183860862868534
7.4140969162995605,3.147915667444308
7.433920704845816,3.0748818299157503
7.453744493392072,2.99939345473702
7.473568281938327,2.921567157286528
7.493392070484583,2.8415280682511272
7.513215859030838,2.759410792141092
7.533039647577093,2.675360586803028
7.552863436123348,2.5895348189577247
7.572687224669605,2.5021047656044915
7.59251101321586,2.4132578500342734
7.612334801762115,2.3232004251626157
7.6321585903083715,2.2321612469553194
7.651982378854627,2.14039581772374
7.671806167400882,2.048191823179102
7.691629955947137,1.955875936805913
7.711453744493394,1.8638223150483682
7.731277533039649,1.7724631441562388
7.751101321585904,1.682301597111476
7.7709251101321595,1.59392746382149
7.790748898678416,1.5080354332057362
7.81057268722467,1.4254453692905311
7.830396475770926,1.3471226894333728
7.850220264317182,1.274194818011495
7.870044052863436,1.2079564449386946
7.889867841409693,1.1498522761037497
7.909691629955948,1.1014227470322338
7.929515418502204,1.0641995357824998
7.9493392070484585,1.0395489061647818
7.969162995594715,1.0284842846452142
7.9889867841409705,1.0314968954923862
8.008810572687224,1.0484643966402696
8.02863436123348,1.0786749745837403
8.048458149779737,1.1209566229866463
8.068281938325994,1.1738608033200522
8.088105726872246,1.2358416527118188
8.107929515418503,1.305392428936855
8.12775330396476,1.3811285220513398
8.147577092511014,1.461824993803464
8.167400881057269,1.5464232090874328
8.187224669603525,1.6340200434592764
8.207048458149782,1.7238492912603702
8.226872246696036,1.8152610899498351
8.246696035242293,1.9077023935785251
8.266519823788547,2.000699797957861
8.286343612334802,2.0938450641220596
8.306167400881058,2.1867832176543662
8.325991189427315,2.279202908597784
8.345814977973568,2.370828667266727
8.365638766519824,2.4614147091091416
8.38546255506608,2.550739986087842
8.405286343612337,2.638604232565737
8.42511013215859,2.7248248012169034
8.444933920704846,2.809234125589247
8.464757709251103,2.891677679922278
8.484581497797357,2.972012334194388
8.504405286343614,3.050105024088428
8.524229074889869,3.1258316726419086
8.544052863436125,3.1990763137154565
8.56387665198238,3.269730377856965
8.583700440528636,3.3376921092986445
8.60352422907489,3.4028660892073668
8.623348017621145,3.4651628453138428
8.643171806167402,3.5244985319817967
8.662995594713658,3.5807946678839286
8.682819383259913,3.6339779209109158
8.702643171806168,3.68397993189563
8.722466960352424,3.730737170296951
8.74229074889868,3.774190816240191
8.762114537444935,3.814286664321412
8.78193832599119,3.850975045400553
8.801762114537446,3.8842107632743788
8.821585903083701,3.9139530436655092
8.841409691629957,3.94016549341313
8.861233480176212,3.9628160681237903
8.881057268722468,3.981877046852758
8.900881057268723,3.9973250126496502
8.92070484581498,4.009140838027457
8.940528634361234,4.017309674608463
8.960352422907489,4.021820946372753
8.980176211453745,4.022668346088087
9.000000000000002,4.019849834642149
9.019823788546258,4.013367643130273
9.039647577092511,4.003228277681115
9.059471365638768,3.989442527131012
9.079295154185024,3.9720254737895604
9.099118942731279,3.950996507678388
9.118942731277533,3.9263793447763593
9.13876651982379,3.898202049972096
9.158590308370046,3.866497065614839
9.1784140969163,3.8313012467736103
9.198237885462555,3.7926559045705006
9.218061674008812,3.7506068592561324
9.237885462555067,3.7052045050566815
9.257709251101323,3.656503889256387
9.27753303964758,3.604564808507194
9.297356828193834,3.5494519260006996
9.317180616740089,3.4912349139288557
9.337004405286345,3.429988626635676
9.356828193832602,3.3657933110747167
9.376651982378855,3.2987348626975304
9.396475770925111,3.2289051367922843
9.416299559471367,3.156402327673994
9.436123348017622,3.0813314311392266
9.455947136563877,3.0038048094191407
9.475770925110133,2.923942882731338
9.49559471365639,2.8418749777495758
9.515418502202644,2.7577403712787674
9.5352422907489,2.6716895776527005
9.555066079295155,2.5838859415155606
9.57488986784141,2.4945076145232052
9.594713656387666,2.4037500160953664
9.614537444933923,2.3118289058044628
9.634361233480178,2.218984229474624
9.654185022026432,2.125484943504429
9.674008810572689,2.0316350723348897
9.693832599118945,1.9377813101232748
9.713656387665198,1.8443225324277308
9.733480176211454,1.7517216200832761
9.75330396475771,1.6605199797732888
9.773127753303967,1.5713550048425218
9.792951541850222,1.4849803305758955
9.812775330396477,1.4022878927423457
9.832599118942733,1.3243291929723722
9.852422907488988,1.2523304652022618
9.872246696035244,1.187692485653023
9.892070484581499,1.1319612603236588
9.911894273127754,1.0867532901518622
9.93171806167401,1.053623613746856
9.951541850220266,1.0338820493765992
9.971365638766521,1.0283924848926236
9.991189427312776,1.0374168397064725
10.011013215859032,1.0605645380301938
10.030837004405289,1.096869218641667
10.050660792951543,1.1449598835880137
10.070484581497798,1.2032621672533772
10.090308370044054,1.2701724847923983
10.11013215859031,1.3441771602039876
10.129955947136565,1.4239160587763922
10.14977973568282,1.5082043676477743
10.169603524229077,1.5960286135404256
10.189427312775331,1.6865297150551164
10.209251101321588,1.7789813612038328
10.229074889867842,1.8727683207833403
10.248898678414099,1.9673668490228413
10.268722466960353,2.0623279501400633
10.28854625550661,2.157263531284755
10.308370044052865,2.2518351620352983
10.32819383259912,2.345745047058319
10.348017621145376,2.438728817332506
10.367841409691632,2.5305497872868177
10.387665198237887,2.6209943807451586
10.407488986784141,2.709868483454199
10.427312775330398,2.796994528436187
10.447136563876654,2.882209160855281
10.466960352422909,2.9653613617905386
10.486784140969164,3.0463109362699723
10.50660792951542,3.124927291310134
10.526431718061675,3.201088445627041
10.546255506607931,3.2746802250844538
10.566079295154186,3.345595607598083
10.585903083700442,3.4137341887375823
10.605726872246697,3.4790017451425927
10.625550660792953,3.541309877470635
10.645374449339208,3.600575718210358
10.665198237885463,3.6567216925458133
10.685022026431719,3.7096753227168087
10.704845814977975,3.759369068117168
