Frequency (Hz),Amplitude
0.0,6.787237504642796
0.01978021978021978,6.791454915178816
0.03956043956043956,6.8040749353925385
0.05934065934065934,6.825001590645651
0.07912087912087912,6.854077088459587
0.0989010989010989,6.891084953147987
0.11868131868131868,6.935754198389068
0.13846153846153844,6.987764344984121
0.15824175824175823,7.04675106545403
0.17802197802197803,7.1123122280970446
0.1978021978021978,7.184014119513569
0.21758241758241756,7.261397643796817
0.23736263736263735,7.343984325108082
0.2571428571428572,7.431281974417316
0.2769230769230769,7.5227899172206945
0.2967032967032967,7.618003714045011
0.31648351648351647,7.716419337281195
0.3362637362637363,7.817536794938329
0.35604395604395606,7.92086321360087
0.3758241758241758,8.025915409138443
0.3956043956043956,8.132221984928563
0.4153846153846154,8.239325004153297
0.4351648351648351,8.34678128589776
0.45494505494505494,8.454163375115032
0.4747252747252747,8.56106023478162
0.4945054945054945,8.667077705411812
0.5142857142857143,8.771838773075352
0.5340659340659341,8.874983682603435
0.5538461538461538,8.976169928096757
0.5736263736263736,9.075072148396636
0.5934065934065934,9.171381950998075
0.6131868131868132,9.264807684064658
0.6329670329670329,9.355074172793467
0.6527472527472528,9.441922433387294
0.6725274725274726,9.525109375309755
0.6923076923076923,9.604407500302147
0.7120879120879121,9.679604604794742
0.7318681318681318,9.750503490813184
0.7516483516483516,9.816921689223527
0.7714285714285715,9.878691198140993
0.7912087912087912,9.93565823851289
0.810989010989011,9.987683028244012
0.8307692307692308,10.034639575735596
0.8505494505494506,10.076415493332064
0.8703296703296702,10.11291183089212
0.8901098901098901,10.144042929504952
0.9098901098901099,10.169736295241863
0.9296703296703297,10.189932492757158
0.9494505494505494,10.204585058517381
0.9692307692307692,10.21366043343667
0.989010989010989,10.217137914720068
1.0087912087912088,10.215009626759285
1.0285714285714287,10.207280510981045
1.0483516483516484,10.193968334611608
1.0681318681318681,10.175103718387033
1.087912087912088,10.15073018330314
1.1076923076923075,10.120904216556568
1.1274725274725275,10.085695356874101
1.1472527472527472,10.0451862994553
1.1670329670329669,9.99947302075776
1.1868131868131868,9.948664923326614
1.2065934065934065,9.892885000801842
1.2263736263736265,9.832270023117875
1.2461538461538462,9.766970741727185
1.2659340659340659,9.697152114418529
1.2857142857142858,9.62299354894343
1.3054945054945055,9.544689164190844
1.3252747252747252,9.462448067036451
1.3450549450549452,9.37649464221158
1.3648351648351649,9.287068851557468
1.3846153846153846,9.194426537818723
1.4043956043956045,9.098839726649098
1.4241758241758242,9.000596918714612
1.443956043956044,8.900003361645583
1.4637362637362636,8.797381289075778
1.4835164835164834,8.693070111086069
1.5032967032967033,8.587426537027838
1.523076923076923,8.480824607945024
1.542857142857143,8.37365561168106
1.5626373626373626,8.266327849330134
1.5824175824175823,8.159266217111101
1.6021978021978023,8.05291156322169
1.621978021978022,7.947719775076058
1.6417582417582417,7.84416054895239
1.6615384615384616,7.74271579200639
1.6813186813186813,7.643877606483965
1.7010989010989013,7.548145808533316
1.720879120879121,7.456024940074321
1.7406593406593405,7.368020742524089
1.7604395604395604,7.284636076484053
1.7802197802197801,7.206366292201801
1.7999999999999998,7.133694081760088
1.8197802197802198,7.067083874966687
1.8395604395604395,7.006975875550532
1.8593406593406594,6.953779870426609
1.879120879120879,6.907868979599628
1.8989010989010988,6.869573544234231
1.9186813186813187,6.83917537173622
1.9384615384615385,6.816902565767952
1.9582417582417584,6.802925163140284
1.978021978021978,6.797351777012776
1.9978021978021978,6.800227407121855
2.0175824175824175,6.811532525157501
2.0373626373626372,6.831183481087035
2.0571428571428574,6.859034209699042
2.076923076923077,6.894879152035521
2.096703296703297,6.938457249541578
2.1164835164835165,6.989456824436327
2.1362637362637362,7.047521131040735
2.1560439560439564,7.1122543506583975
2.175824175824176,7.183227806257242
2.195604395604396,7.259986190271045
2.215384615384615,7.34205362595305
2.2351648351648348,7.4289394160929
2.254945054945055,7.520143368895884
2.2747252747252746,7.615160626284712
2.2945054945054943,7.713485952428941
2.314285714285714,7.814617468363666
2.3340659340659338,7.918059841322265
2.353846153846154,8.023326954708605
2.3736263736263736,8.12994409677394
2.3934065934065933,8.237449713649157
2.413186813186813,8.345396776177605
2.4329670329670328,8.453353810803213
2.452747252747253,8.560905643362773
2.4725274725274726,8.667653901691159
2.4923076923076923,8.773217319044821
2.512087912087912,8.877231875937067
2.5318681318681318,8.979350813401199
2.5516483516483515,9.079244546202352
2.5714285714285716,9.176600500271405
2.5912087912087913,9.271122894736862
2.610989010989011,9.36253248543579
2.6307692307692307,9.450566283711206
2.6505494505494505,9.534977261642696
2.6703296703296706,9.615534052587153
2.6901098901098903,9.692020653995234
2.70989010989011,9.764236137878695
2.7296703296703297,9.831994372996197
2.7494505494505495,9.895123761763557
2.769230769230769,9.95346699404274
2.7890109890109893,10.006880819290803
2.808791208791209,10.05523583802723
2.8285714285714287,10.098416313179456
2.8483516483516484,10.136320001571969
2.8681318681318677,10.168858005613579
2.887912087912088,10.195954645096595
2.9076923076923076,10.21754734893535
2.9274725274725273,10.23358656663029
2.947252747252747,10.244035699237124
2.9670329670329667,10.248871049640437
2.986813186813187,10.248081791971588
3.0065934065934066,10.24166996006451
3.0263736263736263,10.229650454905931
3.046153846153846,10.21205107110308
3.0659340659340657,10.188912542457286
3.085714285714286,10.160288606791784
3.1054945054945056,10.126246090230662
3.1252747252747253,10.086865011158393
3.145054945054945,10.042238704098784
3.1648351648351647,9.992473963731495
3.184615384615385,9.937691209204703
3.2043956043956046,9.878024668793792
3.2241758241758243,9.813622584785705
3.243956043956044,9.744647438222838
3.2637362637362637,9.671276192801347
3.2835164835164834,9.593700556766702
3.3032967032967036,9.512127261061403
3.3230769230769233,9.426778351227973
3.342857142857143,9.337891489625601
3.3626373626373627,9.24572026334668
3.3824175824175824,9.150534491783088
3.4021978021978025,9.052620526053785
3.4219780219780223,8.952281530425559
3.441758241758242,8.849837733402167
3.4615384615384617,8.745626633293734
3.481318681318681,8.64000313979105
3.501098901098901,8.533339629360203
3.520879120879121,8.426025888173085
3.5406593406593405,8.318468911871845
3.5604395604395602,8.211092526858716
3.58021978021978,8.104336793206757
3.5999999999999996,7.99865714499257
3.61978021978022,7.894523220251556
3.6395604395604395,7.79241733036037
3.659340659340659,7.692832518085908
3.679120879120879,7.596270155537416
3.6989010989010986,7.503237038619451
3.718681318681319,7.414241944117376
3.7384615384615385,7.329791629973078
3.758241758241758,7.250386279127867
3.7780219780219784,7.176514412641845
3.7978021978021976,7.108647328217163
3.8175824175824173,7.047233154618292
3.8373626373626375,6.992690648852094
3.8571428571428568,6.945402898583596
3.876923076923077,6.905711123687308
3.896703296703296,6.873908794264607
3.916483516483517,6.850236294185104
3.936263736263736,6.834876356194639
3.956043956043956,6.827950475096957
3.9758241758241755,6.829516469427748
3.9956043956043956,6.839567311363207
4.015384615384615,6.858031283221113
4.035164835164835,6.884773452187462
4.054945054945055,6.919598388967071
4.0747252747252745,6.962253996925828
4.094505494505494,7.012436271012972
4.114285714285715,7.069794773738963
4.134065934065934,7.133938600188153
4.153846153846154,7.204442604952753
4.173626373626373,7.28085367883597
4.193406593406594,7.362696888924628
4.213186813186813,7.449481328394429
4.232967032967033,7.540705558442057
4.252747252747253,7.635862560758868
4.2725274725274724,7.73444415241636
4.292307692307692,7.8359448441911965
4.312087912087913,7.939865147275296
4.331868131868132,8.0457143517199
4.351648351648352,8.153012813084736
4.371428571428571,8.261293792171235
4.391208791208792,8.370104897163888
4.410989010989011,8.479009178797883
4.43076923076923,8.587585928100445
4.450549450549451,8.695431223522615
4.4703296703296695,8.80215827048431
4.49010989010989,8.907397571975752
4.50989010989011,9.010796964259093
4.52967032967033,9.112021547159584
4.549450549450549,9.210753534106086
4.569230769230769,9.30669204309037
4.589010989010989,9.39955284612265
4.608791208791209,9.489068091592083
4.628571428571428,9.574986011191045
4.648351648351649,9.6570706207103
4.6681318681318675,9.73510142202758
4.687912087912088,9.80887311195773
4.707692307692308,9.878195302269223
4.7274725274725276,9.942892254063048
4.747252747252747,10.002802628818234
4.767032967032967,10.057779257701814
4.786813186813187,10.107688930190518
4.806593406593407,10.152412202630568
4.826373626373626,10.191843227048622
4.846153846153847,10.22588960030203
4.8659340659340655,10.25447223350339
4.885714285714286,10.27752524155947
4.905494505494506,10.29499585261623
4.9252747252747255,10.30684433718944
4.945054945054945,10.3130439567774
4.964835164835165,10.313580931789465
4.984615384615385,10.308454428677333
5.004395604395604,10.297676566218481
5.024175824175824,10.281272440968234
5.043956043956045,10.25928017196416
5.0637362637362635,10.23175096482877
5.083516483516483,10.19874919546823
5.103296703296703,10.160352513602152
5.123076923076923,10.116651966373936
5.142857142857143,10.067752142277342
5.162637362637362,10.013771335583513
5.182417582417583,9.954841731353564
5.2021978021978015,9.891109610963454
5.221978021978022,9.822735577835681
5.241758241758242,9.749894802749747
5.2615384615384615,9.672777287670579
5.281318681318681,9.591588146468068
5.301098901098901,9.506547900175436
5.320879120879121,9.41789278351855
5.340659340659341,9.325875058309595
5.36043956043956,9.23076332789977
5.380219780219781,9.13284284518762
5.3999999999999995,9.032415804643598
5.41978021978022,8.92980160639954
5.43956043956044,8.825337077632025
5.4593406593406595,8.719376633221216
5.479120879120879,8.612292353987938
5.498901098901099,8.50447395672756
5.518681318681319,8.396328625833918
5.538461538461538,8.288280671657283
5.558241758241758,8.18077097605676
5.578021978021979,8.074256181162726
5.5978021978021975,7.969207573538624
5.617582417582418,7.866109613216791
5.637362637362637,7.765458056094723
5.6571428571428575,7.6677576196398505
5.676923076923077,7.573519146567205
5.696703296703297,7.4832562299513885
5.716483516483517,7.397481276868785
5.736263736263735,7.316701006699882
5.756043956043956,7.241411404863539
5.775824175824176,7.172092182686593
5.795604395604395,7.109200828324913
5.815384615384615,7.053166370326479
5.835164835164835,7.004383011910506
5.854945054945055,6.9632038269521015
5.874725274725275,6.929934734186752
5.894505494505494,6.904828980460114
5.914285714285715,6.888082363691964
5.934065934065933,6.879829409521675
5.953846153846154,6.88014068197783
5.973626373626374,6.889021359590301
5.993406593406593,6.906411147752169
6.013186813186813,6.932185531063067
6.032967032967033,6.966158301990615
6.052747252747253,7.008085240659788
6.072527472527473,7.057668770270122
6.092307692307692,7.1145633773371
6.112087912087913,7.178381567484684
6.131868131868131,7.24870012569128
6.151648351648352,7.325066462785625
6.171428571428572,7.407004854443959
6.191208791208791,7.494022411170537
6.210989010989011,7.585614653912074
6.230769230769231,7.681270606635726
6.2505494505494505,7.780477351662637
6.270329670329671,7.882724023896022
6.29010989010989,7.987505245230726
6.309890109890111,8.094324019998611
6.329670329670329,8.202694126453347
6.349450549450549,8.312142048559096
6.36923076923077,8.422208497460053
6.3890109890109885,8.532449573791737
6.408791208791209,8.642437621256413
6.428571428571428,8.751761819354373
6.4483516483516485,8.860028559464284
6.468131868131868,8.966861644102524
6.487912087912088,9.071902344552871
6.507692307692308,9.174809347427011
6.527472527472527,9.275258616289127
6.547252747252747,9.372943190378962
6.567032967032967,9.467572938765676
6.5868131868131865,9.558874284989416
6.606593406593407,9.646589914398106
6.626373626373626,9.730478473945064
6.6461538461538465,9.810314272148563
6.665934065934065,9.885886985189565
6.685714285714286,9.957001373701283
6.705494505494506,10.023477013643577
6.725274725274725,10.08514804372119
6.745054945054945,10.14186293106264
6.764835164835165,10.193484256296898
6.7846153846153845,10.239888518720255
6.804395604395605,10.280965961913582
6.824175824175824,10.316620419929725
6.8439560439560445,10.346769184006149
6.863736263736263,10.37134288965358
6.883516483516484,10.3902854239162
6.903296703296704,10.403553852582059
6.923076923076923,10.411118367135579
6.942857142857143,10.412962251279597
6.962637362637362,10.409081866906705
6.9824175824175825,10.39948665946189
7.002197802197802,10.384199182707246
7.021978021978022,10.363255142968073
7.041758241758242,10.336703463004879
7.061538461538461,10.304606365711358
7.081318681318681,10.26703947787963
7.101098901098901,10.224091954294204
7.1208791208791204,10.175866622408703
7.140659340659341,10.122480147815276
7.16043956043956,10.064063220626647
7.1802197802197805,10.0007607627427
7.199999999999999,9.93273215575348
7.21978021978022,9.860151488922009
7.23956043956044,9.783207826273847
7.259340659340659,9.702105491273032
7.279120879120879,9.617064366859628
7.298901098901099,9.52832020773261
7.318681318681318,9.436124960649572
7.338461538461539,9.340747087144738
7.358241758241758,9.242471881399826
7.3780219780219785,9.141601773997829
7.397802197802197,9.038456609909431
7.417582417582418,8.933373886270507
7.437362637362638,8.826708932284658
7.457142857142857,8.718835009918529
7.476923076923077,8.61014330996988
7.496703296703297,8.501042813636293
7.516483516483516,8.391959985003803
7.536263736263736,8.283338255087742
7.556043956043957,8.175637253454852
7.575824175824176,8.06933173940123
7.595604395604395,7.964910181637551
7.615384615384615,7.862872934044625
7.635164835164835,7.763729956029796
7.654945054945055,7.667998030147021
7.674725274725275,7.576197437785936
7.694505494505494,7.488848066682307
7.7142857142857135,7.406464942373328
7.734065934065935,7.329553199807669
7.753846153846154,7.2586025409051915
7.7736263736263735,7.194081258051174
7.793406593406592,7.136429940598566
7.813186813186814,7.086055018878065
7.832967032967034,7.043322334645845
7.852747252747252,7.0085509544839315
7.872527472527472,6.982007459468467
7.892307692307693,6.963900946973563
7.912087912087912,6.954378966417755
7.931868131868132,6.9535245793784375
7.951648351648351,6.9613546871006955
7.971428571428572,6.977819708374522
7.991208791208791,7.002804623142342
8.010989010989011,7.036131328198764
8.03076923076923,7.077562187323831
8.05054945054945,7.126804604800535
8.07032967032967,7.183516412668378
8.09010989010989,7.247311840456658
8.10989010989011,7.3177678316512385
8.129670329670331,7.394430482065133
8.149450549450549,7.476821398546808
8.169230769230769,7.56444380827028
8.189010989010988,7.656788285270532
8.20879120879121,7.753337998330383
8.22857142857143,7.853573419889114
8.248351648351647,7.956976467258961
8.268131868131867,8.063034073876489
8.287912087912087,8.171241209093436
8.307692307692308,8.281103380218333
8.327472527472528,8.392138660649858
8.347252747252746,8.503879293727795
8.367032967032966,8.615872924196607
8.386813186813187,8.727683508759267
8.406593406593407,8.838891954853068
8.426373626373627,8.949096533158212
8.446153846153845,9.057913104984406
8.465934065934066,9.164975200984193
8.485714285714286,9.26993398291721
8.505494505494505,9.37245811564821
8.525274725274725,9.472233572340077
8.545054945054945,9.568963391978604
8.564835164835165,9.66236740497252
8.584615384615384,9.752181939614877
8.604395604395604,9.838159519651992
8.624175824175826,9.920068561055539
8.643956043956043,9.997693074293807
8.663736263736263,10.070832376911552
8.683516483516483,10.139300820013291
8.703296703296704,10.202927531265741
8.723076923076924,10.261556176255967
8.742857142857142,10.315044739431597
8.762637362637362,10.36326532538026
8.782417582417583,10.406103980853663
8.802197802197803,10.443460537686038
8.821978021978023,10.475248476579837
8.84175824175824,10.501394811618477
8.86153846153846,10.52183999530401
8.881318681318682,10.53653784389607
8.901098901098901,10.545455482838747
8.920879120879121,10.548573312095924
8.940659340659339,10.545884991267462
8.96043956043956,10.537397444421686
8.98021978021978,10.523130884649257
9.0,10.50311885841485
9.01978021978022,10.477408309850814
9.03956043956044,10.446059665196273
9.05934065934066,10.409146937630851
9.079120879120879,10.36675785277734
9.098901098901099,10.318993995146263
9.11868131868132,10.265970975757913
9.138461538461538,10.207818621095452
9.158241758241758,10.144681183403222
9.178021978021977,10.07671757213483
9.197802197802199,10.00410160605811
9.217582417582419,9.927022285120751
9.237362637362637,9.845684080646965
9.257142857142856,9.760307241747205
9.276923076923078,9.67112811494826
9.296703296703297,9.578399472957404
9.316483516483517,9.482390847122872
9.336263736263735,9.38338885650564
9.356043956043957,9.281697524490648
9.375824175824176,9.17763857150134
9.395604395604396,9.071551669600542
9.415384615384616,8.963794641539867
9.435164835164835,8.854743583144764
9.454945054945055,8.744792883809547
9.474725274725275,8.63435511537598
9.494505494505495,8.523860754881001
9.514285714285714,8.413757701753326
9.534065934065934,8.304510545266304
9.553846153846154,8.196599533772508
9.573626373626373,8.090519193926278
9.593406593406593,7.986776546343181
9.613186813186815,7.885888864669858
9.632967032967032,7.788380928663049
9.652747252747252,7.69478172946792
9.672527472527472,7.605620597675199
9.692307692307693,7.521422742599259
9.712087912087913,7.442704214920023
9.731868131868131,7.369966334245922
9.75164835164835,7.303689657487166
9.771428571428572,7.2443276015685445
9.791208791208792,7.192299872467333
9.810989010989012,7.147985888528338
9.83076923076923,7.111718415595161
9.850549450549451,7.083777650643856
9.87032967032967,7.064385995644818
9.89010989010989,7.053703751675148
9.90989010989011,7.051825933843339
9.92967032967033,7.058780361387609
9.94945054945055,7.07452711751368
9.96923076923077,7.098959405142654
9.989010989010989,7.131905753961546
10.008791208791209,7.1731334675653535
10.028571428571428,7.222353143002129
10.048351648351648,7.279224053203222
10.068131868131868,7.343360158156832
10.08791208791209,7.414336503686012
10.107692307692307,7.491695775808821
10.127472527472527,7.574954800907845
10.147252747252747,7.6636108134929986
10.167032967032966,7.757147350155932
10.186813186813188,7.855039666640493
10.206593406593406,7.9567596117102495
10.226373626373626,8.061779924442988
10.246153846153845,8.169577949356404
10.265934065934067,8.279638785776232
10.285714285714286,8.391457904125456
10.305494505494504,8.504543272803458
10.325274725274724,8.618417045763097
10.345054945054946,8.732616863626326
10.364835164835165,8.84669682105735
10.384615384615385,8.960228150925719
10.404395604395603,9.072799672223123
10.424175824175824,9.184018044307143
10.443956043956044,9.293507865269833
10.463736263736264,9.40091164739205
10.483516483516484,9.505889697973762
10.503296703296703,9.608119929472887
10.523076923076923,9.707297618926656
10.542857142857143,9.80313513311052
10.562637362637362,9.89536163281582
10.582417582417584,9.983722766984867
10.602197802197802,10.067980365200244
10.621978021978022,10.14791213514798
10.641758241758241,10.223311370120769
10.661538461538463,10.2939866703575
10.681318681318682,10.359761680989669
10.7010989010989,10.4204748485484
10.72087912087912,10.475979197344563
10.740659340659342,10.526142126541112
10.760439560439561,10.570845228364973
10.780219780219781,10.609984127635462
10.799999999999999,10.643468342597501
10.819780219780219,10.671221166926536
10.83956043956044,10.693179572703592
