Time (s),Filtered Signal
0.0,0.004641302830250028
0.033370535714285714,-0.10652771672820448
0.06674107142857143,-0.1766588412026443
0.10011160714285713,-0.1786057340786016
0.13348214285714285,-0.10682691844925449
0.16685267857142858,0.023444691773486157
0.20022321428571427,0.18438829812247143
0.23359375,0.3464874246649853
0.2669642857142857,0.4868535953025647
0.30033482142857143,0.5919131623551458
0.33370535714285715,0.6549673840725296
0.36707589285714287,0.6719323745890077
0.40044642857142854,0.63904395014224
0.43381696428571426,0.5544209392288592
0.4671875,0.4224522879691587
0.5005580357142857,0.2578128965298923
0.5339285714285714,0.08572834951956243
0.5672991071428571,-0.06306841822539343
0.6006696428571429,-0.16143449139120272
0.6340401785714286,-0.19537798717901597
0.6674107142857143,-0.1698166120180445
0.70078125,-0.10763165953457446
0.7341517857142857,-0.041930489668793376
0.7675223214285715,-0.004410087202728115
0.8008928571428571,-0.014470468188105415
0.8342633928571428,-0.07342620281296444
0.8676339285714285,-0.16592870076574934
0.9010044642857142,-0.2675685918493329
0.934375,-0.3550255655952007
0.9677455357142857,-0.41424885694493674
1.0011160714285714,-0.4433362922774928
1.0344866071428571,-0.4494273738694342
1.0678571428571428,-0.44178795628728185
1.1012276785714286,-0.4250114957790275
1.1345982142857143,-0.3960536409286282
1.16796875,-0.34670107761804203
1.2013392857142857,-0.2700611402302221
1.2347098214285714,-0.16732057994018565
1.2680803571428572,-0.050698875475458434
1.3014508928571429,0.05949583328004542
1.3348214285714286,0.14254651673885219
1.3681919642857143,0.18588685865023225
1.4015625,0.1901097149024731
1.4349330357142858,0.16788713533920474
1.4683035714285715,0.13755263476374327
1.5016741071428572,0.11491730497292693
1.535044642857143,0.1076755482087517
1.5684151785714286,0.11509929538285926
1.6017857142857141,0.1325774308011346
1.6351562499999999,0.1577007196136816
1.6685267857142856,0.19364759401901543
1.7018973214285713,0.24719769658445076
1.735267857142857,0.322007261960832
1.7686383928571427,0.4109987285466682
1.8020089285714285,0.49292587328160603
1.8353794642857142,0.5364747498366885
1.86875,0.5113941405674384
1.9021205357142856,0.4021621502289542
1.9354910714285714,0.21777302938420762
1.968861607142857,-0.007530589934663994
2.002232142857143,-0.223878520911195
2.0356026785714287,-0.38235417678621353
2.0689732142857142,-0.4518553553085497
2.10234375,-0.4292611145981115
2.1357142857142857,-0.33882322545581034
2.169084821428571,-0.22141343513854084
2.202455357142857,-0.11853768339788107
2.2358258928571426,-0.05790673938989988
2.2691964285714286,-0.04612824547822386
2.302566964285714,-0.07055887032615522
2.3359375,-0.10829407511089553
2.3693080357142855,-0.13750494225569007
2.4026785714285714,-0.1459438953926454
2.436049107142857,-0.13338402342952563
2.469419642857143,-0.10795215725825845
2.5027901785714284,-0.0791975021242768
2.5361607142857143,-0.05198380537300525
2.56953125,-0.02442303047481724
2.6029017857142858,0.009367575878040027
2.6362723214285713,0.05361590698989272
2.669642857142857,0.10587517206753559
2.7030133928571427,0.1558042248899269
2.7363839285714286,0.18880157848307255
2.769754464285714,0.192783479781771
2.803125,0.16449270392654403
2.8364955357142856,0.11177602529180188
2.8698660714285715,0.05033300449834647
2.903236607142857,-0.003557013693641708
2.936607142857143,-0.0405462365876598
2.9699776785714285,-0.06196814221782938
3.0033482142857144,-0.07785578470837906
3.03671875,-0.10040091330749137
3.070089285714286,-0.13646834116616421
3.1034598214285714,-0.18314198140185425
3.1368303571428573,-0.22845894560570956
3.170200892857143,-0.2566675445400928
3.2035714285714283,-0.2551640859152666
3.2369419642857142,-0.21977934286509457
3.2703124999999997,-0.15625062517116606
3.3036830357142857,-0.07765085482449827
3.337053571428571,0.000753215739435032
3.370424107142857,0.06688367796028559
3.4037946428571426,0.11527323053090065
3.4371651785714286,0.1472922004220862
3.470535714285714,0.16841784557835734
3.50390625,0.18420823842709425
3.5372767857142855,0.19733449258929556
3.5706473214285714,0.20746770536194586
3.604017857142857,0.2140880995598351
3.637388392857143,0.2202307550706221
3.6707589285714284,0.23408343191212572
3.7041294642857143,0.26614601184136916
3.7375,0.3222233333626204
3.7708705357142858,0.39554308260214205
3.8042410714285713,0.4629293764459751
3.837611607142857,0.4889275122673652
3.8709821428571427,0.43816411602702365
3.9043526785714286,0.29165411002975256
3.937723214285714,0.05965978334668078
3.97109375,-0.21593957925519505
4.004464285714286,-0.47265001327980855
4.0378348214285715,-0.6484131026343337
4.0712053571428575,-0.7042458004022731
4.1045758928571425,-0.638739873561346
4.1379464285714285,-0.488092704456808
4.171316964285714,-0.3117325344847561
4.2046875,-0.16978715849511625
4.238058035714285,-0.10172981794798461
4.271428571428571,-0.11439003066767145
4.304799107142857,-0.1830968310587602
4.338169642857142,-0.2642766134211202
4.371540178571428,-0.313659633432142
4.404910714285714,-0.30276102634127317
4.43828125,-0.2276806598169236
4.471651785714285,-0.10769078947154631
4.505022321428571,0.02484495236594546
4.538392857142857,0.13846433146728304
4.571763392857143,0.21456784549263483
4.605133928571428,0.25264980032268
4.638504464285714,0.2672103773900998
4.671875,0.2783879972326901
4.705245535714286,0.3009370974862878
4.738616071428571,0.3366430212946895
4.771986607142857,0.3734872263744345
4.805357142857143,0.39169913509747434
4.838727678571429,0.37367785011502264
4.872098214285714,0.3130276293535446
4.90546875,0.21840643189440326
4.938839285714286,0.11035959974296926
4.972209821428572,0.012687266222830375
5.005580357142857,-0.05743095596171568
5.038950892857143,-0.0957175888570252
5.072321428571429,-0.11050081787930312
5.105691964285715,-0.1163043935112242
5.1390625,-0.12503202308973982
5.172433035714286,-0.13968398015537364
5.2058035714285715,-0.15400522158785399
5.2391741071428575,-0.15798995693354007
5.2725446428571425,-0.14575454275218766
5.3059151785714285,-0.12092404436817449
5.339285714285714,-0.09613621743779142
5.3726562499999995,-0.08667631176454955
5.406026785714285,-0.10165392728219802
5.439397321428571,-0.13763401682051962
5.472767857142857,-0.1784607282468986
5.506138392857142,-0.20182672643628652
5.539508928571428,-0.1896045453339576
5.572879464285714,-0.13686641126774862
5.60625,-0.054953430062406036
5.639620535714285,0.03322534229858765
5.672991071428571,0.10360573172209364
5.706361607142857,0.1420307475947479
5.739732142857143,0.15036959251590354
5.773102678571428,0.14445487775428492
5.806473214285714,0.14475168812676178
5.83984375,0.16451381689907385
5.873214285714286,0.20165704333979756
5.906584821428571,0.2388055270967362
5.939955357142857,0.2517802250727156
5.973325892857143,0.22235763607662695
6.006696428571429,0.14877566267383668
6.040066964285714,0.04846502957007715
6.0734375,-0.04865083890191549
6.106808035714286,-0.11319660913937209
6.140178571428572,-0.1294340585004589
6.173549107142857,-0.10207888073196868
6.206919642857143,-0.05366226838522471
6.240290178571429,-0.013919813651524978
6.273660714285715,-0.006477470533509724
6.30703125,-0.03912265202962316
6.340401785714286,-0.1018266366786395
6.3737723214285715,-0.17270354094419227
6.407142857142857,-0.22838643411737508
6.4405133928571425,-0.2536571773216621
6.4738839285714285,-0.2461388447628165
6.507254464285714,-0.21466202242503904
6.5406249999999995,-0.17300074429647339
6.573995535714285,-0.13257787717545524
6.607366071428571,-0.09774111494169722
6.640736607142857,-0.06553199499638719
6.674107142857142,-0.029452249067646194
6.707477678571428,0.015235408624281535
6.740848214285714,0.06772485432282267
6.77421875,0.12141615366690559
6.807589285714285,0.16712254012061648
6.840959821428571,0.1976913377046199
6.874330357142857,0.2112804259973137
6.907700892857143,0.21147923591273168
6.941071428571428,0.20446307259578125
6.974441964285714,0.19515586558797204
7.0078125,0.18483912521283177
7.041183035714286,0.1715468751271142
7.074553571428571,0.15270069838028075
7.107924107142857,0.1280163744146145
7.141294642857143,0.10064301217481048
7.174665178571429,0.07573641098133815
7.208035714285714,0.057342260718222605
7.24140625,0.045508608008541646
7.274776785714286,0.035410643528028245
7.308147321428572,0.01916376671493347
7.341517857142857,-0.010388686147346895
7.374888392857143,-0.055612287328112624
7.408258928571429,-0.11165126036574449
7.441629464285715,-0.16695072011718937
7.475,-0.20689445918583996
7.508370535714286,-0.21939208909005783
7.5417410714285715,-0.20024699156202733
7.575111607142857,-0.15594246571645465
7.6084821428571425,-0.10233404798572449
7.6418526785714285,-0.05939689570105985
7.675223214285714,-0.04393284560363777
7.7085937499999995,-0.0631249525864179
7.741964285714285,-0.11152835860520792
7.775334821428571,-0.17266759987865204
7.808705357142857,-0.22457566405132595
7.842075892857142,-0.24716013858242047
7.875446428571428,-0.2287236391412673
7.908816964285714,-0.16939783743471712
7.9421875,-0.08044717064174435
7.975558035714285,0.020078589835515328
8.008928571428571,0.11355931945478571
8.042299107142856,0.18650396580551676
8.075669642857143,0.23368147493656646
8.109040178571428,0.2577455352573664
8.142410714285715,0.26586889748593256
8.17578125,0.26512461049936925
8.209151785714285,0.25883670015598315
8.242522321428572,0.24560908842803186
8.275892857142857,0.221376573322037
8.309263392857142,0.18321823993453062
8.342633928571429,0.1326859576292886
8.376004464285714,0.07663790734308273
8.409375,0.024956408152469592
8.442745535714286,-0.013702494923387497
8.47611607142857,-0.035844858991001524
8.509486607142858,-0.044611445330821065
8.542857142857143,-0.04795483127006181
8.576227678571428,-0.054463233933661856
8.609598214285715,-0.06905020948107757
8.64296875,-0.09081152744113248
8.676339285714285,-0.11416092785944455
8.709709821428572,-0.1325112379645614
8.743080357142857,-0.1422879207975979
8.776450892857143,-0.14482933704953344
8.809821428571428,-0.14495434343082197
8.843191964285714,-0.147016898822923
8.8765625,-0.15092563640221712
8.909933035714285,-0.1508302540912597
8.94330357142857,-0.13771673827963166
8.976674107142857,-0.1047769268035996
9.010044642857142,-0.052510197673015534
9.04341517857143,0.009706942427582604
9.076785714285714,0.06707282696124037
9.11015625,0.1064214145995514
9.143526785714286,0.1231057734813954
9.176897321428571,0.1235908537157382
9.210267857142856,0.12177885706944687
9.243638392857143,0.13063321982053097
9.277008928571428,0.1536020791108491
9.310379464285715,0.18086184535567812
9.34375,0.19302135918358765
9.377120535714285,0.17085776918649417
9.410491071428572,0.10616559090796321
9.443861607142857,0.007915305669642684
9.477232142857142,-0.0997808525331778
9.510602678571429,-0.18714181893839668
9.543973214285714,-0.23101136907233327
9.57734375,-0.223990392492762
9.610714285714286,-0.17622406892179887
9.64408482142857,-0.10951386292230922
9.677455357142858,-0.047173242024753675
9.710825892857143,-0.004752261048028891
9.744196428571428,0.014259621525438578
9.777566964285715,0.01656912601774307
9.8109375,0.013004480447691936
9.844308035714285,0.011927437295685156
9.877678571428572,0.015494820156573552
9.911049107142857,0.02016543942787784
9.944419642857143,0.02046016318880155
9.977790178571428,0.013443783917489587
10.011160714285714,0.001378539062319845
10.04453125,-0.008711232595372957
10.077901785714285,-0.008104751490671419
10.11127232142857,0.009562632136607557
10.144642857142857,0.045082717229413004
10.178013392857142,0.09249107373230578
10.21138392857143,0.1402449290173612
10.244754464285714,0.17440211170354308
10.278125,0.18298811096432258
10.311495535714286,0.16037379799403317
10.344866071428571,0.11019583484741088
10.378236607142856,0.04539200416692869
10.411607142857143,-0.015374607632154062
10.444977678571428,-0.054229897241700326
10.478348214285715,-0.06126748986090887
10.51171875,-0.03920524146197023
10.545089285714285,-0.002895534320782529
10.578459821428572,0.026806334100668246
10.611830357142857,0.03248764122855425
10.645200892857142,0.008579828528073354
10.678571428571429,-0.03559603773491544
10.711941964285714,-0.08008247365342216
10.745312499999999,-0.10414673163123472
10.778683035714286,-0.09703911014181389
10.81205357142857,-0.0642112793996464
10.845424107142858,-0.025646191982669545
10.878794642857143,-0.006861371760718379
10.912165178571428,-0.026857629243447322
10.945535714285715,-0.08883671660069002
10.97890625,-0.17809253076352924
11.012276785714285,-0.2678750355266571
11.045647321428572,-0.3301651335241613
11.079017857142857,-0.346180627948396
11.112388392857143,-0.3120327290430196
11.145758928571428,-0.2377373802690716
11.179129464285714,-0.14110871346934253
11.2125,-0.04016298839785537
11.245870535714285,0.05235509448479075
11.27924107142857,0.13050281329949814
11.312611607142857,0.19325529643295697
11.345982142857142,0.24132962547913164
11.37935267857143,0.27496123674629297
11.412723214285714,0.2936942320308567
11.44609375,0.2976352386254802
11.479464285714286,0.2886341639009909
11.512834821428571,0.2701085916952766
11.546205357142856,0.24549751006329829
11.579575892857143,0.21665947949825
11.612946428571428,0.18385766441703003
11.646316964285715,0.14789872409430407
11.6796875,0.11314398604195482
11.713058035714285,0.08880691810331534
11.746428571428572,0.08633038178347376
11.779799107142857,0.11283367638127605
11.813169642857142,0.16351475723938597
11.846540178571429,0.21766110392735857
11.879910714285714,0.24211347524942883
11.913281249999999,0.20258963244230507
11.946651785714286,0.07884509571791162
11.98002232142857,-0.12323933386852798
12.013392857142858,-0.368974862069842
12.046763392857143,-0.6038644036017129
12.080133928571428,-0.7710888817145432
12.113504464285715,-0.8303100652935937
12.146875,-0.7701657324612805
12.180245535714285,-0.6099185800275361
12.213616071428572,-0.3905712982200388
12.246986607142857,-0.1599759006294356
12.280357142857143,0.04172991930924343
12.313727678571428,0.19109693879043804
12.347098214285714,0.28259784829615703
12.38046875,0.32351660639028984
12.413839285714285,0.326263632497225
12.44720982142857,0.3021712023624907
12.480580357142857,0.25916394661067904
12.513950892857142,0.20315574600573086
12.54732142857143,0.1409855552085051
12.580691964285714,0.08216457539581926
12.6140625,0.037783824475130304
12.647433035714286,0.01687656160310618
12.680803571428571,0.022201548522299584
12.714174107142856,0.04791765455071475
12.747544642857143,0.08075558921716927
12.780915178571428,0.10456818614211986
12.814285714285713,0.10644559954528007
12.84765625,0.08173818857103747
12.881026785714285,0.03574040622036797
12.914397321428572,-0.01872440811870479
12.947767857142857,-0.06670334389803526
12.981138392857142,-0.09701461797063339
13.014508928571429,-0.10598108687565776
13.047879464285714,-0.09742569418611795
13.081249999999999,-0.07920087462235172
13.114620535714286,-0.05820662702402351
13.14799107142857,-0.036558917850380845
13.181361607142858,-0.010959392578058492
13.214732142857143,0.024339679528808594
13.248102678571428,0.07251545632271875
13.281473214285715,0.12988864308475084
13.31484375,0.18499842289699311
13.348214285714285,0.22202935240494215
13.381584821428572,0.2272430185208335
13.414955357142857,0.1953044338608944
13.448325892857143,0.13225475552415666
13.481696428571428,0.05350601237280971
13.515066964285714,-0.022266942334976864
13.5484375,-0.08044876300714315
13.581808035714285,-0.11563010877626699
13.61517857142857,-0.13236074077048807
13.648549107142857,-0.1414550383340054
13.681919642857142,-0.1538533252778558
13.71529017857143,-0.17503358981496167
13.748660714285714,-0.20249127553477825
13.78203125,-0.22717368366591806
13.815401785714286,-0.23782972875886052
13.848772321428571,-0.2259817262019663
13.882142857142856,-0.1892182296924807
13.915513392857143,-0.1316395097233877
13.948883928571428,-0.06185637324995065
13.982254464285713,0.009942318326667308
14.015625,0.07425010857700699
14.048995535714285,0.12310516257726739
14.082366071428572,0.15002855030763
14.115736607142857,0.15021101562785655
14.149107142857142,0.1218262238005123
14.182477678571429,0.0682408676363116
14.215848214285714,-0.00026673487434672254
14.249218749999999,-0.06701810574399346
14.282589285714286,-0.11257458952330904
14.31595982142857,-0.1207498684985548
14.349330357142858,-0.08470281017485873
14.382700892857143,-0.010338163350647226
14.416071428571428,0.08480362982578231
14.449441964285715,0.17702307251224397
14.4828125,0.24418819488846916
14.516183035714285,0.2726220824746962
14.549553571428572,0.2605427265334901
14.582924107142857,0.21706337030712688
14.616294642857143,0.15766430714102503
14.649665178571428,0.0983422015697831
14.683035714285714,0.05082777330238807
14.71640625,0.020400047023266452
14.749776785714285,0.006440266873090022
14.78314732142857,0.004663991351943318
14.816517857142857,0.00949497783257983
14.849888392857142,0.015445841503292725
14.88325892857143,0.01733327389721321
14.916629464285714,0.010073291544669712
14.95,-0.010894325520824448
14.983370535714286,-0.04802065509615979
15.016741071428571,-0.09941344035388215
15.050111607142856,-0.15737503715472934
15.083482142857143,-0.2092392721191837
15.116852678571428,-0.24107756243442902
15.150223214285713,-0.24321394129625548
15.18359375,-0.2150921896949293
15.216964285714285,-0.1668102133183335
15.250334821428572,-0.11593183488362818
15.283705357142857,-0.08046635389359216
15.317075892857142,-0.0709793301034733
15.350446428571429,-0.08549865476570535
15.383816964285714,-0.10976163252427987
15.417187499999999,-0.12294010199892405
15.450558035714286,-0.10646714509838746
15.48392857142857,-0.05216650172647206
15.517299107142858,0.03381270342881583
15.550669642857143,0.13289914851930276
15.584040178571428,0.2209371015389637
15.617410714285715,0.2769808942321171
15.65078125,0.29039783122928425
15.684151785714285,0.2635981452574347
15.717522321428572,0.20974220800607024
15.750892857142857,0.1468555827128503
15.784263392857143,0.09102481180378731
15.817633928571428,0.05137413307382191
15.851004464285714,0.028493377420276318
15.884375,0.016409157964266865
15.917745535714285,0.006724565007344035
15.95111607142857,-0.00718847713687835
15.984486607142857,-0.027751313591986397
16.017857142857142,-0.05313546448146708
16.05122767857143,-0.07892390156275067
16.084598214285712,-0.10010372029874723
16.11796875,-0.1123480279071609
16.151339285714286,-0.11250793938315885
16.18470982142857,-0.09898463693199612
16.218080357142856,-0.07256196569703979
16.251450892857143,-0.03746977217080631
16.28482142857143,-0.0016715388253765557
16.318191964285713,0.024622205536836517
16.3515625,0.03229046631023352
16.384933035714287,0.017310505301132994
16.41830357142857,-0.016475893188465134
16.451674107142857,-0.057453103481551644
16.485044642857144,-0.08957077627873926
16.518415178571427,-0.09780941115771524
16.551785714285714,-0.07361486221431236
16.58515625,-0.01809497089237805
16.618526785714284,0.058269357713515706
16.65189732142857,0.13913652907405935
16.685267857142858,0.20744142024197235
16.71863839285714,0.2500400289923784
16.752008928571428,0.26026746859269745
16.785379464285715,0.23803481211850835
16.81875,0.1882735713673272
16.852120535714285,0.11901043112352769
16.88549107142857,0.039939665959765086
16.91886160714286,-0.03851956404016507
16.95223214285714,-0.10632089379931475
16.98560267857143,-0.15556215320149758
17.018973214285715,-0.18266724219675323
17.05234375,-0.18989043221515034
17.085714285714285,-0.1849027601559325
17.119084821428572,-0.17802014847217495
17.152455357142856,-0.17796985811827326
17.185825892857142,-0.18809625909751845
17.21919642857143,-0.20486627595426704
17.252566964285712,-0.21942031838486237
17.2859375,-0.2213973723719419
17.319308035714286,-0.20322274022169048
17.35267857142857,-0.16299151814305868
17.386049107142856,-0.10490892868906078
17.419419642857143,-0.037432159833722486
17.45279017857143,0.029795869883795647
17.486160714285713,0.0888057076815204
17.51953125,0.13490188797176442
