Frequency (Hz),Amplitude
0.0,5.500650199200519
0.019801980198019802,5.509816630769796
0.039603960396039604,5.537188954276586
0.0594059405940594,5.582392607949833
0.07920792079207921,5.6448237326654205
0.09900990099009901,5.723677281693925
0.1188118811881188,5.81798189300537
0.13861386138613863,5.9266381121569705
0.15841584158415842,6.048456746535767
0.1782178217821782,6.182194731441975
0.19801980198019803,6.3265866957348695
0.21782178217821782,6.480371241294283
0.2376237623762376,6.642311661998975
0.25742574257425743,6.8112113563445655
0.27722772277227725,6.9859245219021275
0.297029702970297,7.165362884872131
0.31683168316831684,7.348499255933983
0.33663366336633666,7.534368658164885
0.3564356435643564,7.722067681215413
0.37623762376237624,7.910752605750442
0.39603960396039606,8.099636731486333
0.4158415841584158,8.287987241340895
0.43564356435643564,8.475121848063372
0.45544554455445546,8.660405399425485
0.4752475247524752,8.843246562759829
0.495049504950495,9.023094667438496
0.5148514851485149,9.199436752565886
0.5346534653465347,9.371794844526876
0.5544554455445545,9.539723473140729
0.5742574257425742,9.702807424379996
0.594059405940594,9.860659720603179
0.613861386138614,10.012919814980439
0.6336633663366337,10.159251984471165
0.6534653465346534,10.299343904744577
0.6732673267326733,10.432905390379865
0.6930693069306931,10.559667284222607
0.7128712871287128,10.679380480680988
0.7326732673267327,10.791815068858407
0.7524752475247525,10.896759582630391
0.7722772277227723,10.994020346008083
0.7920792079207921,11.083420903341473
0.8118811881188118,11.164801525074827
0.8316831683168316,11.238018780856198
0.8514851485148516,11.302945172819134
0.8712871287128713,11.35946882279215
0.891089108910891,11.40749320805724
0.9108910891089109,11.446936941074997
0.9306930693069307,11.477733589329725
0.9504950495049505,11.499831532128768
0.9702970297029703,11.513193851827651
0.99009900990099,11.517798257550794
1.00990099009901,11.51363704004833
1.0297029702970297,11.500717056879147
1.0495049504950495,11.47905974764813
1.0693069306930694,11.448701179558416
1.0891089108910892,11.409692124077056
1.108910891089109,11.362098166062479
1.1287128712871286,11.305999847271151
1.1485148514851484,11.241492846759618
1.1683168316831685,11.168688201334446
1.188118811881188,11.087712569882049
1.2079207920792079,10.99870854614593
1.227722772277228,10.901835025313755
1.2475247524752475,10.797267630641011
1.2673267326732673,10.68519920727536
1.2871287128712872,10.565840391459385
1.3069306930693068,10.439420264380045
1.3267326732673268,10.306187101090474
1.3465346534653466,10.166409226142338
1.3663366336633662,10.020375988802233
1.3861386138613863,9.86839887194068
1.405940594059406,9.710812749801264
1.4257425742574257,9.547977310773726
1.4455445544554455,9.380278661849943
1.4653465346534653,9.20813113140917
1.4851485148514851,9.031979286042763
1.504950495049505,8.852300174853381
1.5247524752475248,8.66960581045717
1.5445544554455446,8.484445888992083
1.5643564356435644,8.297410740760869
1.5841584158415842,8.109134487397021
1.6039603960396038,7.920298359007452
1.6237623762376237,7.731634093671579
1.6435643564356437,7.543927299783741
1.6633663366336633,7.358020606776727
1.683168316831683,7.174816359853572
1.7029702970297032,6.995278528563941
1.7227722772277227,6.820433398516055
1.7425742574257426,6.651368504889854
1.7623762376237624,6.4892291558988235
1.782178217821782,6.335211801796703
1.801980198019802,6.190553457754355
1.8217821782178218,6.056516423933323
1.8415841584158414,5.934367707034446
1.8613861386138615,5.825352876676262
1.881188118811881,5.730664613229823
1.900990099009901,5.651406911207321
1.920792079207921,5.5885567277915404
1.9405940594059405,5.542925676958589
1.9603960396039604,5.515124978604919
1.98019801980198,5.505537079025553
2.0,5.514297017545624
2.01980198019802,5.541285699485641
2.0396039603960396,5.586135881243112
2.0594059405940595,5.64825014784652
2.0792079207920793,5.726828791000792
2.099009900990099,5.820904550856717
2.118811881188119,5.9293808096926
2.1386138613861387,6.051070004272525
2.1584158415841586,6.184729614649684
2.1782178217821784,6.3290938916576165
2.1980198019801978,6.482900313905503
2.217821782178218,6.6449104814691795
2.237623762376238,6.813925687829214
2.257425742574257,6.9887977512523705
2.2772277227722775,7.16843585631501
2.297029702970297,7.351810197314279
2.3168316831683167,7.537953171750131
2.336633663366337,7.725958781367016
2.3564356435643563,7.914980788282982
2.376237623762376,8.104230062861571
2.3960396039603964,8.2929714587589
2.4158415841584158,8.480520463941295
2.4356435643564356,8.666239805698506
2.455445544554456,8.84953613194535
2.4752475247524752,9.029856848541279
2.495049504950495,9.206687160735195
2.514851485148515,9.379547343973503
2.5346534653465347,9.5479902532352
2.5544554455445545,9.711599069130363
2.5742574257425743,9.869985271886227
2.594059405940594,10.02278683000401
2.6138613861386135,10.169666587996904
2.633663366336634,10.310310836617242
2.6534653465346536,10.444428048902466
2.673267326732673,10.571747765894319
2.6930693069306932,10.692019616783782
2.712871287128713,10.805012459342151
2.7326732673267324,10.910513627708273
2.7524752475247527,11.008328275835769
2.7722772277227725,11.0982788061169
2.792079207920792,11.180204373859999
2.811881188118812,11.253960459390326
2.8316831683168315,11.31941850056172
2.8514851485148514,11.376465579407295
2.8712871287128716,11.425004157525448
2.891089108910891,11.464951855595759
2.910891089108911,11.496241273157365
2.9306930693069306,11.518819845466039
2.9504950495049505,11.532649734883734
2.9702970297029703,11.537707754855699
2.99009900990099,11.533985325101549
3.00990099009901,11.521488457197686
3.0297029702970297,11.500237770267189
3.0495049504950495,11.470268537027385
3.0693069306930694,11.431630760983802
3.089108910891089,11.384389286108343
3.108910891089109,11.328623940911548
3.128712871287129,11.264429719415766
3.148514851485148,11.191917002173794
3.1683168316831685,11.111211821157065
3.1881188118811883,11.022456173073191
3.2079207920792077,10.925808386467885
3.227722772277228,10.821443548830674
3.2475247524752473,10.709554000861543
3.267326732673267,10.590349906070394
3.2871287128712874,10.46405990497158
3.3069306930693068,10.330931864295934
3.3267326732673266,10.191233732856038
3.346534653465347,10.045254516940494
3.366336633663366,9.893305389331816
3.386138613861386,9.735720947169291
3.4059405940594063,9.572860634804913
3.4257425742574257,9.405110348370107
3.4455445544554455,9.232884238759032
3.4653465346534653,9.056626728827437
3.485148514851485,8.876814758369708
3.504950495049505,8.693960266284614
3.5247524752475248,8.50861291248653
3.5445544554455446,8.321363031539699
3.564356435643564,8.132844794376595
3.5841584158415842,7.9437395321835735
3.603960396039604,7.754779145656898
3.6237623762376234,7.566749481170055
3.6435643564356437,7.380493500702763
3.6633663366336635,7.1969140027381755
3.683168316831683,7.016975565776783
3.702970297029703,6.841705285695504
3.722772277227723,6.67219176746172
3.7425742574257423,6.509581720719991
3.762376237623762,6.355073415162659
3.7821782178217824,6.209906202469132
3.801980198019802,6.075345343776749
3.8217821782178216,5.952661538794837
3.841584158415842,5.843104877269263
3.8613861386138613,5.747873452376013
3.881188118811881,5.6680775800583305
3.9009900990099013,5.6047013938012205
3.9207920792079207,5.558564399785747
3.9405940594059405,5.530286196239801
3.96039603960396,5.520257782115373
3.98019801980198,5.528622554703557
4.0,5.555269194613648
4.01980198019802,5.599837288756534
4.03960396039604,5.661735013862451
4.0594059405940595,5.740166819221483
4.079207920792079,5.834168085519739
4.099009900990099,5.94264334378682
4.118811881188119,6.064404802770317
4.138613861386139,6.1982085158217926
4.158415841584159,6.342786320966359
4.178217821782178,6.496872519490683
4.198019801980198,6.659224980713287
4.217821782178218,6.828640901756834
4.237623762376238,7.003967796984738
4.257425742574258,7.1841104661068735
4.2772277227722775,7.368034734295605
4.297029702970297,7.554768715988955
4.316831683168317,7.743402264187423
4.336633663366336,7.93308515718421
4.356435643564357,8.123024463454056
4.376237623762377,8.312481423647231
4.3960396039603955,8.500768101374659
4.415841584158416,8.687243983099851
4.435643564356436,8.8713126511879
4.455445544554455,9.052418611151575
4.475247524752476,9.230044322151391
4.4950495049504955,9.403707456655658
4.514851485148514,9.572958398876965
4.534653465346535,9.737377980514138
4.554455445544555,9.896575445100225
4.574257425742574,10.05018662783186
4.594059405940594,10.197872335325545
4.613861386138614,10.339316908704227
4.633663366336633,10.474226953313888
4.653465346534653,10.6023302188793
4.673267326732674,10.72337461479686
4.693069306930693,10.837127346367694
4.712871287128713,10.943374158981804
4.732673267326733,11.041918678500876
4.752475247524752,11.132581837302023
4.772277227722772,11.215201376609034
4.792079207920793,11.289631416834835
4.811881188118812,11.355742088680044
4.8316831683168315,11.41341921867787
4.851485148514852,11.462564063747038
4.871287128712871,11.50309309011699
4.891089108910891,11.534937792730124
4.910891089108912,11.55804455191351
4.930693069306931,11.572374524752197
4.9504950495049505,11.577903569200739
4.97029702970297,11.574622199542272
4.99009900990099,11.562535572359092
5.00990099009901,11.541663502717743
5.02970297029703,11.512040510808943
5.0495049504950495,11.473715899821576
5.069306930693069,11.426753866382084
5.089108910891089,11.371233645462295
5.108910891089109,11.307249692259271
5.128712871287129,11.234911904187596
5.148514851485149,11.154345886807391
5.1683168316831685,11.065693268247337
5.188118811881188,10.969112067478996
5.207920792079208,10.864777122665195
5.227722772277227,10.752880586744181
5.247524752475248,10.633632498428874
5.267326732673268,10.507261437892932
5.2871287128712865,10.374015277579447
5.306930693069307,10.234162039784872
5.326732673267327,10.087990873916583
5.346534653465346,9.935813167547398
5.366336633663367,9.777963806526701
5.3861386138613865,9.614802600345733
5.405940594059405,9.446715889539318
5.425742574257426,9.274118351915169
5.445544554455446,9.09745502352133
5.465346534653465,8.91720354806161
5.485148514851486,8.733876664362647
5.504950495049505,8.54802493470281
5.524752475247524,8.360239706310884
5.544554455445545,8.171156282823919
5.564356435643565,7.981457260335475
5.584158415841584,7.791875951930055
5.603960396039604,7.60319978310084
5.623762376237624,7.416273485931071
5.643564356435643,7.232001850434503
5.663366336633663,7.051351705995185
5.683168316831684,6.875352705403239
5.702970297029703,6.705096373009171
5.7227722772277225,6.5417327668956915
5.742574257425743,6.3864640101762795
5.762376237623762,6.2405338954874985
5.782178217821782,6.105212796153929
5.801980198019803,5.981777271083017
5.821782178217822,5.871484071019572
5.841584158415841,5.775538768978696
5.861386138613861,5.695059940039442
5.881188118811881,5.631040642278474
5.900990099009901,5.584309771794832
5.920792079207921,5.555496494494316
5.9405940594059405,5.545001193464737
5.96039603960396,5.55297606108892
5.98019801980198,5.579317576349756
6.0,5.623671764987822
6.01980198019802,5.6854516073388615
6.03960396039604,5.763864561251988
6.0594059405940595,5.857947186919604
6.079207920792079,5.966603448713883
6.099009900990099,6.08864341886541
6.118811881188119,6.222819682789191
6.138613861386139,6.367859547508279
6.158415841584159,6.522491990564378
6.178217821782178,6.685469016267761
6.198019801980198,6.855581635095719
6.217821782178218,7.03167103482781
6.237623762376237,7.212635691654641
6.257425742574258,7.397435217349536
6.2772277227722775,7.5850916988735575
6.297029702970296,7.774689197667561
6.316831683168317,7.96537196597557
6.336633663366337,8.156341825823198
6.356435643564356,8.346855053775476
6.376237623762377,8.53621902656386
6.396039603960396,8.72378881057101
6.415841584158415,8.90896382125818
6.435643564356436,9.091184635076633
6.455445544554456,9.269930003996894
6.475247524752475,9.44471409930746
6.495049504950495,9.615083994794269
6.514851485148515,9.78061738814012
6.534653465346534,9.940920552019987
6.554455445544554,10.095626501848365
6.574257425742575,10.24439336463993
6.594059405940594,10.38690293235926
6.6138613861386135,10.522859383003972
6.633663366336634,10.651988153159996
6.653465346534653,10.774034946647332
6.673267326732673,10.888764864978048
6.693069306930694,10.995961646556955
6.712871287128713,11.095427002794873
6.732673267326732,11.186980040524672
6.752475247524753,11.270456761279862
6.772277227722772,11.345709629097524
6.792079207920792,11.412607199536081
6.811881188118813,11.471033803547883
6.8316831683168315,11.520889280724061
6.851485148514851,11.562088757236744
6.871287128712871,11.594562464548847
6.891089108910891,11.618255595653322
6.910891089108911,11.633128196248029
6.930693069306931,11.639155088859752
6.9504950495049505,11.636325828508097
6.97029702970297,11.624644689056224
6.99009900990099,11.604130679939006
7.00990099009901,11.574817593497942
7.02970297029703,11.536754083694275
7.0495049504950495,11.490003777526647
7.069306930693069,11.434645421053052
7.089108910891089,11.370773062520463
7.108910891089109,11.298496275744721
7.128712871287128,11.217940427568596
7.148514851485149,11.129246993964468
7.1683168316831685,11.032573930148803
7.188118811881187,10.928096100943922
7.207920792079208,10.816005778566405
7.227722772277228,10.696513216041945
7.247524752475247,10.569847305544418
7.267326732673268,10.436256332125255
7.287128712871287,10.29600883452335
7.306930693069306,10.149394585997968
7.326732673267327,9.996725709362181
7.346534653465347,9.83833794154041
7.366336633663366,9.674592063926278
7.3861386138613865,9.505875515417733
7.405940594059406,9.33260420503652
7.425742574257425,9.155224540184769
7.445544554455446,8.974215684423411
7.465346534653466,8.790092054592076
7.485148514851485,8.60340606034774
7.504950495049505,8.414751078759583
7.524752475247524,8.224764641154326
7.544554455445544,8.034131787336522
7.564356435643565,7.843588511671643
7.584158415841584,7.653925184122724
7.603960396039604,7.4659897749058395
7.623762376237624,7.2806906419966415
7.643564356435643,7.098998555233843
7.663366336633663,6.921947530136267
7.683168316831684,6.750633933135361
7.702970297029703,6.586213207472098
7.7227722772277225,6.429893472845256
7.742574257425743,6.2829251987971935
7.762376237623762,6.1465861784229325
7.782178217821782,6.022161179115104
7.801980198019803,5.910915963964524
7.821782178217822,5.814065889604561
7.841584158415841,5.732739987573763
7.861386138613862,5.6679422652760465
7.881188118811881,5.620512790960461
7.900990099009901,5.591091769064094
7.92079207920792,5.580090064225726
7.9405940594059405,5.587669338642527
7.96039603960396,5.613734090499373
7.980198019801979,5.657936541688606
8.0,5.719693783061295
8.01980198019802,5.798215171777096
8.03960396039604,5.892536973646178
8.05940594059406,6.001560811161314
8.07920792079208,6.124092612516474
8.099009900990099,6.258879324450699
8.118811881188119,6.4046414535329435
8.138613861386139,6.5601003421482105
8.158415841584159,6.723999823500772
8.178217821782178,6.895122457960654
8.198019801980198,7.072300913727011
8.217821782178218,7.2544252403245295
8.237623762376238,7.440446835110196
8.257425742574258,7.629379865262276
8.277227722772277,7.820300819280631
8.297029702970297,8.012346751914135
8.316831683168317,8.204712674010477
8.336633663366337,8.396648435366574
8.356435643564357,8.587455359670916
8.376237623762377,8.776482817644085
8.396039603960396,8.963124866814962
8.415841584158416,9.14681704219589
8.435643564356436,9.327033349211597
8.455445544554456,9.503283486366294
8.475247524752476,9.675110308302584
8.495049504950495,9.842087528418723
8.514851485148515,10.003817652694037
8.534653465346535,10.159930131744623
8.554455445544555,10.310079715563429
8.574257425742575,10.453944994265463
8.594059405940595,10.591227107998758
8.613861386138613,10.7216486096588
8.633663366336634,10.844952464917462
8.653465346534654,10.960901175179504
8.673267326732672,11.069276010291013
8.693069306930694,11.16987633906974
8.712871287128714,11.262519046954013
8.732673267326732,11.347038031243935
8.752475247524753,11.42328376551955
8.772277227722773,11.491122925855485
8.792079207920791,11.550438072409905
8.811881188118813,11.601127380849654
8.831683168316832,11.643104418887198
8.85148514851485,11.676297963957337
8.871287128712872,11.700651858757707
8.891089108910892,11.716124902027717
8.91089108910891,11.722690772551772
8.930693069306932,11.720337984955108
8.950495049504951,11.709069876420386
8.97029702970297,11.688904624001257
8.990099009900991,11.659875292750963
9.00990099009901,11.622029915430694
9.029702970297029,11.575431605119682
9.04950495049505,11.52015870262705
9.06930693069307,11.456304961211915
9.089108910891088,11.383979771761329
9.10891089108911,11.303308432264748
9.12871287128713,11.214432466166391
9.148514851485148,11.11750999498174
9.16831683168317,11.012716171437676
9.188118811881187,10.900243680344825
9.207920792079207,10.78030331543708
9.227722772277229,10.653124641517715
9.247524752475247,10.518956752427757
9.267326732673267,10.378069136584957
9.287128712871288,10.230752663104225
9.306930693069306,10.077320702757229
9.326732673267326,9.918110399189324
9.346534653465348,9.753484106780455
9.366336633663366,9.583831012158052
9.386138613861386,9.409568956422842
9.405940594059407,9.231146474322344
9.425742574257425,9.049045064472779
9.445544554455445,8.86378170070394
9.465346534653467,8.675911587906475
9.485148514851485,8.486031155374741
9.504950495049505,8.294781265255736
9.524752475247526,8.102850591708826
9.544554455445544,7.910979095807461
9.564356435643564,7.719961479865897
9.584158415841586,7.530650450465406
9.603960396039604,7.343959549972568
9.623762376237623,7.16086523068909
9.643564356435645,6.982407744785191
9.663366336633663,6.809690311097919
9.683168316831683,6.643875906341125
9.702970297029704,6.486180930462162
9.722772277227723,6.337864940448372
9.742574257425742,6.200215670458011
9.762376237623764,6.074528702744026
9.782178217821782,5.962081467240762
9.801980198019802,5.864101757346151
9.821782178217823,5.7817316506174725
9.841584158415841,5.715988555982449
9.861386138613861,5.667725946463108
9.881188118811881,5.637596992573768
9.900990099009901,5.626024581084656
9.92079207920792,5.633180927234677
9.94059405940594,5.658979123022837
9.96039603960396,5.703077626291213
9.98019801980198,5.764897145283203
10.0,5.843647939896332
10.01980198019802,5.938364534686339
10.03960396039604,6.047944383521874
10.05940594059406,6.171187144053887
10.07920792079208,6.306831780429881
10.099009900990099,6.453589515787933
10.118811881188119,6.610171505190334
10.138613861386139,6.775310848197543
10.158415841584159,6.947779129016978
10.178217821782178,7.126398041942194
10.198019801980198,7.310046852053685
10.217821782178218,7.4976664970458184
10.237623762376238,7.688261100473532
10.257425742574258,7.880897578866643
10.277227722772277,8.074703914650255
10.297029702970297,8.268866553450865
10.316831683168317,8.462627279789555
10.336633663366337,8.655279835000075
10.356435643564357,8.846166467149365
10.376237623762377,9.034674544146693
10.396039603960396,9.220233316300236
10.415841584158416,9.402310881074177
10.435643564356436,9.580411378473132
10.455445544554454,9.754072428306868
10.475247524752476,9.922862808851832
10.495049504950495,10.086380368731028
10.514851485148514,10.244250159082648
10.534653465346535,10.39612277043709
10.554455445544555,10.54167285753547
10.574257425742573,10.68059783513131
10.594059405940595,10.81261672827711
10.613861386138614,10.93746916146552
10.633663366336632,11.054914472096435
10.653465346534654,11.164730934959334
10.673267326732674,11.266715085672608
10.693069306930692,11.360681132258426
10.712871287128714,11.44646044521905
10.732673267326733,11.523901117601127
10.752475247524751,11.592867587580203
10.772277227722773,11.653240317064835
10.792079207920793,11.704915520713444
10.81188118811881,11.747804940578558
