Frequency (Hz),Amplitude
0.0,0.21585763888325893
0.020066889632107024,0.21607933599262935
0.04013377926421405,0.21674218631431713
0.060200668896321065,0.21783953839901218
0.0802675585284281,0.2193605394790215
0.10033444816053512,0.22129046617386652
0.12040133779264213,0.2236111525995581
0.14046822742474915,0.22630148662230493
0.1605351170568562,0.22933794336827248
0.1806020066889632,0.23269512665139458
0.20066889632107024,0.23634629299532214
0.22073578595317725,0.2402638384546308
0.24080267558528426,0.24441973453261592
0.2608695652173913,0.24878590535543207
0.2809364548494983,0.2533345433431126
0.3010033444816054,0.25803836462479646
0.3210702341137124,0.2628708083040462
0.34113712374581934,0.26780618547145196
0.3612040133779264,0.27281978475948326
0.3812709030100334,0.2778879414449361
0.4013377926421405,0.28298807683303867
0.42140468227424743,0.28809871408202165
0.4414715719063545,0.29319947588935985
0.4615384615384615,0.2982710686659469
0.4816053511705685,0.3032952570432553
0.5016722408026756,0.3082548318341741
0.5217391304347826,0.3131335739259764
0.5418060200668896,0.31791621603020537
0.5618729096989966,0.3225884037515362
0.5819397993311036,0.32713665705727196
0.6020066889632107,0.33154833292382124
0.6220735785953176,0.335811589694724
0.6421404682274248,0.3399153534972926
0.6622073578595318,0.3438492869216253
0.6822742474916387,0.3476037600587126
0.7023411371237458,0.3511698239153873
0.7224080267558528,0.3545391861688432
0.7424749163879598,0.35770418918428115
0.7625418060200668,0.3606577901955018
0.7826086956521738,0.36339354353322956
0.802675585284281,0.36590558477971946
0.8227424749163879,0.3681886167272555
0.8428093645484949,0.3702378970212842
0.862876254180602,0.372049227375293
0.882943143812709,0.3736189442529377
0.903010033444816,0.3749439109223596
0.923076923076923,0.37602151079881463
0.9431438127090299,0.3768496420023276
0.963210702341137,0.3774267130693595
0.983277591973244,0.3777516397685631
1.0033444816053512,0.3778238429829551
1.0234113712374582,0.37764324763242346
1.0434782608695652,0.37721028262238304
1.0635451505016722,0.3765258818160335
1.0836120401337792,0.3755914860393581
1.1036789297658862,0.374409046139907
1.1237458193979932,0.3729810271316315
1.1438127090301002,0.3713104134699845
1.1638795986622072,0.36940071551256753
1.1839464882943145,0.3672559772319124
1.2040133779264215,0.36488078525789924
1.2240802675585283,0.3622802793369644
1.2441471571906353,0.3594601643052037
1.2642140468227423,0.356426723679307
1.2842809364548495,0.3531868349758449
1.3043478260869565,0.3497479868714012
1.3244147157190636,0.346118298315621
1.3444816053511706,0.34230653970153924
1.3645484949832773,0.33832215618462724
1.3846153846153846,0.334175293217048
1.4046822742474916,0.3298768243279163
1.4247491638795986,0.32543838112664875
1.4448160535117056,0.3208723854327496
1.4648829431438126,0.3161920833337373
1.4849498327759196,0.31141158083954695
1.5050167224080266,0.30654588062565985
1.5250836120401337,0.301610919132594
1.5451505016722407,0.29662360300578783
1.5652173913043477,0.2916018435077747
1.5852842809364547,0.2865645871065562
1.605351170568562,0.2815318399337793
1.625418060200669,0.27652468321406976
1.6454849498327757,0.2715652760986035
1.6655518394648827,0.2666768416155586
1.6856187290969897,0.26188363071118825
1.705685618729097,0.257210858665423
1.725752508361204,0.25268460761275585
1.745819397993311,0.2483316886104267
1.765886287625418,0.24417945682826456
1.7859531772575248,0.24025557417243457
1.806020066889632,0.23658771518565083
1.826086956521739,0.2332032145556627
1.846153846153846,0.23012865809965966
1.866220735785953,0.22738942363689635
1.8862876254180598,0.22500918348738122
1.9063545150501673,0.22300938598832504
1.926421404682274,0.2214087387239217
1.9464882943143813,0.22022272027482837
1.966555183946488,0.21946314933974614
1.9866220735785953,0.21913783934275446
2.0066889632107023,0.2192503627561856
2.026755852842809,0.21979994249070928
2.0468227424749164,0.22078147854005647
2.0668896321070234,0.22218570778912353
2.0869565217391304,0.22399948490671678
2.1070234113712374,0.22620616389044196
2.1270903010033444,0.22878605411530967
2.1471571906354514,0.23171692214230247
2.1672240802675584,0.234974510998154
2.1872909698996654,0.23853305161350352
2.2073578595317724,0.2423657457978975
2.2274247491638794,0.24644520565827377
2.2474916387959865,0.25074383994552335
2.267558528428094,0.2552341828537533
2.2876254180602005,0.2598891649396155
2.3076923076923075,0.26468232893169347
2.3277591973244145,0.26958799528204
2.3478260869565215,0.27458138349929134
2.367892976588629,0.27963869577475237
2.3879598662207355,0.28473716935637533
2.408026755852843,0.2898551037173882
2.4280936454849495,0.2949718679485552
2.4481605351170566,0.3000678930878994
2.468227424749164,0.30512465336886807
2.4882943143812706,0.31012463966734943
2.508361204013378,0.315051327792277
2.5284280936454846,0.31988914370701965
2.548494983277592,0.32462342729370797
2.568561872909699,0.3292403958777635
2.5886287625418056,0.3337271084074569
2.608695652173913,0.3380714309250265
2.6287625418060196,0.3422620037627176
2.648829431438127,0.3462882107395445
2.668896321070234,0.3501401505146225
2.688963210702341,0.35380861016362747
2.709030100334448,0.35728504097973124
2.7290969899665547,0.3605615364542965
2.749163879598662,0.3636308123614357
2.769230769230769,0.3664861888509079
2.789297658862876,0.3691215744425577
2.809364548494983,0.3715314518112764
2.82943143812709,0.3737108652514555
2.849498327759197,0.37565540971410527
2.869565217391304,0.3773612213158661
2.8896321070234112,0.37882496922747144
2.9096989966555182,0.3800438488584454
2.9297658862876252,0.3810155762650532
2.9498327759197323,0.38173838371889257
2.9698996655518393,0.3822110163847452
2.9899665551839463,0.3824327300669157
3.0100334448160533,0.3824032899945838
3.0301003344481603,0.3821229706276409
3.0501672240802673,0.3815925564752878
3.0702341137123748,0.3808133439307131
3.0903010033444813,0.3797871441356531
3.1103678929765888,0.378516286899216
3.1304347826086953,0.37700362570584817
3.1505016722408024,0.3752525438569395
3.1705685618729094,0.3732669618003883
3.1906354515050164,0.37105134571135145
3.210702341137124,0.3686107173952284
3.2307692307692304,0.36595066559108047
3.250836120401338,0.3630773587584153
3.270903010033445,0.35999755943326034
3.2909698996655514,0.35671864023900546
3.311036789297659,0.3532486016326491
3.3311036789297654,0.34959609145702014
3.351170568561873,0.3457704263516682
3.3712374581939795,0.3417816150482451
3.391304347826087,0.3376403835363608
3.411371237458194,0.33335820203151867
3.4314381270903005,0.32894731360183377
3.451505016722408,0.3244207642119392
3.471571906354515,0.31979243381424
3.491638795986622,0.31507706795322094
3.511705685618729,0.3102903091423794
3.531772575250836,0.305448727016891
3.551839464882943,0.3005698459533239
3.5719063545150496,0.2956721684740194
3.591973244147157,0.2907751923173768
3.612040133779264,0.28589941855615647
3.632107023411371,0.2810663475956611
3.652173913043478,0.27629845930096325
3.672240802675585,0.27161917292244003
3.692307692307692,0.26705278196506654
3.712374581939799,0.26262435875403317
3.732441471571906,0.25835962328807555
3.752508361204013,0.2542847711636132
3.7725752508361197,0.25042625603676355
3.7926421404682276,0.2468105234054569
3.8127090301003346,0.24346369455669334
3.832775919732441,0.240411202395086
3.852842809364548,0.2376773845106209
3.872909698996655,0.23528504308345716
3.8929765886287626,0.23325498572673106
3.9130434782608696,0.2316055656342546
3.933110367892976,0.2303522428114725
3.953177257525083,0.2295071900687796
3.9732441471571907,0.22907896728789934
3.9933110367892977,0.22907228490759776
4.013377926421405,0.22948787264087342
4.033444816053511,0.23032246256070196
4.053511705685618,0.23156888766420985
4.073578595317726,0.23321628886105217
4.093645484949833,0.23525041607027244
4.113712374581939,0.23765400361474995
4.133779264214047,0.240407196901035
4.153846153846153,0.24348800659309727
4.173913043478261,0.24687276788612053
4.193979933110368,0.250536585549933
4.214046822742475,0.2544537494988406
4.234113712374581,0.2585981101200134
4.254180602006689,0.26294340692131507
4.274247491638796,0.2674635478654837
4.294314381270903,0.27213283982636843
4.314381270903009,0.2769261728686466
4.334448160535117,0.2818191625504286
4.354515050167224,0.2867882552864382
4.374581939799331,0.29181080211959065
4.394648829431437,0.2968651061739895
4.414715719063545,0.3019304487258663
4.434782608695651,0.3069870983382412
4.454849498327759,0.3120163069408522
4.474916387959866,0.3170002961567241
4.494983277591973,0.3219222366205867
4.5150501672240795,0.3267662225255415
4.535117056856188,0.3315172431838889
4.555183946488294,0.3361611530013016
4.575250836120401,0.34068464093773126
4.595317725752508,0.345075200259665
4.615384615384615,0.3493210991707715
4.635451505016722,0.3534113527336889
4.655518394648829,0.3573356963594137
4.6755852842809364,0.36108456103467546
4.695652173913043,0.36464905037774675
4.71571906354515,0.36802091955315147
4.735785953177258,0.3711925560325391
4.7558528428093645,0.3741569621583437
4.775919732441471,0.3769077394469118
4.795986622073578,0.37943907455502746
4.816053511705686,0.3817457268276983
4.8361204013377925,0.38382301734273555
4.856187290969899,0.38566681936952063
4.8762541806020065,0.3872735501634064
4.896321070234113,0.38864016402265944
4.916387959866221,0.3897641465423056
4.936454849498328,0.39064351000704944
4.956521739130435,0.391276789874231
4.976588628762541,0.3916630423063401
4.996655518394649,0.39180184272203367
5.016722408026756,0.39169328534387254
5.036789297658863,0.39133798372965317
5.056856187290969,0.39073707228376653
5.076923076923077,0.38989220875359815
5.096989966555184,0.38880557772440455
5.117056856187291,0.38747989513437536
5.137123745819398,0.3859184138392317
5.157190635451505,0.3841249302623113
5.177257525083611,0.38210379217243456
5.197324414715719,0.37985990763622546
5.217391304347826,0.37739875519498955
5.237458193979933,0.3747263953170523
5.257525083612039,0.3718494831748363
5.277591973244148,0.3687752827910234
5.297658862876254,0.36551168258753247
5.317725752508361,0.3620672123568487
5.337792642140468,0.35845106165117
5.357859531772575,0.3546730995534432
5.377926421404682,0.3507438957512032
5.397993311036789,0.3466747427762272
5.418060200668896,0.3424776791988803
5.438127090301003,0.3381655134708956
5.458193979933109,0.3337518479904643
5.478260869565218,0.32925110281558007
5.498327759197324,0.3246785382698236
5.518394648829431,0.3200502754671139
5.538461538461538,0.3153833135234987
5.558528428093646,0.3106955419244933
5.578595317725752,0.30600574617672816
5.598662207357859,0.3013336044976848
5.618729096989966,0.29669967289892585
5.638795986622073,0.2921253556158116
5.65886287625418,0.2876328574590414
5.678929765886288,0.28324511435374605
5.698996655518394,0.2789856981458561
5.719063545150501,0.2748786917623172
5.739130434782608,0.2709485310941339
5.759197324414716,0.26721981061620415
5.7792642140468224,0.26371705084764596
5.799331103678929,0.26046442735370545
5.8193979933110365,0.25748546311770953
5.839464882943144,0.25480268872662015
5.8595317725752505,0.2524372777921516
5.879598662207358,0.25040866814933754
5.8996655518394645,0.2487341823178617
5.919732441471571,0.24742866309481162
5.9397993311036785,0.24650414156309328
5.959866220735786,0.24596955489246286
5.9799331103678925,0.2458305298528617
5.999999999999999,0.24608924492289588
6.020066889632107,0.24674437946454633
6.040133779264214,0.2477911530785819
6.060200668896321,0.2492214525457517
6.080267558528428,0.25102403835308706
6.100334448160535,0.2531848183015957
6.120401337792642,0.2556871725363696
6.1404682274247495,0.2585123127525358
6.160535117056856,0.26163965829893254
6.180602006688963,0.26504721321037567
6.200668896321069,0.26871193050247666
6.2207357859531776,0.27261005295657964
6.240802675585284,0.2767174227195809
6.260869565217391,0.2810097550229089
6.280936454849498,0.2854628739592654
6.301003344481605,0.29005291041209286
6.321070234113712,0.2947564638657967
6.341137123745819,0.2995507309505421
6.361204013377926,0.3044136042539942
6.381270903010033,0.30932374524508666
6.40133779264214,0.3142606351863592
6.421404682274248,0.31920460774565096
6.441471571906354,0.3241368667228516
6.461538461538461,0.329039491941378
6.481605351170568,0.33389543595892834
6.501672240802676,0.3386885138583456
6.521739130434782,0.3434033880075821
6.54180602006689,0.3480255493388208
6.561872909698996,0.352541296397572
6.581939799331103,0.35693771315340256
6.60200668896321,0.3612026463452375
6.622073578595318,0.3653246829509184
6.642140468227424,0.36929312822136046
6.662207357859531,0.3730979845983208
6.682274247491639,0.37672993173789143
6.702341137123746,0.3801803077864231
6.722408026755852,0.383441091996269
6.742474916387959,0.38650488872453415
6.762541806020066,0.38936491282442215
6.782608695652174,0.3920149764152896
6.80267558528428,0.3944494770003913
6.822742474916388,0.3966633868908601
6.842809364548494,0.3986522438880798
6.862876254180601,0.4004121431737027
6.882943143812709,0.4019397303568423
6.903010033444816,0.40323219562953205
6.9230769230769225,0.40428726898539763
6.94314381270903,0.4051032164607953
6.963210702341137,0.40567883736321514
6.983277591973244,0.4060134624575278
7.0033444816053505,0.4061069530866183
7.023411371237458,0.4059597012096076
7.0434782608695645,0.4055726303465419
7.063545150501672,0.40494719742478796
7.083612040133779,0.40408539552774286
7.103678929765886,0.40298975755170846
7.123745819397993,0.4016633607811073
7.143812709030099,0.40010983239567743
7.1638795986622075,0.39833335592555313
7.183946488294314,0.3963386786710455
7.204013377926421,0.3941311201027412
7.224080267558528,0.391716581254099
7.2441471571906355,0.389101555112316
7.264214046822742,0.38629313800325576
7.2842809364548495,0.3832990419516845
7.304347826086956,0.38012760797769696
7.324414715719063,0.3767878202639893
7.34448160535117,0.3732893210930708
7.364548494983278,0.3696424264093705
7.384615384615384,0.36585814180471876
7.404682274247491,0.3619481786558731
7.424749163879598,0.35792497005750057
7.444816053511706,0.35380168609033563
7.464882943143812,0.34959224784111614
7.48494983277592,0.3453113394451878
7.505016722408026,0.34097441725475863
7.525083612040134,0.33659771504394387
7.545150501672239,0.3321982439485974
7.565217391304348,0.32779378560727895
7.585284280936455,0.32340287672739076
7.605351170568561,0.3190447830576627
7.625418060200669,0.31473946052125273
7.645484949832775,0.3105075010758101
7.665551839464882,0.306370060745083
7.685618729096991,0.3023487672494357
7.705685618729096,0.298465604789087
7.725752508361204,0.2947427738517145
7.74581939799331,0.2912025244687365
7.765886287625418,0.2878669621708746
7.785953177257525,0.2847578270167209
7.806020066889631,0.28189624748615383
7.826086956521739,0.279302472706134
7.846153846153847,0.2769955883297132
7.866220735785952,0.2749932232907606
7.88628762541806,0.2733112564337264
7.906354515050166,0.2719635334653108
7.926421404682274,0.270961605578606
7.946488294314381,0.27031450127086687
7.966555183946488,0.2700285421819741
7.986622073578595,0.27010721218303835
8.006688963210701,0.2705510865161144
8.02675585284281,0.27135782471412156
8.046822742474916,0.2725222275965458
8.066889632107022,0.2740363551770796
8.08695652173913,0.275889699175248
8.107023411371236,0.2780694012857033
8.127090301003344,0.2805605066286641
8.147157190635452,0.2833462409722857
8.167224080267557,0.28640830035715276
8.187290969899665,0.2897271425472395
8.207357859531772,0.2932822710955469
8.227424749163879,0.29705250453730675
8.247491638795987,0.3010162251008661
8.267558528428093,0.30515160317976303
8.2876254180602,0.3094367955041399
8.307692307692307,0.31385011639884597
8.327759197324415,0.3183701826764418
8.347826086956522,0.32297603357935695
8.367892976588628,0.3276472277767733
8.387959866220736,0.33236391977368446
8.408026755852843,0.33710691824649086
8.42809364548495,0.34185772882568843
8.448160535117056,0.3465985837443086
8.468227424749163,0.35131246059678967
8.488294314381271,0.3559830922361722
8.508361204013378,0.3605949696018867
8.528428093645484,0.3651333390320197
8.548494983277592,0.3695841953845272
8.568561872909697,0.3739342720793715
8.588628762541806,0.3781710289815026
8.608695652173914,0.38228263887505753
8.628762541806019,0.386257973132487
8.648829431438127,0.3900865870568518
8.668896321070234,0.3937587052701501
8.68896321070234,0.3972652074331347
8.709030100334449,0.4005976145102858
8.729096989966555,0.4037480757353962
8.749163879598662,0.406709356386838
8.769230769230768,0.4094748264448642
8.789297658862875,0.41203845017478274
8.809364548494983,0.4143947766580712
8.82943143812709,0.4165389312774754
8.849498327759196,0.41846660815022996
8.869565217391303,0.420174063495703
8.889632107023411,0.42165810991840813
8.909698996655518,0.4229161115845451
8.929765886287624,0.42394598026897357
8.949832775919733,0.424746172249694
8.96989966555184,0.42531568602811193
8.989966555183946,0.4256540608549105
9.010033444816054,0.42576137604380054
9.030100334448159,0.425638251057379
9.050167224080267,0.42528584635188305
9.070234113712376,0.4247058649692462
9.09030100334448,0.42390055486660494
9.110367892976589,0.42287271197393705
9.130434782608695,0.42162568397039313
9.150501672240802,0.4201633747685331
9.17056856187291,0.4184902496924382
9.190635451505017,0.4166113413313205
9.210702341137123,0.41453225604254273
9.23076923076923,0.4122591810687752
9.250836120401337,0.40979889222020294
9.270903010033445,0.4071587620562369
9.290969899665551,0.4043467684791315
9.311036789297658,0.4013715036251357
9.331103678929765,0.3982421829052377
9.351170568561873,0.39496865400743064
9.37123745819398,0.39156140562355995
9.391304347826086,0.38803157560612295
9.411371237458194,0.38439095819262015
9.4314381270903,0.3806520098565867
9.451505016722408,0.37682785325435714
9.471571906354516,0.37293227863535083
9.49163879598662,0.36897974197170036
9.511705685618729,0.364985358941349
9.531772575250837,0.36096489377039526
9.551839464882942,0.35693474180984813
9.57190635451505,0.3529119045940432
9.591973244147155,0.34891395601305114
9.612040133779264,0.34495899813827446
9.632107023411372,0.3410656051849427
9.652173913043477,0.3372527540923911
9.672240802675585,0.333539740272926
9.692307692307692,0.32994607724229424
9.712374581939798,0.3264913791201994
9.732441471571907,0.32319522539606205
9.752508361204013,0.320077007905579
9.77257525083612,0.3171557606623691
9.792642140468226,0.31444997402699304
9.812709030100335,0.3119773956477622
9.832775919732441,0.3097548216305925
9.852842809364548,0.3077978824244081
9.872909698996656,0.3061208288632257
9.89297658862876,0.3047363245925537
9.91304347826087,0.30365525162928086
9.933110367892976,0.30288653597315884
9.953177257525082,0.302436999939117
9.97324414715719,0.30231124718217983
9.993311036789297,0.3025115852557201
10.013377926421404,0.3030379890405296
10.033444816053512,0.30388810661344134
10.053511705685617,0.30505730722962876
10.073578595317725,0.3065387692268616
10.093645484949834,0.30832360397521935
10.113712374581938,0.3104010106193737
10.133779264214047,0.31275845538411895
10.153846153846153,0.3153818686795445
10.17391304347826,0.31825585314782207
10.193979933110368,0.3213638960945485
10.214046822742475,0.32468858036763143
10.234113712374581,0.3282117885954251
10.254180602006688,0.3319148966767705
10.274247491638796,0.3357789534389887
10.294314381270903,0.33978484437260686
10.31438127090301,0.3439134382566924
10.334448160535118,0.3481457162702296
10.354515050167223,0.35246288382475593
10.37458193979933,0.3568464658472328
10.394648829431437,0.36127838659820205
10.414715719063544,0.36574103534298225
10.434782608695652,0.37021731932155166
10.454849498327757,0.3746907055075581
10.474916387959865,0.37914525262577914
10.494983277591974,0.3835656348311259
10.515050167224079,0.3879371583532836
10.535117056856187,0.39224577229464114
10.555183946488295,0.39647807464295187
10.5752508361204,0.40062131443307486
10.595317725752508,0.40466339086863995
10.615384615384615,0.40859285009883134
