Frequency (Hz),Amplitude
0.0,2.024282219374369
0.019801980198019802,2.024110799174477
0.039603960396039604,2.023597131023832
0.0594059405940594,2.0227429910921098
0.07920792079207921,2.021551335729908
0.09900990099009901,2.0200262955455472
0.1188118811881188,2.0181731670625207
0.13861386138613863,2.015998401908275
0.15841584158415842,2.013509593471158
0.1782178217821782,2.0107154609496143
0.19801980198019803,2.007625830705253
0.21782178217821782,2.00425161481983
0.2376237623762376,2.0006047867458863
0.25742574257425743,1.9966983539314453
0.27722772277227725,1.9925463272914756
0.297029702970297,1.9881636873929793
0.31683168316831684,1.9835663472167937
0.33663366336633666,1.978771111357822
0.3564356435643564,1.9737956315271046
0.37623762376237624,1.968658358223772
0.39603960396039606,1.9633784884535765
0.4158415841584158,1.957975909383133
0.43564356435643564,1.9524711378361135
0.45544554455445546,1.9468852555595981
0.4752475247524752,1.9412398402159292
0.495049504950495,1.9355568920883328
0.5148514851485149,1.9298587565268444
0.5346534653465347,1.924168042205779
0.5544554455445545,1.9185075353138303
0.5742574257425742,1.912900109854173
0.594059405940594,1.907368634292825
0.613861386138614,1.9019358748595105
0.6336633663366337,1.8966243958750242
0.6534653465346534,1.891456457551735
0.6732673267326733,1.886453911787893
0.6930693069306931,1.881638096550728
0.7128712871287128,1.8770297295156477
0.7326732673267327,1.8726488016974367
0.7524752475247525,1.8685144718725835
0.7722772277227723,1.8646449626463997
0.7920792079207921,1.8610574590637174
0.8118811881188118,1.857768010694331
0.8316831683168316,1.8547914381424837
0.8514851485148516,1.852141244932414
0.8712871287128713,1.849829535706754
0.891089108910891,1.8478669416417544
0.9108910891089109,1.8462625539316933
0.9306930693069307,1.8450238661252025
0.9504950495049505,1.844156726008688
0.9702970297029703,1.843665297628969
0.99009900990099,1.8435520339297808
1.00990099009901,1.843817660348048
1.0297029702970297,1.8444611695783903
1.0495049504950495,1.8454798275722186
1.0693069306930694,1.8468691906932735
1.0891089108910892,1.8486231338098371
1.108910891089109,1.8507338889669718
1.1287128712871286,1.8531920941545708
1.1485148514851484,1.8559868515709241
1.1683168316831685,1.859105794679796
1.188118811881188,1.8625351632734597
1.2079207920792079,1.866259885686118
1.227722772277228,1.8702636672525934
1.2475247524752475,1.8745290840757844
1.2673267326732673,1.87903768115346
1.2871287128712872,1.8837700739186642
1.3069306930693068,1.8887060522679076
1.3267326732673268,1.893824686184767
1.3465346534653466,1.8991044321123725
1.3663366336633662,1.9045232392839024
1.3861386138613863,1.910058655283393
1.405940594059406,1.915687930178302
1.4257425742574257,1.9213881186374533
1.4455445544554455,1.9271361795221533
1.4653465346534653,1.9329090725118567
1.4851485148514851,1.9386838513980316
1.504950495049505,1.9444377537488966
1.5247524752475248,1.9501482867130313
1.5445544554455446,1.9557933087901866
1.5643564356435644,1.961351107452792
1.5841584158415842,1.9668004725511383
1.6039603960396038,1.9721207654788218
1.6237623762376237,1.977291984112857
1.6435643564356437,1.9822948235748803
1.6633663366336633,1.9871107328864595
1.683168316831683,1.9917219676129487
1.7029702970297032,1.9961116386066948
1.7227722772277227,2.00026375697262
1.7425742574257426,2.004163275387127
1.7623762376237624,2.007796125905748
1.782178217821782,2.0111492543960887
1.801980198019802,2.014210651731061
1.8217821782178218,2.01696938187325
1.8415841584158414,2.0194156069751346
1.8613861386138615,2.021540609611882
1.881188118811881,2.0233368122539424
1.900990099009901,2.0247977940759037
1.920792079207921,2.0259183051862775
1.9405940594059405,2.026694278350218
1.9603960396039604,2.0271228382638387
1.98019801980198,2.027202308424828
2.0,2.026932215629893
2.01980198019802,2.0263132921147506
2.0396039603960396,2.0253474753377234
2.0594059405940595,2.024037905392943
2.0792079207920793,2.0223889200242806
2.099009900990099,2.0204060471962455
2.118811881188119,2.018095995163379
2.1386138613861387,2.0154666399653527
2.1584158415841586,2.012527010261069
2.1782178217821784,2.0092872694017228
2.1980198019801978,2.0057586946302712
2.217821782178218,2.0019536532832625
2.237623762376238,1.9978855758606546
2.257425742574257,1.9935689258205564
2.2772277227722775,1.9890191659488594
2.297029702970297,1.9842527211489993
2.3168316831683167,1.979286937494997
2.336633663366337,1.9741400373916604
2.3564356435643563,1.9688310706902528
2.376237623762376,1.9633798616159956
2.3960396039603964,1.9578069513764722
2.4158415841584158,1.952133536337432
2.4356435643564356,1.9463814016752836
2.455445544554456,1.9405728504440736
2.4752475247524752,1.9347306280295828
2.495049504950495,1.9288778420039685
2.514851485148515,1.9230378774422028
2.5346534653465347,1.9172343078155962
2.5544554455445545,1.9114908016381968
2.5742574257425743,1.9058310251085537
2.594059405940594,1.900278541061071
2.6138613861386135,1.8948567046178701
2.633663366336634,1.8895885560117516
2.6534653465346536,1.8844967111328415
2.673267326732673,1.8796032504334506
2.6930693069306932,1.8749296069061512
2.712871287128713,1.8704964539264506
2.7326732673267324,1.8663235938218723
2.7524752475247527,1.86242984809049
2.7722772277227725,1.8588329502426661
2.792079207920792,1.855549442276157
2.811881188118812,1.8525945758159827
2.8316831683168315,1.849982218953547
2.8514851485148514,1.847724769803487
2.8712871287128716,1.8458330777606367
2.891089108910891,1.8443163733823698
2.910891089108911,1.843182207744563
2.9306930693069306,1.8424364020225554
2.9504950495049505,1.842083007934033
2.9702970297029703,1.8421242795508084
2.99009900990099,1.8425606568439965
3.00990099009901,1.8433907611755282
3.0297029702970297,1.8446114027918803
3.0495049504950495,1.8462176002178912
3.0693069306930694,1.8482026112928853
3.089108910891089,1.8505579754426509
3.108910891089109,1.8532735666424025
3.128712871287129,1.856337656401042
3.148514851485148,1.8597369859886652
3.1683168316831685,1.8634568470390749
3.1881188118811883,1.86748116958892
3.2079207920792077,1.871792616565264
3.227722772277228,1.876372683704057
3.2475247524752473,1.8812018038726135
3.267326732673267,1.8862594547784135
3.2871287128712874,1.8915242690727212
3.3069306930693068,1.896974145898816
3.3267326732673266,1.902586362988294
3.346534653465347,1.9083376884732743
3.366336633663366,1.9142044916539833
3.386138613861386,1.9201628520386584
3.4059405940594063,1.9261886660528955
3.4257425742574257,1.932257750897035
3.4455445544554455,1.9383459451106222
3.4653465346534653,1.944429205480892
3.485148514851485,1.9504837000066277
3.504950495049505,1.9564858966980745
3.5247524752475248,1.9624126480574287
3.5445544554455446,1.9682412711422779
3.564356435643564,1.9739496231656253
3.5841584158415842,1.9795161726310366
3.603960396039604,1.9849200660398685
3.6237623762376234,1.990141190239743
3.6435643564356437,1.995160230509673
3.6633663366336635,1.999958724497892
3.683168316831683,2.004519112144107
3.702970297029703,2.008824781728559
3.722772277227723,2.0128601121972465
3.7425742574257423,2.016610511915262
3.762376237623762,2.0200624540000374
3.7821782178217824,2.02320350838303
3.801980198019802,2.026022370742533
3.8217821782178216,2.028508888442624
3.841584158415842,2.030654083603599
3.8613861386138613,2.032450173418067
3.881188118811881,2.033890587814601
3.9009900990099013,2.0349699845573843
3.9207920792079207,2.035684261856069
3.9405940594059405,2.0360305685451063
3.96039603960396,2.036007311876332
3.98019801980198,2.0356141629525775
4.0,2.03485205981392
4.01980198019802,2.033723208171434
4.03960396039604,2.0322310797668193
4.0594059405940595,2.0303804083191994
4.079207920792079,2.028177183003765
4.099009900990099,2.0256286393900864
4.118811881188119,2.022743247751456
4.138613861386139,2.0195306986402892
4.158415841584159,2.016001885609167
4.178217821782178,2.012168884941831
4.198019801980198,2.008044932244605
4.217821782178218,2.0036443957356473
4.237623762376238,1.9989827460582323
4.257425742574258,1.9940765224346344
4.2772277227722775,1.9889432949700334
4.297029702970297,1.9836016229113784
4.316831683168317,1.9780710086648803
4.336633663366336,1.9723718473784448
4.356435643564357,1.966525371902244
4.376237623762377,1.9605535929526143
4.3960396039603955,1.9544792343220103
4.415841584158416,1.9483256630015588
4.435643564356436,1.9421168141132756
4.455445544554455,1.9358771105870014
4.475247524752476,1.9296313775625586
4.4950495049504955,1.9234047515515549
4.514851485148514,1.9172225844546709
4.534653465346535,1.911110342600498
4.554455445544555,1.9050935010491308
4.574257425742574,1.8991974334886186
4.594059405940594,1.8934472981428145
4.613861386138614,1.8878679202047477
4.633663366336633,1.882483671408074
4.653465346534653,1.8773183474487416
4.673267326732674,1.8723950440672323
4.693069306930693,1.8677360326957364
4.712871287128713,1.8633626366618616
4.732673267326733,1.8592951090173238
4.752475247524752,1.8555525131237776
4.772277227722772,1.8521526071753653
4.792079207920793,1.849111733865569
4.811881188118812,1.8464447164124271
4.8316831683168315,1.8441647621389927
4.851485148514852,1.842283374763572
4.871287128712871,1.8408102764865528
4.891089108910891,1.8397533408677593
4.910891089108912,1.8391185373711323
4.930693069306931,1.8389098883148296
4.9504950495049505,1.8391294388070976
4.97029702970297,1.8397772400755954
4.99009900990099,1.8408513464142724
5.00990099009901,1.842347825782807
5.02970297029703,1.8442607839035634
5.0495049504950495,1.846582401515625
5.069306930693069,1.8493029842691875
5.089108910891089,1.8524110245815106
5.108910891089109,1.8558932746311618
5.128712871287129,1.859734829544
5.148514851485149,1.8639192197243508
5.1683168316831685,1.8684285112098247
5.188118811881188,1.873243412878402
5.207920792079208,1.8783433893118462
5.227722772277227,1.8837067781187269
5.247524752475248,1.8893109105417571
5.267326732673268,1.8951322342152737
5.2871287128712865,1.9011464369969577
5.306930693069307,1.9073285708699776
5.326732673267327,1.9136531749950314
5.346534653465346,1.9200943970823903
5.366336633663367,1.9266261123501012
5.3861386138613865,1.9332220394320805
5.405940594059405,1.9398558526974468
5.425742574257426,1.9465012905373766
5.445544554455446,1.953132259266503
5.465346534653465,1.9597229323710246
5.485148514851486,1.966247844913979
5.504950495049505,1.9726819829793303
5.524752475247524,1.979000868099444
5.544554455445545,1.985180636665928
5.564356435643565,1.9911981143709105
5.584158415841584,1.9970308857654198
5.603960396039604,2.0026573590538312
5.623762376237624,2.0080568262686307
5.643564356435643,2.0132095189888948
5.663366336633663,2.01809665977932
5.683168316831684,2.0227005095347454
5.702970297029703,2.027004410918999
5.7227722772277225,2.030992828086609
5.742574257425743,2.03465138287226
5.762376237623762,2.0379668876263928
5.782178217821782,2.0409273748661914
5.801980198019803,2.0435221239002677
5.821782178217822,2.045741684572298
5.841584158415841,2.0475778982548594
5.861386138613861,2.0490239162090758
5.881188118811881,2.0500742154094618
5.900990099009901,2.0507246119160976
5.920792079207921,2.05097227185851
5.9405940594059405,2.0508157200772845
5.96039603960396,2.050254846450646
5.98019801980198,2.049290909914058
6.0,2.047926540161457
6.01980198019802,2.0461657369969646
6.03960396039604,2.044013867285887
6.0594059405940595,2.0414776594338333
6.079207920792079,2.0385651953024415
6.099009900990099,2.035285899450088
6.118811881188119,2.031650525565899
6.138613861386139,2.027671139945591
6.158415841584159,2.0233611018384527
6.178217821782178,2.018735040476177
6.198019801980198,2.0138088285768214
6.217821782178218,2.0085995521010434
6.237623762376237,2.0031254760235524
6.257425742574258,1.9974060058707268
6.2772277227722775,1.9914616447664681
6.297029702970296,1.9853139457227682
6.316831683168317,1.9789854589105031
6.336633663366337,1.972499673649718
6.356435643564356,1.9658809548686407
6.376237623762377,1.9591544737973037
6.396039603960396,1.9523461326857374
6.415841584158415,1.9454824833698474
6.435643564356436,1.9385906395500367
6.455445544554456,1.9316981827000717
6.475247524752475,1.9248330615864357
6.495049504950495,1.9180234854524925
6.514851485148515,1.911297811006611
6.534653465346534,1.904684423449341
6.554455445544554,1.8982116118807302
6.574257425742575,1.8919074395439863
6.594059405940594,1.8857996094844094
6.6138613861386135,1.8799153263305823
6.633663366336634,1.8742811550355882
6.653465346534653,1.8689228775464723
6.673267326732673,1.8638653484963128
6.693069306930694,1.8591323511315454
6.712871287128713,1.854746454792592
6.732673267326732,1.8507288753546447
6.752475247524753,1.8470993401027291
6.772277227722772,1.8438759585570004
6.792079207920792,1.841075100777043
6.811881188118813,1.8387112846548233
6.8316831683168315,1.8367970736528318
6.851485148514851,1.835342986356323
6.871287128712871,1.8343574190863603
6.891089108910891,1.8338465826660397
6.910891089108911,1.8338144542481842
6.930693069306931,1.8342627449038595
6.9504950495049505,1.8351908834425454
6.97029702970297,1.8365960166928896
6.99009900990099,1.8384730262250166
7.00990099009901,1.8408145612481828
7.02970297029703,1.8436110871786877
7.0495049504950495,1.846850949148985
7.069306930693069,1.8505204495260013
7.089108910891089,1.8546039383300326
7.108910891089109,1.8590839152991776
7.128712871287128,1.8639411422305947
7.148514851485149,1.8691547641506348
7.1683168316831685,1.8747024378210495
7.188118811881187,1.8805604660765525
7.207920792079208,1.886703936508373
7.227722772277228,1.8931068630554395
7.247524752475247,1.8997423291362039
7.267326732673268,1.906582631045179
7.287128712871287,1.9135994204453535
7.306930693069306,1.9207638449054658
7.326732673267327,1.9280466855564478
7.346534653465347,1.9354184910693983
7.366336633663366,1.9428497072853543
7.3861386138613865,1.950310801951666
7.405940594059406,1.957772384138268
7.425742574257425,1.9652053180181872
7.445544554455446,1.9725808307981256
7.465346534653466,1.9798706146765748
7.485148514851485,1.9870469227876288
7.504950495049505,1.9940826591587681
7.524752475247524,2.000951462770111
7.544554455445544,2.0076277858517835
7.564356435643565,2.0140869665952876
7.584158415841584,2.020305296485377
7.603960396039604,2.0262600824809986
7.623762376237624,2.0319297042889732
7.643564356435643,2.037293666982525
7.663366336633663,2.0423326492196656
7.683168316831684,2.0470285473145227
7.702970297029703,2.051364515408579
7.7227722772277225,2.055325001979458
7.742574257425743,2.0588957829124848
7.762376237623762,2.062063991345677
7.782178217821782,2.0648181444823894
7.801980198019803,2.067148167547888
7.821782178217822,2.069045415046907
7.841584158415841,2.070502689459348
7.861386138613862,2.071514257490317
7.881188118811881,2.0720758639694106
7.900990099009901,2.07218474347215
7.92079207920792,2.071839629714209
7.9405940594059405,2.0710407627462537
7.96039603960396,2.0697898939539785
7.980198019801979,2.0680902888445885
8.0,2.0659467275766836
8.01980198019802,2.0633655031663984
8.03960396039604,2.0603544172776616
8.05940594059406,2.0569227734793443
8.07920792079208,2.053081367826496
8.099009900990099,2.0488424765970423
8.118811881188119,2.0442198409894785
8.138613861386139,2.039228648561126
8.158415841584159,2.033885511160991
8.178217821782178,2.0282084390864052
8.198019801980198,2.022216811168608
8.217821782178218,2.015931340470379
8.237623762376238,2.009374035258433
8.257425742574258,2.0025681548965797
8.277227722772277,1.995538160291907
8.297029702970297,1.9883096585181141
8.316831683168317,1.9809093412373502
8.336633663366337,1.9733649165465628
8.356435643564357,1.965705033887314
8.376237623762377,1.9579592016810092
8.396039603960396,1.9501576973853774
8.415841584158416,1.942331469714803
8.435643564356436,1.934512032827741
8.455445544554456,1.9267313523598706
8.475247524752476,1.919021723273205
8.495049504950495,1.911415639599247
8.514851485148515,1.9039456562785297
8.534653465346535,1.896644243439212
8.554455445544555,1.889543633612475
8.574257425742575,1.8826756625502312
8.594059405940595,1.876071604488672
8.613861386138613,1.8697620028853976
8.633663366336634,1.863776497843856
8.653465346534654,1.8581436516214944
8.673267326732672,1.8528907737907903
8.693069306930694,1.8480437477788627
8.712871287128714,1.8436268606450064
8.732673267326732,1.8396626380586307
8.752475247524753,1.836171686507021
8.772277227722773,1.8331725447867147
8.792079207920791,1.8306815468096564
8.811881188118813,1.8287126976826114
8.831683168316832,1.8272775648941035
8.85148514851485,1.826385186268112
8.871287128712872,1.8260419961211054
8.891089108910892,1.8262517707933477
8.91089108910891,1.827015594424198
8.930693069306932,1.8283318455130364
8.950495049504951,1.830196204462761
8.97029702970297,1.832601681952282
8.990099009900991,1.835538667639749
9.00990099009901,1.8389949983700629
9.029702970297029,1.8429560447586906
9.04950495049505,1.8474048147580915
9.06930693069307,1.8523220725893685
9.089108910891088,1.8576864712460948
9.10891089108911,1.8634746966515925
9.12871287128713,1.869661621476389
9.148514851485148,1.876220466597848
9.16831683168317,1.8831229682054578
9.188118811881187,1.8903395486189951
9.207920792079207,1.8978394889865482
9.227722772277229,1.9055911021588248
9.247524752475247,1.9135619041887317
9.267326732673267,1.9217187830738058
9.287128712871288,1.9300281635372682
9.306930693069306,1.9384561668254183
9.326732673267326,1.9469687646793732
9.346534653465348,1.955531926813279
9.366336633663366,1.9641117613957748
9.386138613861386,1.9726746481833994
9.405940594059407,1.9811873640926416
9.425742574257425,1.9896172011194109
9.445544554455445,1.9979320766211566
9.465346534653467,2.006100636067085
9.485148514851485,2.014092348436954
9.504950495049505,2.0218775945089638
9.524752475247526,2.0294277483243555
9.544554455445544,2.036715252150447
9.564356435643564,2.0437136852874924
9.584158415841586,2.05039782707866
9.603960396039604,2.0567437144879515
9.623762376237623,2.062728694609477
9.643564356435645,2.06833147246421
9.663366336633663,2.0735321544283987
9.683168316831683,2.0783122876216202
9.702970297029704,2.0826548955639077
9.722772277227723,2.086544510389683
9.742574257425742,2.089967201883612
9.762376237623764,2.092910603578946
9.782178217821782,2.0953639361339
9.801980198019802,2.097318028175683
9.821782178217823,2.0987653347757567
9.841584158415841,2.0996999536931567
9.861386138613861,2.100117639496177
9.881188118811881,2.100015815645535
9.900990099009901,2.0993935845950547
9.92079207920792,2.0982517359381436
9.94059405940594,2.0965927526005625
9.96039603960396,2.094420815051241
9.98019801980198,2.0917418034738158
10.0,2.088563297811622
10.01980198019802,2.0848945755680175
10.03960396039604,2.0807466072121454
10.05940594059406,2.0761320490074455
10.07920792079208,2.0710652330465256
10.099009900990099,2.065562154241148
10.118811881188119,2.0596404539805793
10.138613861386139,2.053319400135405
10.158415841584159,2.046619863047418
10.178217821782178,2.039564287109947
10.198019801980198,2.0321766575076214
10.217821782178218,2.0244824616505213
10.237623762376238,2.016508644806443
10.257425742574258,2.008283559407416
10.277227722772277,1.9998369074838462
10.297029702970297,1.9911996756641612
10.316831683168317,1.982404062170205
10.336633663366337,1.97348339524224
10.356435643564357,1.9644720424432416
10.376237623762377,1.9554053103236193
10.396039603960396,1.946319333976257
10.415841584158416,1.9372509560805888
10.435643564356436,1.9282375951254063
10.455445544554454,1.919317102615425
10.475247524752476,1.910527609207451
10.495049504950495,1.9019073598894334
10.514851485148514,1.8934945385098136
10.534653465346535,1.8853270821839114
10.554455445544555,1.8774424863468662
10.574257425742573,1.8698776014846628
10.594059405940595,1.8626684228508916
10.613861386138614,1.8558498747603596
10.633663366336632,1.8494555913325417
10.653465346534654,1.8435176958289008
10.673267326732674,1.8380665809768544
10.693069306930692,1.8331306928879172
10.712871287128714,1.828736321347227
10.732673267326733,1.8249073993635365
