Time (s),Filtered Signal
0.0,0.013175664364115556
0.03337004405286344,0.11881895713174918
0.06674008810572687,0.23933082542657083
0.10011013215859031,0.37593664160820867
0.13348017621145375,0.509341319195205
0.16685022026431717,0.6043242224357654
0.20022026431718062,0.6242015826040999
0.23359030837004408,0.5487298291788225
0.2669603524229075,0.38667635525915683
0.3003303964757709,0.17616701711043137
0.33370044052863435,-0.028425310947240497
0.3670704845814978,-0.17746701524567318
0.40044052863436125,-0.24499570577878663
0.43381057268722467,-0.23643858607986065
0.46718061674008815,-0.1817353121901852
0.5005506607929515,-0.11819454724764682
0.533920704845815,-0.07268065828920811
0.5672907488986785,-0.05249299189276285
0.6006607929515418,-0.04875516734046086
0.6340308370044053,-0.04865048345028633
0.6674008810572687,-0.04790936048736227
0.7007709251101322,-0.055411165634858
0.7341409691629956,-0.08710461163062233
0.767511013215859,-0.15327119192767746
0.8008810572687225,-0.24732348198210677
0.834251101321586,-0.3434811060487731
0.8676211453744493,-0.40549472656055147
0.9009911894273128,-0.40225897889884643
0.9343612334801763,-0.32232419080381153
0.9677312775330397,-0.17998554899598723
1.001101321585903,-0.010119535497003531
1.0344713656387665,0.145466476573072
1.06784140969163,0.253689367863954
1.1012114537444935,0.3011029490998751
1.134581497797357,0.2960900490016989
1.1679515418502202,0.2624043520520801
1.2013215859030837,0.2275482342411997
1.2346916299559472,0.21106544229095303
1.2680616740088106,0.21734578027042176
1.3014317180616741,0.23543389458663175
1.3348017621145374,0.24544716619749832
1.3681718061674009,0.22855747836359522
1.4015418502202643,0.1760701267769457
1.4349118942731278,0.09358920514947341
1.4682819383259913,-0.001467927708375462
1.5016519823788548,-0.08758861063531906
1.535022026431718,-0.14817795263657516
1.5683920704845815,-0.17740790745422846
1.601762114537445,-0.18028627416714713
1.6351321585903085,-0.16755678988705242
1.668502202643172,-0.14880420414318055
1.7018722466960352,-0.12783744191729676
1.7352422907488987,-0.10273327403906153
1.7686123348017622,-0.06997120480523727
1.8019823788546256,-0.02968061030258752
1.8353524229074891,0.011508024711142048
1.8687224669603526,0.04200312816222725
1.9020925110132159,0.050582024250016316
1.9354625550660793,0.03268269991096525
1.9688325991189428,-0.0058455661269681694
2.002202643171806,-0.04981045278155046
2.0355726872246698,-0.0803623538239393
2.068942731277533,-0.08268479115469604
2.1023127753303967,-0.05203839466620904
2.13568281938326,0.004601908034795044
2.1690528634361232,0.07178757264998148
2.202422907488987,0.1318012857391131
2.23579295154185,0.17071990226652464
2.269162995594714,0.18175644227863574
2.302533039647577,0.16508039706888564
2.3359030837004404,0.12524397104770754
2.369273127753304,0.0683501916334745
2.4026431718061674,0.0007156145526732874
2.436013215859031,-0.070652184358621
2.4693832599118943,-0.13697284309363356
2.5027533039647576,-0.18782473011113626
2.5361233480176213,-0.21352657925783455
2.5694933920704845,-0.20908264415395564
2.6028634361233483,-0.17748083177968424
2.6362334801762115,-0.1299309541002761
2.6696035242290748,-0.08207471181610251
2.7029735682819385,-0.04752527449492436
2.7363436123348017,-0.031877012123449094
2.7697136563876654,-0.030382209143873094
2.8030837004405287,-0.030671814146550628
2.8364537444933924,-0.0192229436931478
2.8698237885462556,0.011695374250821228
2.903193832599119,0.06002819316802277
2.9365638766519826,0.11467796694124151
2.969933920704846,0.16034107528489944
3.0033039647577096,0.18390975482130795
3.036674008810573,0.17944255919730803
3.070044052863436,0.1496932577437935
3.1034140969162998,0.10398169057781692
3.136784140969163,0.053870320165472475
3.1701541850220267,0.0089217341489468
3.20352422907489,-0.025540004487718548
3.2368942731277532,-0.04800225642595468
3.270264317180617,-0.058503557832992124
3.30363436123348,-0.05632015525405369
3.337004405286344,-0.03927789641033849
3.370374449339207,-0.005274742905603794
3.4037444933920704,0.044864867883250524
3.437114537444934,0.10505092895902449
3.4704845814977974,0.1638175167463459
3.503854625550661,0.2069644934241618
3.5372246696035243,0.22192408753507423
3.5705947136563876,0.2018349002888228
3.6039647577092513,0.14744293627723892
3.6373348017621145,0.06609365086521626
3.6707048458149782,-0.03145074591250784
3.7040748898678415,-0.134626990075837
3.737444933920705,-0.23529721711924842
3.7708149779735685,-0.32759630036428006
3.8041850220264317,-0.40575878838862117
3.8375550660792954,-0.46154012784253723
3.8709251101321587,-0.4833632396270733
3.9042951541850224,-0.45866068281923794
3.9376651982378856,-0.37914288349467085
3.971035242290749,-0.24671515192266394
4.004405286343612,-0.07672200210746792
4.037775330396476,0.10399938768724712
4.0711453744493395,0.2643203767194382
4.104515418502203,0.3785494325408194
4.137885462555066,0.43446162116517584
4.171255506607929,0.4360775672851435
4.2046255506607935,0.4001003396692836
4.237995594713657,0.34782779005243464
4.27136563876652,0.29627100937170003
4.304735682819383,0.2523213744920444
4.3381057268722465,0.21222738821605114
4.371475770925111,0.16618609640456314
4.404845814977974,0.10560796394981807
4.438215859030837,0.029497277071023988
4.4715859030837,-0.0531546442941916
4.504955947136564,-0.12622584047255467
4.538325991189428,-0.17338491962365302
4.571696035242291,-0.1859222797491369
4.605066079295154,-0.16775726319158252
4.638436123348018,-0.13500371004736966
4.671806167400881,-0.10984002810124135
4.705176211453745,-0.11104407938753952
4.738546255506608,-0.14528231054434038
4.7719162995594715,-0.20324676931295524
4.805286343612335,-0.2628287411435871
4.838656387665198,-0.29836534926301167
4.872026431718062,-0.2919744221348612
4.905396475770925,-0.2416554975896731
4.938766519823789,-0.162092348614206
4.972136563876652,-0.07756305014266344
5.005506607929515,-0.010374138251424993
5.038876651982379,0.029364543726513304
5.072246696035243,0.04741985351990761
5.105616740088106,0.06076365428366081
5.138986784140969,0.08713235848370499
5.172356828193832,0.1344159832568815
5.2057268722466965,0.19550728699353512
5.23909691629956,0.2513108040641362
5.272466960352423,0.28031142852654894
5.305837004405286,0.26970747232736125
5.3392070484581495,0.2223722619454437
5.372577092511014,0.15614883098607538
5.405947136563877,0.09596705550374811
5.43931718061674,0.06287434509887582
5.4726872246696034,0.0654163705172328
5.506057268722468,0.09727489047584816
5.539427312775331,0.1416114459441107
5.572797356828194,0.17913755430589415
5.606167400881057,0.195399526335133
5.639537444933921,0.18385556267572886
5.672907488986785,0.14423652796167905
5.706277533039648,0.07860058476024613
5.739647577092511,-0.011336465624692099
5.7730176211453745,-0.1232484840374078
5.806387665198238,-0.2501123615532152
5.839757709251102,-0.3761124474897706
5.873127753303965,-0.47636907419959895
5.9064977973568284,-0.5225051111123418
5.939867841409692,-0.4926869659634647
5.973237885462555,-0.38184479580835673
6.006607929515419,-0.20708096037044593
6.039977973568282,-0.00523951088221339
6.073348017621146,0.17692649679334013
6.106718061674009,0.29646678581263797
6.140088105726872,0.326969180094933
6.173458149779736,0.26612026229652275
6.2068281938325995,0.1358827839918352
6.240198237885463,-0.024496959684501274
6.273568281938326,-0.17029944539306832
6.306938325991189,-0.26423922459536703
6.3403083700440535,-0.28648756923677865
6.373678414096917,-0.2388021904513918
6.40704845814978,-0.14172916965331633
6.440418502202643,-0.026181637504279032
6.4737885462555065,0.07743947771612529
6.507158590308371,0.1487431716791576
6.540528634361234,0.1823798579233564
6.573898678414097,0.18734809140806688
6.60726872246696,0.18141844722595082
6.640638766519824,0.183052235438662
6.674008810572688,0.20369358149137912
6.707378854625551,0.24284329164597568
6.740748898678414,0.2873071463937966
6.774118942731278,0.314880978557972
6.807488986784141,0.30167341391061075
6.840859030837005,0.23124986950862134
6.874229074889868,0.10285541731834334
6.9075991189427315,-0.06449460447050769
6.940969162995595,-0.23466929876467926
6.974339207048458,-0.36437687289411413
7.007709251101322,-0.41784105562374796
7.041079295154185,-0.38075963823091713
7.074449339207049,-0.2672747040087406
7.107819383259912,-0.11594741130988626
7.141189427312775,0.02450161918594639
7.174559471365639,0.11389734006307904
7.207929515418503,0.13543062515218734
7.241299559471366,0.09981470044114925
7.274669603524229,0.037059557038312124
7.308039647577092,-0.0198089260869659
7.3414096916299565,-0.050838126808646085
7.37477973568282,-0.05703911544445127
7.408149779735683,-0.05639050667989765
7.441519823788546,-0.0705040065804523
7.47488986784141,-0.10945091127639396
7.508259911894274,-0.1632534969505778
7.541629955947137,-0.20492587224800543
7.575,-0.203559282537958
7.608370044052863,-0.1403312324659998
7.641740088105728,-0.018731054278486443
7.675110132158591,0.1363021695761557
7.708480176211454,0.2892674726572219
7.741850220264317,0.4084607501440435
7.775220264317181,0.475904091577761
7.808590308370045,0.4884075830085448
7.841960352422908,0.4512307493293472
7.875330396475771,0.3702962957546987
7.9087004405286345,0.2491160382194002
7.942070484581498,0.0925244095732171
7.975440528634362,-0.08616666072257202
8.008810572687224,-0.2610820906030725
8.042180616740088,-0.3977924208932472
8.075550660792953,-0.46527751593807465
8.108920704845815,-0.45017203249005316
8.142290748898679,-0.36529138268379185
8.175660792951541,-0.24685126808471247
8.209030837004406,-0.1405905936626728
8.24240088105727,-0.08289516587886352
8.275770925110132,-0.08577367709483806
8.309140969162996,-0.13276071493068586
8.342511013215859,-0.1875460672527896
8.375881057268723,-0.21110484807879967
8.409251101321587,-0.17929292774317193
8.44262114537445,-0.09299293277059696
8.475991189427313,0.023312280395907783
8.509361233480176,0.133173310620498
8.54273127753304,0.20412088939437173
8.576101321585904,0.22052289347113627
8.609471365638766,0.1879830532793146
8.64284140969163,0.1282875115875967
8.676211453744493,0.06835196122613159
8.709581497797357,0.02897906100893247
8.742951541850221,0.018534441010340828
8.776321585903084,0.03353493283842503
8.809691629955948,0.06442731011019184
8.84306167400881,0.1024727612051944
8.876431718061674,0.14371660696777488
8.909801762114538,0.18823706210203883
8.9431718061674,0.2358612875641974
8.976541850220265,0.28163452552945345
9.009911894273127,0.3144183567022943
9.043281938325991,0.32008061023262047
9.076651982378856,0.28792464808286544
9.110022026431718,0.2169086068586943
9.143392070484582,0.11806331298158955
9.176762114537445,0.011449114895033032
9.210132158590309,-0.08110891159942737
9.243502202643173,-0.14407524140661904
9.276872246696035,-0.17334172627021252
9.3102422907489,-0.1764069320495048
9.343612334801762,-0.16804469039056963
9.376982378854626,-0.16378557823454687
9.41035242290749,-0.1739752858255842
9.443722466960352,-0.20036555027323513
9.477092511013216,-0.23594824870779688
9.510462555066079,-0.2677596246065811
9.543832599118943,-0.2818037826223137
9.577202643171807,-0.26881213570615226
9.61057268722467,-0.22909060835419434
9.643942731277534,-0.1744440945985058
9.677312775330396,-0.12561987288329682
9.71068281938326,-0.10516827289193584
9.744052863436124,-0.12771371696210643
9.777422907488987,-0.19137946356705948
9.81079295154185,-0.27445589282464194
9.844162995594713,-0.3398647150659726
9.877533039647577,-0.3469700498056835
9.910903083700441,-0.266985013983058
9.944273127753304,-0.09605536845608123
9.977643171806168,0.13978361833969138
10.01101321585903,0.39085228699264685
10.044383259911895,0.5998272227326847
10.077753303964759,0.7216034443533685
10.111123348017621,0.7389256262646635
10.144493392070485,0.6670858463471381
10.177863436123348,0.5455884223882854
10.211233480176212,0.4204369517472393
10.244603524229076,0.3248701668658565
10.277973568281938,0.2669655345153409
10.311343612334802,0.2292842462701563
10.344713656387665,0.18021093760570975
10.378083700440529,0.09142673673487926
10.411453744493393,-0.04659506719727928
10.444823788546255,-0.21800357715357166
10.47819383259912,-0.38659932426106214
10.511563876651982,-0.5099446287886176
10.544933920704846,-0.5561834686104611
10.57830396475771,-0.5163890775521847
10.611674008810573,-0.40761044964021925
10.645044052863437,-0.26599786369704054
10.678414096916299,-0.1334469034021375
10.711784140969163,-0.043395212351350264
10.745154185022027,-0.011046542172234388
10.77852422907489,-0.030896444872797676
10.811894273127754,-0.08131750083162081
10.845264317180618,-0.13353682942209164
10.87863436123348,-0.16142290754430874
10.912004405286345,-0.14904904818864717
10.945374449339207,-0.09434505753425246
10.978744493392071,-0.008518134004417687
11.012114537444935,0.0880935929884823
11.045484581497798,0.1724529824660717
11.078854625550662,0.22582168780556033
11.112224669603524,0.23933874738338382
11.145594713656388,0.21634791646426843
11.178964757709252,0.17048329834824869
11.212334801762115,0.12000875376930151
11.245704845814979,0.08051844522218903
11.279074889867841,0.05903251077476931
11.312444933920705,0.05211820921921589
11.34581497797357,0.04891642360573852
11.379185022026432,0.037611642938425685
11.412555066079296,0.01215172545681626
11.445925110132158,-0.02411244841717087
11.479295154185023,-0.059594247761894634
11.512665198237887,-0.07969770150279827
11.546035242290749,-0.07340703652325523
11.579405286343613,-0.038171907082190766
11.612775330396476,0.018744266652478282
11.64614537444934,0.08240013774120084
11.679515418502204,0.1344177800826379
11.712885462555066,0.15777328257545614
11.74625550660793,0.14117680041023736
11.779625550660793,0.08256585322231288
11.812995594713657,-0.008935331562456059
11.846365638766521,-0.11373241958650551
11.879735682819383,-0.206191463141289
11.913105726872248,-0.26248995342127596
11.94647577092511,-0.269452864604108
11.979845814977974,-0.23037618337935584
12.013215859030838,-0.1642845266184849
12.0465859030837,-0.09784020191057319
12.079955947136565,-0.052979678454471185
12.113325991189427,-0.03612656258934346
12.146696035242291,-0.03471880507861803
12.180066079295155,-0.023510071771617253
12.213436123348018,0.02182692522782689
12.246806167400882,0.11029561186855666
12.280176211453744,0.22775815516686093
12.313546255506608,0.34018103092719526
12.346916299559473,0.4070535819963157
12.380286343612335,0.39897911325106367
12.413656387665199,0.31122502666485347
12.447026431718061,0.16685773152753902
12.480396475770926,0.008022334344057101
12.51376651982379,-0.1205720358800957
12.547136563876652,-0.1885409203563679
12.580506607929516,-0.18992019910607374
12.613876651982379,-0.1427663130779153
12.647246696035243,-0.0793646893561009
12.680616740088107,-0.032025271678429015
12.71398678414097,-0.020785628576049365
12.747356828193833,-0.04781895788016571
12.780726872246696,-0.09989778833526733
12.81409691629956,-0.15660210452999476
12.847466960352424,-0.19976051068164635
12.880837004405286,-0.21975651598285373
12.91420704845815,-0.216520722767205
12.947577092511013,-0.19598167553449036
12.980947136563877,-0.164889259693021
13.014317180616741,-0.12722432476107187
13.047687224669604,-0.08390664985139921
13.081057268722468,-0.03523744552525746
13.11442731277533,0.016161425445802905
13.147797356828194,0.06429719394340323
13.181167400881058,0.10167589473808444
13.21453744493392,0.12316183431762641
13.247907488986785,0.12952406701908412
13.281277533039647,0.12836827002718687
13.314647577092511,0.13148833735972879
13.348017621145376,0.14957623065343653
13.381387665198238,0.18668451479534637
13.414757709251102,0.2371136209318468
13.448127753303964,0.28637793978399095
13.481497797356829,0.31609360967814387
13.514867841409693,0.31087353699430015
13.548237885462555,0.2643974988297804
13.58160792951542,0.18213231175388103
13.614977973568282,0.07956233754330563
13.648348017621146,-0.02333285788311937
13.68171806167401,-0.1090363534978155
13.715088105726872,-0.16797517592766273
13.748458149779736,-0.2003134725848348
13.781828193832599,-0.2135828298931362
13.815198237885463,-0.21764517118912152
13.848568281938327,-0.21967170248528034
13.88193832599119,-0.22156212604456124
13.915308370044054,-0.22067185272303302
13.948678414096916,-0.21280746502529338
13.98204845814978,-0.19535058454768825
14.015418502202644,-0.1686785517876298
14.048788546255507,-0.13542537112851194
14.08215859030837,-0.09857087656018755
14.115528634361233,-0.05993026176358516
14.148898678414097,-0.020083536671802054
14.182268722466961,0.020371808775178205
14.215638766519824,0.059321305172611916
14.249008810572688,0.09263312412819753
14.28237885462555,0.11524095314820573
14.315748898678414,0.1233706813012036
14.349118942731279,0.11673492600989428
14.382488986784141,0.09948381626824696
14.415859030837005,0.07931118361879068
14.449229074889868,0.06495693712797546
14.482599118942732,0.0629843338396456
14.515969162995596,0.0749623663817639
14.549339207048458,0.09611016494689198
14.582709251101322,0.11616031438381147
14.616079295154185,0.12264918017723773
14.649449339207049,0.10597399220853429
14.682819383259913,0.06450133393857396
14.716189427312775,0.007282203074335263
14.74955947136564,-0.04775770272607485
14.782929515418502,-0.08054751599177429
14.816299559471366,-0.07825937480304108
14.84966960352423,-0.04292549939274153
14.883039647577093,0.007247425535252499
14.916409691629957,0.04479877639674968
14.94977973568282,0.045809486049819007
14.983149779735683,0.002534842109867874
15.016519823788547,-0.07091882338500835
15.04988986784141,-0.14365969873264467
15.083259911894274,-0.18214904729172549
15.116629955947138,-0.16672517690412353
15.15,-0.10210487908098013
15.183370044052865,-0.01618000748426004
15.216740088105727,0.05270997113853582
15.250110132158591,0.07392932152237673
15.283480176211455,0.03919348719322606
15.316850220264318,-0.0334630848400993
15.350220264317182,-0.10819609792596128
15.383590308370044,-0.14796803169424694
15.416960352422908,-0.13111669066191162
15.450330396475772,-0.060134410072579095
15.483700440528635,0.040898303996527004
15.517070484581499,0.1381628327890643
15.550440528634361,0.20302270669888525
15.583810572687225,0.2230153834477464
15.61718061674009,0.20450865280801903
15.650550660792952,0.1669266654780263
15.683920704845816,0.13222906263526976
15.717290748898678,0.11491642731755992
15.750660792951543,0.11684760076926867
15.784030837004407,0.12841041324204455
15.817400881057269,0.1345526268769684
15.850770925110133,0.12224337873240479
15.884140969162996,0.08582280397000772
15.91751101321586,0.028219513375782195
15.950881057268724,-0.04175188744819739
15.984251101321586,-0.11399801154462257
16.01762114537445,-0.18105660042879917
16.050991189427315,-0.23945421565304556
16.084361233480177,-0.28823339622786714
16.11773127753304,-0.325952146197604
16.151101321585905,-0.34827747353214455
16.184471365638768,-0.34796441636210446
16.21784140969163,-0.3176941617258526
16.251211453744492,-0.25458580213129667
16.284581497797358,-0.16403543603272802
16.31795154185022,-0.06051201570269705
16.351321585903083,0.03582954203448273
16.38469162995595,0.10586946921886302
16.41806167400881,0.13891367200882723
16.451431718061674,0.13738372305508428
16.48480176211454,0.11632264925169748
16.518171806167402,0.0974406032241394
16.551541850220264,0.09998631167104655
16.584911894273127,0.13239702425837968
16.618281938325993,0.1885392531076502
16.651651982378855,0.25034420549335296
16.685022026431717,0.2956666326620749
16.718392070484583,0.30771480797674766
16.751762114537446,0.28169176886213787
16.785132158590308,0.22575113710179176
16.818502202643174,0.1562569716865672
16.851872246696036,0.0901148110748586
16.8852422907489,0.03812822796189987
16.91861233480176,0.00235369795654368
16.951982378854627,-0.022042791121202266
16.98535242290749,-0.042355076657951005
17.01872246696035,-0.06424343042187992
17.052092511013218,-0.09001736645637663
17.08546255506608,-0.11939715275229408
17.118832599118942,-0.1512398483694061
17.152202643171808,-0.18443217370369555
