Frequency (Hz),Amplitude
0.0,0.6976507339184792
0.019801980198019802,0.7046897571174344
0.039603960396039604,0.7253702898456041
0.0594059405940594,0.7585005973264152
0.07920792079207921,0.802419544159239
0.09900990099009901,0.8553091122056536
0.1188118811881188,0.9154272942479782
0.13861386138613863,0.9812327793236164
0.15841584158415842,1.0514245023773576
0.1782178217821782,1.1249318799940136
0.19801980198019803,1.2008837330999516
0.21782178217821782,1.2785722413858862
0.2376237623762376,1.3574195788458474
0.25742574257425743,1.4369498971004255
0.27722772277227725,1.5167669325249746
0.297029702970297,1.5965365669561342
0.31683168316831684,1.6759734222710114
0.33663366336633666,1.754830611888851
0.3564356435643564,1.8328919125030807
0.37623762376237624,1.9099657728589587
0.39603960396039606,1.9858807118260655
0.4158415841584158,2.0604817673794775
0.43564356435643564,2.133627742625259
0.45544554455445546,2.20518905883935
0.4752475247524752,2.2750460731329696
0.495049504950495,2.3430877537337724
0.5148514851485149,2.409210632110259
0.5346534653465347,2.473317970657054
0.5544554455445545,2.535319099182341
0.5742574257425742,2.595128884308446
0.594059405940594,2.6526673040719584
0.613861386138614,2.7078591061928967
0.6336633663366337,2.7606335331848033
0.6534653465346534,2.8109241010759365
0.6732673267326733,2.8586684212803717
0.6930693069306931,2.90380805730148
0.7128712871287128,2.9462884096200797
0.7326732673267327,2.986058623426826
0.7524752475247525,3.0230715148893803
0.7722772277227723,3.0572835124614404
0.7920792079207921,3.088654610392404
0.8118811881188118,3.117148332118786
0.8316831683168316,3.142731701640575
0.8514851485148516,3.165375221328883
0.8712871287128713,3.1850528548920716
0.891089108910891,3.201742014459634
0.9108910891089109,3.215423550936703
0.9306930693069307,3.2260817469449283
0.9504950495049505,3.2337043118052042
0.9702970297029703,3.2382823781381505
0.99009900990099,3.239810499765963
1.00990099009901,3.238286650695229
1.0297029702970297,3.2337122250508306
1.0495049504950495,3.226092037916216
1.0693069306930694,3.215434327120139
1.0891089108910892,3.2017507560954073
1.108910891089109,3.185056418025162
1.1287128712871286,3.1653698415887783
1.1485148514851484,3.142712998726821
1.1683168316831685,3.117111314964916
1.188118811881188,3.088593682976501
1.2079207920792079,3.057192480227178
1.227722772277228,3.0229435917373415
1.2475247524752475,2.985886439232367
1.2673267326732673,2.946064018231075
1.2871287128712872,2.903522944967722
1.3069306930693068,2.8583135154662593
1.3267326732673268,2.810489779610814
1.3465346534653466,2.760109633711507
1.3663366336633662,2.707234935887297
1.3861386138613863,2.651931649625902
1.405940594059406,2.594270022200471
1.4257425742574257,2.5343248063092125
1.4455445544554455,2.472175535472494
1.4653465346534653,2.407906866526473
1.4851485148514851,2.341609006202865
1.504950495049505,2.2733782435629037
1.5247524752475248,2.2033176163485146
1.5445544554455446,2.131537747654135
1.5643564356435644,2.058157900435627
1.5841584158415842,1.983307312259655
1.6039603960396038,1.907126892729209
1.6237623762376237,1.8297713930742345
1.6435643564356437,1.7514121940020642
1.6633663366336633,1.6722409074062687
1.683168316831683,1.5924740541819489
1.7029702970297032,1.5123591691667464
1.7227722772277227,1.4321827999496604
1.7425742574257426,1.3522810110559895
1.7623762376237624,1.2730531717267437
1.782178217821782,1.1949799631146552
1.801980198019802,1.1186466027576334
1.8217821782178218,1.0447720466179025
1.8415841584158414,0.9742439608112123
1.8613861386138615,0.9081567474547327
1.881188118811881,0.8478445991775083
1.900990099009901,0.7948921791140349
1.920792079207921,0.751092847032503
1.9405940594059405,0.7183158742270539
1.9603960396039604,0.6982584277513185
1.98019801980198,0.6921153271647725
2.0,0.7002838769833527
2.01980198019802,0.7222543809175974
2.0396039603960396,0.7567508027054104
2.0594059405940595,0.8020393905884087
2.0792079207920793,0.856252804358134
2.099009900990099,0.9176229313706326
2.118811881188119,0.9845995365672295
2.1386138613861387,1.0558830093523235
2.1584158415841586,1.1304093906928294
2.1782178217821784,1.207316021101615
2.1980198019801978,1.2859037060635947
2.217821782178218,1.3656025040431725
2.237623762376238,1.4459433927588141
2.257425742574257,1.5265358309151909
2.2772277227722775,1.6070503978813222
2.297029702970297,1.687205513680791
2.3168316831683167,1.7667573239117587
2.336633663366337,1.845491995689671
2.3564356435643563,1.9232198350582907
2.376237623762376,1.9997707769834838
2.3960396039603964,2.0749909107202784
2.4158415841584158,2.148739788710476
2.4356435643564356,2.2208883311474716
2.455445544554456,2.29131718582968
2.4752475247524752,2.35991543803086
2.495049504950495,2.426579591066938
2.514851485148515,2.491212757464608
2.5346534653465347,2.5537240149328677
2.5544554455445545,2.614027892018629
2.5742574257425743,2.672043956349082
2.594059405940594,2.727696484422523
2.6138613861386135,2.78091419651288
2.633663366336634,2.831630043772679
2.6534653465346536,2.8797810373254684
2.673267326732673,2.9253081112327597
2.6930693069306932,2.968156012850496
2.712871287128713,3.008273215366259
2.7326732673267324,3.0456118483139143
2.7524752475247527,3.080127642658716
2.7722772277227725,3.111779887681266
2.792079207920792,3.14053139739786
2.811881188118812,3.1663484846660506
2.8316831683168315,3.1892009414585325
2.8514851485148514,3.209062024062088
2.8712871287128716,3.2259084421843403
2.891089108910891,3.239720351139509
2.910891089108911,3.250481346442978
2.9306930693069306,3.2581784602804427
2.9504950495049505,3.2628021594347585
2.9702970297029703,3.2643463443578002
2.99009900990099,3.262808349168872
3.00990099009901,3.2581889424483537
3.0297029702970297,3.250492328778449
3.0495049504950495,3.2397261510652653
3.0693069306930694,3.2259014937592343
3.089108910891089,3.2090328871786378
3.108910891089109,3.189138313234473
3.128712871287129,3.166239212959289
3.148514851485148,3.1403604963601115
3.1683168316831685,3.1115305552513917
3.1881188118811883,3.0797812798828192
3.2079207920792077,3.0451480803661113
3.227722772277228,3.0076699141316072
3.2475247524752473,2.967389320921351
3.267326732673267,2.92435246716227
3.2871287128712874,2.8786092019788283
3.3069306930693068,2.830213127620939
3.3267326732673266,2.7792216877279494
3.346534653465347,2.725696277661595
3.366336633663366,2.669702382168294
3.386138613861386,2.611309746940279
3.4059405940594063,2.55059259232259
3.4257425742574257,2.4876298795769767
3.4455445544554455,2.422505642921993
3.4653465346534653,2.355309404237134
3.485148514851485,2.2861366921419943
3.504950495049505,2.2150896935436712
3.5247524752475248,2.142278074245754
3.5445544554455446,2.0678200166047147
3.564356435643564,1.9918435375810195
3.5841584158415842,1.914488171360615
3.603960396039604,1.8359071290969298
3.6237623762376234,1.7562700871118815
3.6435643564356437,1.675766807991816
3.6633663366336635,1.5946118715682436
3.683168316831683,1.5130508912212626
3.702970297029703,1.4313687224480516
3.722772277227723,1.3499003409087569
3.7425742574257423,1.2690452743582832
3.762376237623762,1.1892866926420833
3.7821782178217824,1.1112164114813976
3.801980198019802,1.035566940587381
3.8217821782178216,0.9632508335023519
3.841584158415842,0.8954050310102238
3.8613861386138613,0.8334320335733248
3.881188118811881,0.7790187080080506
3.9009900990099013,0.7340975020878595
3.9207920792079207,0.7007022280899514
3.9405940594059405,0.6806851842825494
3.96039603960396,0.6753326897629156
3.98019801980198,0.6850240898901813
4.0,0.7091203239531396
4.01980198019802,0.7461518828453503
4.03960396039604,0.7941903789837231
4.0594059405940595,0.8512148567006828
4.079207920792079,0.9153563537263623
4.099009900990099,0.985008795947513
4.118811881188119,1.0588479081998563
4.138613861386139,1.1358038349559514
4.158415841584159,1.215018021425605
4.178217821782178,1.2957999423182764
4.198019801980198,1.3775898097447652
4.217821782178218,1.4599286322748113
4.237623762376238,1.5424350230860755
4.257425742574258,1.6247875533967926
4.2772277227722775,1.7067114278811577
4.297029702970297,1.7879684405489014
4.316831683168317,1.8683493892607073
4.336633663366336,1.947668324248102
4.356435643564357,2.025758164714362
4.376237623762377,2.102467338922838
4.3960396039603955,2.177657193547857
4.415841584158416,2.251199984508599
4.435643564356436,2.322977310099383
4.455445544554455,2.3928788827381804
4.475247524752476,2.46080156165429
4.4950495049504955,2.526648587946206
4.514851485148514,2.5903289775565734
4.534653465346535,2.651757038198047
4.554455445544555,2.710851984102074
4.574257425742574,2.7675376283588986
4.594059405940594,2.821742137080765
4.613861386138614,2.8733978330217695
4.633663366336633,2.922441038896381
4.653465346534653,2.9688119526520165
4.673267326732674,3.012454548514475
4.693069306930693,3.0533164988474395
4.712871287128713,3.0913491128276194
4.732673267326733,3.126507288697787
4.752475247524752,3.158749476964646
4.772277227722772,3.1880376523936693
4.792079207920793,3.2143372930435183
4.811881188118812,3.237617364900441
4.8316831683168315,3.2578503109321417
4.851485148514852,3.2750120435953067
4.871287128712871,3.2890819400089635
4.891089108910891,3.3000428391561725
4.910891089108912,3.3078810406047428
4.930693069306931,3.312586304348811
4.9504950495049505,3.3141518514711215
4.97029702970297,3.312574365414859
4.99009900990099,3.3078539937356632
5.00990099009901,3.299994350283257
5.02970297029703,3.2890025178387337
5.0495049504950495,3.2748890513124826
5.069306930693069,3.25766798168888
5.089108910891089,3.2373568209929804
5.108910891089109,3.2139765686517903
5.128712871287129,3.187551719733622
5.148514851485149,3.1581102756769113
5.1683168316831685,3.1256837582698513
5.188118811881188,3.090307227820944
5.207920792079208,3.0520193066753225
5.227722772277227,3.0108622094932755
5.247524752475248,2.9668817820276887
5.267326732673268,2.9201275505336675
5.2871287128712865,2.870652784436598
5.306930693069307,2.8185145755038254
5.326732673267327,2.763773937545487
5.346534653465346,2.706495931661974
5.366336633663367,2.6467498233235576
5.3861386138613865,2.5846092791997703
5.405940594059405,2.5201526137714914
5.425742574257426,2.453463098517351
5.445544554455446,2.3846293500910924
5.465346534653465,2.3137458187020172
5.485148514851486,2.2409134043012173
5.504950495049505,2.1662402367550113
5.524752475247524,2.0898426677878663
5.544554455445545,2.011846538278076
5.564356435643565,1.9323888061644015
5.584158415841584,1.8516196501478328
5.603960396039604,1.769705205930337
5.623762376237624,1.686831149691682
5.643564356435643,1.6032074245143677
5.663366336633663,1.5190745185177208
5.683168316831684,1.4347118600439288
5.702970297029703,1.3504491082490522
5.7227722772277225,1.2666813965877384
5.742574257425743,1.1838899248213375
5.762376237623762,1.1026696333476271
5.782178217821782,1.0237658386426407
5.801980198019803,0.9481211564727382
5.821782178217822,0.8769316476781438
5.841584158415841,0.8117046684325965
5.861386138613861,0.7542971001509827
5.881188118811881,0.7068896527520087
5.900990099009901,0.6718295876335347
5.920792079207921,0.6512847337115675
5.9405940594059405,0.6467471055542116
5.96039603960396,0.6585890787744535
5.98019801980198,0.6859412777425886
6.0,0.7269770445786377
6.01980198019802,0.7794116825246953
6.03960396039604,0.8409492388975347
6.0594059405940595,0.9095449678244674
6.079207920792079,0.9834980380084238
6.099009900990099,1.061443416053144
6.118811881188119,1.1423019042208669
6.138613861386139,1.2252218237656323
6.158415841584159,1.3095266750768664
6.178217821782178,1.39467287345046
6.198019801980198,1.4802172928095694
6.217821782178218,1.5657929361720109
6.237623762376237,1.651090884207398
6.257425742574258,1.7358469340969187
6.2772277227722775,1.8198316889757933
6.297029702970296,1.9028431720520618
6.316831683168317,1.9847012884054307
6.336633663366337,2.065243643924853
6.356435643564356,2.1443223666958495
6.376237623762377,2.221801673861546
6.396039603960396,2.297555996935749
6.415841584158415,2.3714685286373505
6.435643564356436,2.443430090297582
6.455445544554456,2.5133382448677417
6.475247524752475,2.5810965994230126
6.495049504950495,2.646614254855558
6.514851485148515,2.7098053706121674
6.534653465346534,2.7705888198708584
6.554455445544554,2.8288879161850216
6.574257425742575,2.884630196864997
6.594059405940594,2.937747251582668
6.6138613861386135,2.988174587139566
6.633663366336634,3.0358515212265527
6.653465346534653,3.080721099463631
6.673267326732673,3.122730031146269
6.693069306930694,3.1618286400169273
6.712871287128713,3.1979708270842284
6.732673267326732,3.231114043071583
6.752475247524753,3.2612192685237558
6.772277227722772,3.288250999959654
6.792079207920792,3.3121772407511147
6.811881188118813,3.332969495645364
6.8316831683168315,3.350602768045138
6.851485148514851,3.365055559323145
6.871287128712871,3.3763098695850875
6.891089108910891,3.3843511994117215
6.910891089108911,3.3891685522122246
6.930693069306931,3.3907544369097136
6.9504950495049505,3.3891048707606948
6.97029702970297,3.384219382184415
6.99009900990099,3.376101013549077
7.00990099009901,3.3647563239315765
7.02970297029703,3.350195391938012
7.0495049504950495,3.3324318187460573
7.069306930693069,3.3114827316101323
7.089108910891089,3.287368788158389
7.108910891089109,3.2601141819104194
7.128712871287128,3.2297466495602225
7.148514851485149,3.1962974807044384
7.1683168316831685,3.159801530858033
7.188118811881187,3.1202972387942793
7.207920792079208,3.0778266494841766
7.227722772277228,3.0324354442025845
7.247524752475247,2.9841729797311976
7.267326732673268,2.933092339041502
7.287128712871287,2.8792503964108
7.306930693069306,2.8227079006471056
7.326732673267327,2.7635295810201073
7.346534653465347,2.7017842816802093
7.366336633663366,2.6375451318797998
7.3861386138613865,2.5708897613089063
7.405940594059406,2.5019005724797694
7.425742574257425,2.4306650855655203
7.445544554455446,2.35727637572582
7.465346534653466,2.281833629174821
7.485148514851485,2.204442852682688
7.504950495049505,2.1252177827385865
7.524752475247524,2.0442810565181526
7.544554455445544,1.9617657289497836
7.564356435643565,1.877817251275942
7.584158415841584,1.79259607054913
7.603960396039604,1.706281072363177
7.623762376237624,1.619074179442885
7.643564356435643,1.5312065490969646
7.663366336633663,1.4429470009601413
7.683168316831684,1.3546135774028565
7.702970297029703,1.2665895225414223
7.7227722772277225,1.1793454893324118
7.742574257425743,1.0934704429731876
7.762376237623762,1.0097144001042022
7.782178217821782,0.9290463657108157
7.801980198019803,0.8527292952357259
7.821782178217822,0.7824074973254456
7.841584158415841,0.7201845723416022
7.861386138613862,0.66863445551967
7.881188118811881,0.6306394113214768
7.900990099009901,0.6089388762435956
7.92079207920792,0.6054120863753354
7.9405940594059405,0.6204184240857407
7.96039603960396,0.6526592116667482
7.980198019801979,0.6996722421386176
8.0,0.7585801864805939
8.01980198019802,0.8266661234198395
8.03960396039604,0.9016416685360763
8.05940594059406,0.98169134200927
8.07920792079208,1.065412945507163
8.099009900990099,1.1517305938473013
8.118811881188119,1.2398141175828516
8.138613861386139,1.329014679495614
8.158415841584159,1.4188165568299065
8.178217821782178,1.5088020546200365
8.198019801980198,1.598626250599038
8.217821782178218,1.6879988401267576
8.237623762376238,1.776671032957705
8.257425742574258,1.8644260313228258
8.277227722772277,1.9510720532067114
8.297029702970297,2.0364371753017676
8.316831683168317,2.1203654872381725
8.336633663366337,2.2027141991527905
8.356435643564357,2.2833514488277475
8.376237623762377,2.3621546269908382
8.396039603960396,2.439009089935876
8.415841584158416,2.5138071642211623
8.435643564356436,2.586447373475478
8.455445544554456,2.656833835436887
8.475247524752476,2.7248757904218337
8.495049504950495,2.7904872319489735
8.514851485148515,2.853586617245679
8.534653465346535,2.914096640556893
8.554455445544555,2.9719440560570543
8.574257425742575,3.027059540089704
8.594059405940595,3.0793775846794103
8.613861386138613,3.128836415959011
8.633663366336634,3.1753779324634315
8.653465346534654,3.2189476592566666
8.673267326732672,3.2594947146516753
8.693069306930694,3.296971786906714
8.712871287128714,3.3313351187757583
8.732673267326732,3.362544498184188
8.752475247524753,3.3905632536176062
8.772277227722773,3.415358253066686
8.792079207920791,3.43689990557979
8.811881188118813,3.4551621646461212
8.831683168316832,3.4701225327744
8.85148514851485,3.481762066751424
8.871287128712872,3.4900653831661113
8.891089108910892,3.495020663872755
8.91089108910891,3.496619661143906
8.930693069306932,3.4948577023330665
8.950495049504951,3.4897336939314765
8.97029702970297,3.4812501249639944
8.990099009900991,3.4694130697289975
9.00990099009901,3.4542321899475326
9.029702970297029,3.435720736449892
9.04950495049505,3.413895550595987
9.06930693069307,3.3887770657006477
9.089108910891088,3.3603893088202486
9.10891089108911,3.328759903355252
9.12871287128713,3.2939200730389957
9.148514851485148,3.2559046480209894
9.16831683168317,3.2147520739199607
9.188118811881187,3.17050442492548
9.207920792079207,3.123207422278501
9.227722772277229,3.0729104597735373
9.247524752475247,3.0196666383173496
9.267326732673267,2.9635328120737734
9.287128712871288,2.9045696493549715
9.306930693069306,2.842841712227049
9.326732673267326,2.778417559842247
9.346534653465348,2.7113698818686163
9.366336633663366,2.6417756701710378
9.386138613861386,2.569716439255533
9.405940594059407,2.4952785091339007
9.425742574257425,2.418553368497974
9.445544554455445,2.3396381418400383
9.465346534653467,2.258636192035637
9.485148514851485,2.1756579008178045
9.504950495049505,2.090821684842666
9.524752475247526,2.004255326650158
9.544554455445544,1.9160977307303104
9.564356435643564,1.8265012596312997
9.584158415841586,1.7356348705234452
9.603960396039604,1.6436883695906543
9.623762376237623,1.5508782467466606
9.643564356435645,1.457455772443031
9.663366336633663,1.3637183718412385
9.683168316831683,1.2700257997014772
9.702970297029704,1.1768234073742674
9.722772277227723,1.0846759242023654
9.742574257425742,0.9943167336498522
9.762376237623764,0.9067194206478094
9.782178217821782,0.8231992922350729
9.801980198019802,0.7455488193794588
9.821782178217823,0.6761922428724346
9.841584158415841,0.6182904070395514
9.861386138613861,0.5756204296585156
9.881188118811881,0.5519636949908053
9.900990099009901,0.5499301713530719
9.92079207920792,0.5698118536500992
9.94059405940594,0.6094450018688128
9.96039603960396,0.6652155432747944
9.98019801980198,0.7333009313869598
10.0,0.8104087539398728
10.01980198019802,0.8939781615836689
10.03960396039604,0.9821048394912064
10.05940594059406,1.0733898624833627
10.07920792079208,1.1667990683368161
10.099009900990099,1.2615552489744997
10.118811881188119,1.3570614607426694
10.138613861386139,1.4528480293874617
10.158415841584159,1.5485362056181915
10.178217821782178,1.6438131622740344
10.198019801980198,1.7384146472413913
10.217821782178218,1.8321128143153071
10.237623762376238,1.9247075831053977
10.257425742574258,2.01602042972751
10.277227722772277,2.105889871884538
10.297029702970297,2.194168149750777
10.316831683168317,2.280718761266001
10.336633663366337,2.3654146152763116
10.356435643564357,2.4481366366092367
10.376237623762377,2.5287727053253937
10.396039603960396,2.6072168455924785
10.415841584158416,2.6833686027852157
10.435643564356436,2.7571325637502455
10.455445544554454,2.8284179868233594
10.475247524752476,2.89713851658069
10.495049504950495,2.9632119644160877
10.514851485148514,3.0265601405280345
10.534653465346535,3.0871087262311097
10.554455445544555,3.1447871780000756
10.574257425742573,3.1995286565367027
10.594059405940595,3.2512699755808785
10.613861386138614,3.299951566285679
10.633663366336632,3.3455174538239616
10.653465346534654,3.387915243554547
10.673267326732674,3.4270961145930445
10.693069306930692,3.4630148190411307
10.712871287128714,3.495629685452665
10.732673267326733,3.5249026253750686
