Time (s),Filtered Signal
0.0,0.010679077611676056
0.03337008452774715,-0.24103015725393673
0.0667401690554943,-0.41752641531042683
0.10011025358324147,-0.46932728002333096
0.1334803381109886,-0.38872866067814954
0.16685042263873576,-0.20954545212423345
0.20022050716648293,0.008193591897877547
0.23359059169423008,0.20135865969579936
0.2669606762219772,0.32470691596866824
0.30033076074972437,0.36167339194269754
0.3337008452774715,0.32222910767393015
0.36707092980521866,0.2311851242927567
0.40044101433296586,0.11423269619293754
0.433811098860713,-0.011034896220682287
0.46718118338846015,-0.13554927351013762
0.5005512679162073,-0.2522436345011857
0.5339213524439544,-0.34808094079017454
0.5672914369717016,-0.4008095564353328
0.6006615214994487,-0.38386339559006294
0.6340316060271959,-0.2781723602824124
0.667401690554943,-0.08550584978855313
0.7007717750826902,0.16362977961165368
0.7341418596104373,0.41281306703193865
0.7675119441381845,0.5942153326598486
0.8008820286659317,0.6506309248317548
0.8342521131936789,0.5570376227455626
0.867622197721426,0.3328630631463124
0.9009922822491732,0.03891457787213206
0.9343623667769203,-0.2414564016675475
0.9677324513046675,-0.430958142823695
1.0011025358324146,-0.4861052338388889
1.0344726203601617,-0.4128644297487112
1.0678427048879089,-0.263126357418949
1.101212789415656,-0.11260282197894422
1.1345828739434032,-0.02882258650087189
1.1679529584711503,-0.042694605957963275
1.2013230429988975,-0.1361180952162654
1.2346931275266446,-0.2513633788801783
1.2680632120543918,-0.3182176449585646
1.301433296582139,-0.28664756730677815
1.334803381109886,-0.1500354446351646
1.3681734656376332,0.051572364495554225
1.4015435501653803,0.24931314010310668
1.4349136346931275,0.37571364794167816
1.4682837192208746,0.3931713192382093
1.5016538037486218,0.30822617906179284
1.535023888276369,0.16642079084375822
1.568393972804116,0.03149849311361671
1.6017640573318634,-0.04102460263767393
1.6351341418596106,-0.024676721252358154
1.6685042263873577,0.0704071008137871
1.7018743109151049,0.20467638860225393
1.735244395442852,0.3267154885723319
1.7686144799705992,0.39330663100267094
1.8019845644983463,0.38412161903656833
1.8353546490260935,0.3061449586887019
1.8687247335538406,0.18745342118195527
1.9020948180815878,0.06407021061186292
1.935464902609335,-0.03430721666313919
1.968834987137082,-0.0943496786841178
2.002205071664829,-0.12186751394806485
2.0355751561925763,-0.1372005911961724
2.0689452407203235,-0.1655630875582086
2.1023153252480706,-0.22606448796732373
2.1356854097758178,-0.32330158442184426
2.169055494303565,-0.44442763184399325
2.202425578831312,-0.5626958481825374
2.235795663359059,-0.6461976991688513
2.2691657478868064,-0.6686712405602224
2.3025358324145535,-0.6185364489772452
2.3359059169423007,-0.5029504897922561
2.369276001470048,-0.3453829976614264
2.402646085997795,-0.17744332017940212
2.436016170525542,-0.027830844144144034
2.4693862550532892,0.08738354173346803
2.5027563395810364,0.1691422658185123
2.5361264241087835,0.23251349274099567
2.5694965086365307,0.2978365763559505
2.602866593164278,0.3800029619978784
2.636236677692025,0.48071293392323183
2.669606762219772,0.5868318916696602
2.7029768467475193,0.6749500193274989
2.7363469312752664,0.7197244394636633
2.7697170158030135,0.7026828619462848
2.8030871003307607,0.6187736268851488
2.836457184858508,0.4791663491506301
2.869827269386255,0.3098399586264528
2.903197353914002,0.1461165663413239
2.9365674384417493,0.02378810994253761
2.9699375229694964,-0.031739270039487094
3.0033076074972436,-0.015631512854173517
3.0366776920249907,0.05073417787974177
3.070047776552738,0.12268239452663096
3.103417861080485,0.14557101061790587
3.136787945608232,0.0758743796141925
3.1701580301359793,-0.09781692062968973
3.203528114663727,-0.3443022838778135
3.236898199191474,-0.5974536737794826
3.270268283719221,-0.7816484709481551
3.3036383682469683,-0.844717891605682
3.3370084527747155,-0.7823427860648686
3.3703785373024626,-0.6403039515420681
3.4037486218302098,-0.49162829531235
3.437118706357957,-0.3992057930517082
3.470488790885704,-0.3831911320329998
3.503858875413451,-0.4109064357796219
3.5372289599411983,-0.41528069707076787
3.5705990444689455,-0.3323745165703716
3.6039691289966926,-0.1380037319872936
3.63733921352444,0.13607623707855995
3.670709298052187,0.41483963759699344
3.704079382579934,0.6145150461331348
3.7374494671076812,0.6808397855648154
3.7708195516354284,0.6118459510757814
3.8041896361631755,0.4548978687327981
3.8375597206909227,0.2812348690580811
3.87092980521867,0.15212676353604704
3.904299889746417,0.09370247491953176
3.937669974274164,0.09181694890692944
3.9710400588019112,0.10754572783323806
4.004410143329658,0.1037044555586458
4.0377802278574055,0.068001891019354
4.071150312385153,0.020853670062483978
4.1045203969129,0.0038613468150085605
4.137890481440647,0.054613388992660945
4.171260565968394,0.18053964159027486
4.204630650496141,0.34593760873720225
4.238000735023888,0.48095877514621915
4.2713708195516356,0.51095815344493
4.304740904079383,0.39354712963920624
4.33811098860713,0.14469422308462354
4.371481073134877,-0.16146555744048433
4.404851157662624,-0.4221015420951717
4.438221242190371,-0.5517569121652873
4.471591326718118,-0.5220000025674025
4.504961411245866,-0.37330406869066524
4.538331495773613,-0.19171736437197723
4.57170158030136,-0.06199849781382921
4.605071664829107,-0.02245569033597385
4.638441749356854,-0.046537294197315254
4.671811833884601,-0.06175169532053613
4.7051819184123485,0.004354549596114572
4.738552002940096,0.1767644654808146
4.771922087467843,0.4106982944765968
4.80529217199559,0.607251541473993
4.838662256523337,0.6592215431580061
4.872032341051084,0.5036571214068838
4.905402425578831,0.15492309794959686
4.9387725101065785,-0.29719591576964843
4.972142594634326,-0.7222725977483008
5.005512679162073,-0.9998196260522771
5.03888276368982,-1.0630669731250044
5.072252848217567,-0.9185962319910783
5.105622932745314,-0.6366306476014885
5.138993017273061,-0.3193360456698966
5.1723631018008085,-0.06200661860548718
5.205733186328556,0.07766765440242553
5.239103270856303,0.09256711622205344
5.27247335538405,0.019641809102808834
5.305843439911797,-0.08068075935146915
5.339213524439544,-0.14979401704634093
5.372583608967291,-0.151290465169686
5.4059536934950385,-0.07985569272093121
5.439323778022786,0.04285792907107637
5.472693862550533,0.18181524858556952
5.50606394707828,0.30481792585058376
5.539434031606027,0.3943300438348273
5.572804116133774,0.4506674869514722
5.606174200661521,0.4866844878360156
5.6395442851892685,0.517896087099278
5.672914369717016,0.5534090928372473
5.706284454244763,0.5916711351871244
5.73965453877251,0.6220307815592284
5.773024623300257,0.6302961226196995
5.806394707828004,0.6052100971650622
5.839764792355751,0.5431189519778866
5.873134876883499,0.44928846289092356
5.906504961411246,0.3355391533807296
5.939875045938993,0.21496503040553377
5.97324513046674,0.0956700291588844
6.006615214994487,-0.02348070536977231
6.039985299522234,-0.15202852815330578
6.073355384049981,-0.30081163671461575
6.106725468577729,-0.47101355798055883
6.140095553105476,-0.6453248899703897
6.173465637633223,-0.7878870585557551
6.20683572216097,-0.8560731982028627
6.240205806688717,-0.8204837496470858
6.273575891216464,-0.6835768460580909
6.3069459757442115,-0.4861390270275611
6.340316060271959,-0.29581394902391
6.373686144799706,-0.18085679045724073
6.407056229327454,-0.18036223624707348
6.440426313855201,-0.28496027171192906
6.473796398382948,-0.4378020709448904
6.507166482910695,-0.5565743076228618
6.540536567438442,-0.5676330425493111
6.5739066519661895,-0.43760008729661476
6.607276736493937,-0.18849113720643795
6.640646821021684,0.11064954054966522
6.674016905549431,0.372477946162521
6.707386990077178,0.5282476608798258
6.740757074604925,0.5567187278049937
6.774127159132672,0.492057656354024
6.8074972436604195,0.4068753265203623
6.840867328188167,0.377797412672497
6.874237412715914,0.44908201185526947
6.907607497243661,0.6108351821743615
6.940977581771408,0.8017240998343651
6.974347666299155,0.9349067848770153
7.007717750826902,0.9354893572337675
7.0410878353546495,0.7729382698028082
7.074457919882397,0.47449249991618786
7.107828004410144,0.11427221612360242
7.141198088937891,-0.21652260394855727
7.174568173465638,-0.4448895648314497
7.207938257993385,-0.541448475836146
7.241308342521132,-0.5257323985616404
7.27467842704888,-0.4506590492693105
7.308048511576627,-0.37499818510247407
7.341418596104374,-0.33743541066308175
7.374788680632121,-0.3437550710460476
7.408158765159868,-0.3712112526859121
7.441528849687615,-0.38551669546782974
7.4748989342153624,-0.36051146662708483
7.50826901874311,-0.290766848214473
7.541639103270857,-0.19226481960850536
7.575009187798604,-0.09273246219206384
7.608379272326351,-0.01780839548644727
7.641749356854098,0.01990228304671894
7.675119441381845,0.02440820236046936
7.7084895259095925,0.012270154787853444
7.74185961043734,0.004162211964785194
7.775229694965087,0.01659982021958667
7.808599779492834,0.05714569824095609
7.841969864020581,0.12377495772310762
7.875339948548328,0.20684339916220199
7.908710033076075,0.2915875964862596
7.9420801176038225,0.3602829530712841
7.97545020213157,0.3947842110502731
8.008820286659317,0.38058709437313687
8.042190371187063,0.31222637530853753
8.075560455714811,0.19778039701517172
8.108930540242557,0.059322983664283596
8.142300624770305,-0.07249102669283418
8.175670709298052,-0.1684492822185289
8.2090407938258,-0.2112931856001321
8.242410878353546,-0.2018553365044937
8.275780962881294,-0.15790107405536508
8.30915104740904,-0.10625945693807869
8.342521131936788,-0.07193821205864982
8.375891216464534,-0.06904870075799872
8.409261300992283,-0.09715833565598801
8.442631385520029,-0.14399365927584196
8.476001470047777,-0.19263881792131088
8.509371554575523,-0.22966349533308056
8.542741639103271,-0.25046849762488094
8.57611172363102,-0.2594732180309852
8.609481808158765,-0.26513173618257574
8.642851892686513,-0.2723485634506847
8.67622197721426,-0.2765116266679735
8.709592061742008,-0.2629549432992916
8.742962146269754,-0.21297679240190603
8.776332230797502,-0.11380883435715465
8.809702315325248,0.03262914631599016
8.843072399852996,0.20704403276910224
8.876442484380743,0.3779416100782664
8.90981256890849,0.5124841824140319
8.943182653436237,0.5882385600227222
8.976552737963985,0.6008546718717533
9.009922822491731,0.5646295508025271
9.04329290701948,0.5057556451112345
9.076662991547225,0.45080083587372816
9.110033076074973,0.4149339669260546
9.14340316060272,0.39494069762287737
9.176773245130468,0.3705548313962762
9.210143329658214,0.31413842312121815
9.243513414185962,0.2046425522326948
9.276883498713708,0.03929186809648595
9.310253583241456,-0.16276896601846577
9.343623667769203,-0.3667101162503612
9.37699375229695,-0.5349875315322573
9.410363836824697,-0.640590991387509
9.443733921352445,-0.6743020576335615
9.477104005880191,-0.643266726111056
9.51047409040794,-0.5630946938050553
9.543844174935685,-0.44909552892745025
9.577214259463434,-0.3121662358821739
9.61058434399118,-0.16134566289836577
9.643954428518928,-0.010288750252252087
9.677324513046674,0.11818022018087203
9.710694597574422,0.1946693797566338
9.744064682102168,0.19396563051351362
9.777434766629916,0.10930892487434196
9.810804851157663,-0.03799560686005784
9.84417493568541,-0.20076787551685313
9.877545020213157,-0.3213938227231391
9.910915104740905,-0.3545678315557716
9.944285189268651,-0.28661809249369946
9.9776552737964,-0.14160791372986972
10.011025358324146,0.02925132552070816
10.044395442851894,0.17002919059029764
10.07776552737964,0.24375631147642227
10.111135611907388,0.24649645416127233
10.144505696435134,0.20595941658050707
10.177875780962882,0.16623135642501732
10.211245865490628,0.16632218889927852
10.244615950018376,0.22236915654524178
10.277986034546123,0.32094738255487604
10.31135611907387,0.4255565210299081
10.344726203601617,0.4926255796153311
10.378096288129365,0.4897626634315456
10.411466372657111,0.40871255882375795
10.44483645718486,0.26824950145173043
10.478206541712606,0.10652442132131826
10.511576626240354,-0.033636157669680006
10.5449467107681,-0.12068421858676207
10.578316795295848,-0.14564579930424768
10.611686879823594,-0.12466935970317895
10.645056964351342,-0.09184160323948924
10.678427048879088,-0.08478974561542614
10.711797133406836,-0.12843775749633676
10.745167217934583,-0.22339718054671925
10.77853730246233,-0.34415104097578275
10.811907386990077,-0.4485559724795638
10.845277471517825,-0.4953765560846823
10.878647556045571,-0.46252040324816807
10.91201764057332,-0.35747679456927334
10.945387725101066,-0.21438135694374286
10.978757809628814,-0.07834256235483741
11.01212789415656,0.015755433726057907
11.045497978684308,0.05946245488526692
11.078868063212054,0.07357104356411727
11.112238147739802,0.09573552575834801
11.145608232267548,0.158857811944228
11.178978316795297,0.27105824421559305
11.212348401323043,0.4075558403700001
11.24571848585079,0.5191510538160643
11.279088570378537,0.5539309955446116
11.312458654906285,0.4821615542120647
11.345828739434031,0.3123455084999896
11.37919882396178,0.09024777609697614
11.412568908489526,-0.11929550755704679
11.445938993017274,-0.2595430442174373
11.47930907754502,-0.3051604562870713
11.512679162072768,-0.27062429805625915
11.546049246600514,-0.20008795116590608
11.579419331128262,-0.14434688768812343
11.612789415656009,-0.1367313878623225
11.646159500183757,-0.1796194451943273
11.679529584711503,-0.24712380350573165
11.71289966923925,-0.3010023931611605
11.746269753766997,-0.3106458688299145
11.779639838294745,-0.26706879406708167
11.813009922822491,-0.18498212830643143
11.84638000735024,-0.09348941188820034
11.879750091877986,-0.021246327524894814
11.913120176405734,0.016302575206055873
11.94649026093348,0.022051709257698802
11.979860345461228,0.013498702386741794
12.013230429988974,0.01310940637240868
12.046600514516722,0.03782846189884412
12.079970599044469,0.09217572114023552
12.113340683572217,0.16700581449068128
12.146710768099963,0.24348098791001346
12.180080852627711,0.3002468600736928
12.213450937155457,0.3213350933003037
12.246821021683205,0.30244262054278054
12.280191106210951,0.25356470830899214
12.3135611907387,0.1965849136971184
12.346931275266446,0.1576963378082638
12.380301359794194,0.15651507461393993
12.41367144432194,0.1958449765999593
12.447041528849688,0.25704060586557353
12.480411613377434,0.30459687542426767
12.513781697905182,0.2997987102709074
12.547151782432929,0.21847131069906664
12.580521866960677,0.06471866390075456
12.613891951488423,-0.12674588637024123
12.647262036016171,-0.30226453606264586
12.680632120543917,-0.41075754932758857
12.714002205071665,-0.42574674592661843
12.747372289599411,-0.3575862891370659
12.78074237412716,-0.24962714629168967
12.814112458654908,-0.15928673762831233
12.847482543182654,-0.132149342614782
12.880852627710402,-0.1808791203689661
12.914222712238148,-0.2789511516956966
12.947592796765896,-0.3725481624510406
12.980962881293642,-0.40541626047639534
13.01433296582139,-0.34515325022453414
13.047703050349137,-0.19855304812410982
13.081073134876885,-0.008834525518542108
13.114443219404631,0.16366755673191993
13.147813303932379,0.267879591760942
13.181183388460125,0.28292796151322475
13.214553472987873,0.22437421577129477
13.24792355751562,0.1340615911655898
13.281293642043368,0.05967892113772557
13.314663726571114,0.03424131607991094
13.348033811098862,0.06449242556114969
13.381403895626608,0.13201526110541567
13.414773980154356,0.2046363936295188
13.448144064682102,0.2515566296688449
13.48151414920985,0.2551328557390428
13.514884233737597,0.21500856555614015
13.548254318265345,0.1444992626052035
13.581624402793091,0.06255508637010285
13.614994487320839,-0.01422550112568479
13.648364571848585,-0.0762576331910323
13.681734656376333,-0.12145082490025022
13.71510474090408,-0.1527535692385276
13.748474825431828,-0.17481934344559805
13.781844909959574,-0.19139090974471926
13.815214994487322,-0.20398213777927598
13.848585079015068,-0.2116410453624499
13.881955163542816,-0.2113604772188172
13.915325248070562,-0.19889872034509348
13.94869533259831,-0.16995908663644016
13.982065417126057,-0.12159699358672191
14.015435501653805,-0.05350933098594335
14.048805586181551,0.03116054560925999
14.082175670709299,0.1256078772947926
14.115545755237045,0.21961223787518397
14.148915839764793,0.300277904056557
14.18228592429254,0.35378518760402106
14.215656008820288,0.36881849838377034
14.249026093348034,0.3414750806614681
14.282396177875782,0.2797209558007197
14.315766262403528,0.20411965389146283
14.349136346931276,0.1422571943636673
14.382506431459023,0.11752836904460655
14.41587651598677,0.1371102563387228
14.449246600514517,0.18599237126437793
14.482616685042265,0.23167772210888973
14.515986769570011,0.2383498484742527
14.54935685409776,0.18348701715633098
14.582726938625505,0.06806205847953163
14.616097023153253,-0.08497572804239012
14.649467107681,-0.24249490834673823
14.682837192208748,-0.37619158856835133
14.716207276736494,-0.47269281343089886
14.749577361264242,-0.5344311427375257
14.782947445791988,-0.5727927294615066
14.816317530319736,-0.5990361413571289
14.849687614847483,-0.6184170315659648
14.88305769937523,-0.6295579380407496
14.916427783902977,-0.6272179357815133
14.949797868430725,-0.6049944186542512
14.983167952958471,-0.5558798034462052
15.01653803748622,-0.4714625808608153
15.049908122013965,-0.3424266797222308
15.083278206541713,-0.1623173460229989
15.11664829106946,0.0662320581023786
15.150018375597208,0.32637731005881027
15.183388460124954,0.5871293699083414
15.216758544652702,0.8102660852654532
15.250128629180448,0.9617945454640772
15.283498713708196,1.022812052820884
15.316868798235943,0.9947806296830513
15.35023888276369,0.8972536904683187
15.383608967291437,0.7599003244248785
15.416979051819185,0.6128815160030417
15.450349136346931,0.47924726920215344
15.48371922087468,0.37093112070350504
15.517089305402425,0.2879480822808513
15.550459389930174,0.2198111959168582
15.58382947445792,0.1487889468366703
15.617199558985668,0.0552029505280949
15.650569643513414,-0.07553377576012897
15.683939728041162,-0.2458913855404057
15.717309812568908,-0.44216015387658814
15.750679897096656,-0.6359679820240381
15.784049981624403,-0.7918900015002057
15.81742006615215,-0.878801736269013
15.850790150679897,-0.8806095331688416
15.884160235207645,-0.8019653803895153
15.917530319735391,-0.6666037446313325
15.95090040426314,-0.5090451610777768
15.984270488790886,-0.36312203081407657
16.017640573318634,-0.2518635933195223
16.05101065784638,-0.182320103504789
16.084380742374126,-0.1465048029521254
16.117750826901876,-0.12704540736149095
16.151120911429622,-0.10458637932608769
16.18449099595737,-0.06400556127284919
16.217861080485115,0.002237075722434031
16.251231165012864,0.09370316813329023
16.28460124954061,0.20353907085770467
16.317971334068357,0.32082762568612266
16.351341418596103,0.4330510417600748
16.384711503123853,0.5285436990118138
16.4180815876516,0.5988942408805918
16.451451672179346,0.6407952585581093
16.484821756707092,0.6563328911603548
16.51819184123484,0.650868173996562
16.551561925762588,0.628804635803573
16.584932010290334,0.5891673227953363
16.61830209481808,0.5238903841791955
16.65167217934583,0.42096805876116133
16.685042263873576,0.2720761372689505
16.718412348401323,0.08116020627225093
16.75178243292907,-0.13115726936735614
16.78515251745682,-0.3311589578838694
16.818522601984565,-0.4833275931212333
16.85189268651231,-0.5644481243569196
16.885262771040058,-0.5733621192182441
16.918632855567807,-0.5310383311740454
16.952002940095554,-0.4706650294473159
16.9853730246233,-0.4227747855016592
17.018743109151046,-0.4028338295463849
17.052113193678796,-0.4069875708741733
17.085483278206542,-0.4170515645816165
17.11885336273429,-0.41120590732865325
17.15222344726204,-0.3746574806374053
17.185593531789785,-0.30550127437627006
17.21896361631753,-0.21403913820594994
17.252333700845277,-0.11698516716241333
17.285703785373027,-0.02981443899327431
