Frequency (Hz),Amplitude
0.0,12.597485072056717
0.01993355481727575,12.596708646412148
0.0398671096345515,12.594382183435291
0.059800664451827246,12.590514117858488
0.079734219269103,12.585118483755009
0.09966777408637874,12.578214878750062
0.11960132890365449,12.569828413781837
0.13953488372093023,12.559989648280709
0.159468438538206,12.548734510602133
0.17940199335548174,12.536104203519333
0.19933554817275748,12.522145094555622
0.21926910299003324,12.506908590917078
0.23920265780730898,12.49045099877101
0.25913621262458475,12.472833366609455
0.27906976744186046,12.454121312436746
0.29900332225913623,12.43438483453077
0.318936877076412,12.413698105546608
0.3388704318936877,12.392139249762234
0.3588039867109635,12.369790103308624
0.37873754152823924,12.34673595728219
0.39867109634551495,12.323065283706935
0.4186046511627907,12.298869444397184
0.4385382059800665,12.274242382871742
0.4584717607973422,12.249280299583596
0.47840531561461797,12.224081310860218
0.49833887043189373,12.19874509209494
0.5182724252491695,12.173372505890114
0.5382059800664452,12.14806521602745
0.5581395348837209,12.122925288327911
0.5780730897009968,12.098054779661982
0.5980066445182725,12.073555316576716
0.6179401993355482,12.04952766521911
0.637873754152824,12.026071294448712
0.6578073089700996,12.003283934245779
0.6777408637873754,11.981261131727749
0.6976744186046512,11.960095807283125
0.717607973421927,11.939877813512275
0.7375415282392027,11.920693499824667
0.7574750830564785,11.902625285675638
0.7774086378737541,11.885751245528965
0.7973421926910299,11.870144708698046
0.8172757475083057,11.855873877245878
0.8372093023255814,11.843001465107015
0.8571428571428572,11.831584361531352
0.877076411960133,11.821673321838261
0.8970099667774087,11.813312688308859
0.9169435215946844,11.806540143835852
0.9368770764119602,11.80138650069471
0.9568106312292359,11.797875526501832
0.9767441860465116,11.79602380908831
0.9966777408637875,11.795840661647437
1.0166112956810631,11.797328069117597
1.036544850498339,11.800480676346591
1.0564784053156147,11.805285818156982
1.0764119601328903,11.811723591003735
1.0963455149501662,11.819766965492185
1.1162790697674418,11.829381938617361
1.1362126245847177,11.840527724199458
1.1561461794019936,11.853156979634488
1.176079734219269,11.86721606675924
1.196013289036545,11.882645344349964
1.2159468438538206,11.899379489540035
1.2358803986710964,11.917347845254708
1.255813953488372,11.936474790622729
1.275747508305648,11.956680131234771
1.2956810631229239,11.977879506077015
1.3156146179401993,11.99998480797078
1.3355481727574752,12.022904614395127
1.3554817275747508,12.046544625652247
1.3754152823920267,12.070808107452958
1.3953488372093024,12.095596335145457
1.4152823920265782,12.120809036979564
1.435215946843854,12.146344833987024
1.4551495016611296,12.172101674259164
1.4750830564784054,12.197977259612633
1.495016611295681,12.223869462848096
1.514950166112957,12.249676734019161
1.5348837209302328,12.27529849433871
1.5548172757475083,12.300635516552237
1.5747508305647842,12.325590290800596
1.5946843853820598,12.35006737517561
1.6146179401993357,12.373973730339975
1.6345514950166113,12.397219037736436
1.6544850498338872,12.419716001049041
1.6744186046511629,12.441380630702454
1.6943521594684385,12.462132511291927
1.7142857142857144,12.48189505192892
1.73421926910299,12.5005957195636
1.754152823920266,12.51816625540907
1.7740863787375416,12.53454287464087
1.7940199335548175,12.549666449582448
1.8139534883720931,12.563482676613003
1.8338870431893688,12.57594222704823
1.8538205980066447,12.587000882250523
1.8737541528239203,12.596619653221437
1.893687707641196,12.604764884918929
1.9136212624584719,12.611408345524115
1.9335548172757475,12.616527300859827
1.9534883720930232,12.620104574135063
1.9734219269102993,12.622128591158251
1.993355481727575,12.622593411127196
2.0132890365448506,12.621498743066738
2.0332225913621262,12.618849947946623
2.0531561461794023,12.614658026472581
2.073089700996678,12.608939592504417
2.0930232558139537,12.601716832015931
2.1129568106312293,12.593017447474578
2.132890365448505,12.58287458748323
2.1528239202657806,12.571326761494678
2.1727574750830567,12.558417739381051
2.1926910299003324,12.544196435616762
2.212624584717608,12.528716777815646
2.2325581395348837,12.512037559351091
2.25249169435216,12.494222275784566
2.2724252491694354,12.475338944831778
2.292358803986711,12.455459909610038
2.312292358803987,12.434661624934968
2.332225913621263,12.41302442647077
2.352159468438538,12.390632282586994
2.3720930232558137,12.367572528837261
2.39202657807309,12.343935585051636
2.4119601328903655,12.319814655126484
2.431893687707641,12.2953054097026
2.4518272425249172,12.270505652045566
2.471760797342193,12.245514967581698
2.4916943521594686,12.22043435769675
2.511627906976744,12.19536585857515
2.5315614617940203,12.170412146039759
2.551495016611296,12.145676127548427
2.5714285714285716,12.121260522708706
2.5913621262458477,12.097267433885433
2.611295681063123,12.073797908693459
2.6312292358803986,12.050951496385713
2.6511627906976742,12.028825800361739
2.6710963455149503,12.007516029228682
2.691029900332226,11.98711454904026
2.7109634551495017,11.967710439515125
2.7308970099667778,11.949389057188199
2.7508305647840534,11.932231608572215
2.770764119601329,11.91631473649631
2.7906976744186047,11.901710122840079
2.810631229235881,11.888484110890328
2.8305647840531565,11.876697350510474
2.850498338870432,11.866404469227517
2.870431893687708,11.857653772206342
2.8903654485049834,11.850486973896565
2.910299003322259,11.844938963903836
2.9302325581395348,11.841037609358619
2.950166112956811,11.838803595733742
2.9700996677740865,11.838250307704355
2.990033222591362,11.839383751254099
3.0099667774086383,11.842202517819468
3.029900332225914,11.846697790835561
3.0498338870431896,11.85285339461153
3.0697674418604657,11.860645885030213
3.089700996677741,11.870044681143012
3.1096345514950166,11.881012236326308
3.129568106312292,11.89350424728694
3.1495016611295683,11.90746989885912
3.169435215946844,11.922852142228365
3.1893687707641196,11.9395880039553
3.2093023255813957,11.957608922956437
3.2292358803986714,11.976841112431945
3.249169435215947,11.997205943613334
3.2691029900332227,12.018620348135931
3.289036544850499,12.04099723582047
3.3089700996677744,12.064245924671779
3.32890365448505,12.088272579967807
3.3488372093023258,12.112980659413672
3.3687707641196014,12.138271361468798
3.388704318936877,12.164044074115319
3.4086378737541527,12.190196821517551
3.428571428571429,12.21662670621977
3.4485049833887045,12.243230344738375
3.46843853820598,12.269904294619407
3.4883720930232562,12.29654547124952
3.508305647840532,12.323051552922662
3.5282392026578075,12.349321372874815
3.548172757475083,12.375255297199027
3.5681063122923593,12.400755587743411
3.588039867109635,12.42572674927185
3.60797342192691,12.450075860329823
3.6279069767441863,12.473712887405977
3.647840531561462,12.496550982112137
3.6677740863787376,12.51850676122074
3.6877076411960132,12.539500569499516
3.7076411960132893,12.559456725368388
3.727574750830565,12.578303749474241
3.7475083056478407,12.595974576335685
3.7674418604651168,12.612406749253326
3.787375415282392,12.627542598712198
3.807308970099668,12.641329404523052
3.8272425249169437,12.653719541958894
3.8471760797342194,12.664670612143738
3.867109634551495,12.674145556943149
3.887043189368771,12.682112758591055
3.9069767441860463,12.68854612426693
3.9269102990033224,12.6934251558107
3.9468438538205985,12.696735004732204
3.9667774086378738,12.698466512638026
3.98671096345515,12.698616237161213
4.0066445182724255,12.697186463440445
4.026578073089701,12.69418520115512
4.046511627906977,12.689626167081896
4.0664451827242525,12.683528753097853
4.086378737541528,12.675917979516004
4.106312292358805,12.666824433601132
4.1262458471760795,12.656284193078815
4.146179401993356,12.644338734418891
4.166112956810632,12.631034825646944
4.186046511627907,12.616424403415298
4.205980066445183,12.600564434048565
4.225913621262459,12.583516758269619
4.245847176079734,12.565347919311122
4.26578073089701,12.546128974125356
4.2857142857142865,12.525935287423719
4.305647840531561,12.504846308306885
4.325581395348838,12.482945329288507
4.345514950166113,12.460319227570743
4.365448504983389,12.437058188499778
4.385382059800665,12.413255411214129
4.40531561461794,12.389006796599517
4.425249169435216,12.36441061778085
4.445182724252492,12.339567173515567
4.465116279069767,12.314578425002317
4.485049833887043,12.289547616785121
4.50498338870432,12.264578882613801
4.524916943521594,12.239776837316416
4.544850498338871,12.215246155946003
4.5647840531561465,12.191091141680097
4.584717607973422,12.167415284174337
4.604651162790698,12.144320810297385
4.624584717607974,12.121908229399496
4.644518272425249,12.100275875486862
4.664451827242526,12.079519448883165
4.6843853820598005,12.059731560153848
4.704318936877076,12.04100127924139
4.724252491694353,12.023413692906336
4.7441860465116275,12.00704947368337
4.764119601328904,11.991984463638975
4.78405315614618,11.97828927625307
4.803986710963455,11.966028919737049
4.823920265780731,11.955262445041779
4.8438538205980075,11.946042621700053
4.863787375415282,11.938415644486227
4.883720930232559,11.932420873664155
4.9036544850498345,11.928090611332603
4.92358803986711,11.925449916069653
4.943521594684386,11.924516457728673
4.963455149501661,11.925300413853611
4.983388704318937,11.927804408768088
5.003322259136213,11.932023495958592
5.023255813953488,11.937945183926026
5.043189368770764,11.94554950523017
5.063122923588041,11.95480912800819
5.083056478405315,11.96568950881918
5.102990033222592,11.978149085260995
5.122923588039868,11.992139506430334
5.142857142857143,12.007605898959131
5.162790697674419,12.02448716606539
5.182724252491695,12.042716316808363
5.20265780730897,12.062220822539896
5.222591362126246,12.082922997396564
5.242524916943522,12.104740399581749
5.262458471760797,12.12758625014097
5.282392026578074,12.151369865936003
5.3023255813953485,12.175997103569737
5.322259136212625,12.201370811100473
5.342192691029901,12.227391284506345
5.362126245847176,12.253956726012893
5.382059800664452,12.28096370157408
5.4019933554817285,12.30830759499311
5.421926910299003,12.335883056380021
5.44186046511628,12.363584442861987
5.4617940199335555,12.391306249685394
5.48172757475083,12.4189435300716
5.501661129568107,12.446392302406956
5.5215946843853825,12.47354994355894
5.541528239202658,12.500315567311267
5.561461794019934,12.526590387099592
5.5813953488372094,12.552278062404131
5.601328903654485,12.577285028314844
5.621262458471762,12.601520807928397
5.641196013289036,12.624898307363189
5.661129568106313,12.647334093289498
5.681063122923589,12.668748652966526
5.700996677740864,12.689066636857405
5.72093023255814,12.708217083957388
5.740863787375416,12.726133630020895
5.760797342192691,12.742754698910389
5.780730897009967,12.758023677315157
5.800664451827243,12.771889073102487
5.820598006644518,12.784304657567974
5.840531561461795,12.795229591846889
5.8604651162790695,12.804628537736626
5.880398671096346,12.81247175316023
5.900332225913622,12.818735172476526
5.920265780730897,12.823400471811459
5.940199335548173,12.826455119551575
5.960132890365449,12.827892412102349
5.980066445182724,12.827711494974567
6.0,12.825917369219727
6.0199335548172765,12.822520883192905
6.039867109634551,12.817538709578809
6.059800664451828,12.810993307574078
6.0797342192691035,12.802912870078416
6.099667774086379,12.793331255707987
6.119601328903655,12.782287905408928
6.139534883720931,12.769827743416979
6.159468438538206,12.75600106228169
6.179401993355482,12.74086339165255
6.1993355481727574,12.724475350509403
6.219269102990033,12.70690248251249
6.23920265780731,12.688215074149266
6.259136212624584,12.66848795536699
6.279069767441861,12.647800282402786
6.299003322259137,12.62623530255827
6.318936877076412,12.60388010071406
6.338870431893688,12.580825327442467
6.3588039867109645,12.557164908655238
6.378737541528239,12.53299573681737
6.398671096345516,12.50841734386955
6.418604651162791,12.483531556130835
6.438538205980066,12.458442131598797
6.458471760797343,12.433254380228048
6.4784053156146175,12.408074767948065
6.498338870431894,12.383010505376411
6.51827242524917,12.358169122393274
6.538205980066445,12.333658029964012
6.558139534883721,12.309584070826986
6.578073089700998,12.286053060899844
6.598006644518272,12.26316932349539
6.617940199335549,12.241035218673565
6.6378737541528245,12.219750670283648
6.6578073089701,12.199412693466204
6.677740863787376,12.180114925580023
6.6976744186046515,12.16194716369221
6.717607973421927,12.144994911910146
6.737541528239203,12.129338941941377
6.7574750830564785,12.115054870330871
6.777408637873754,12.102212755845352
6.797342192691031,12.090876720442859
6.8172757475083055,12.081104597183087
6.837209302325582,12.072947608296952
6.857142857142858,12.066450076441926
6.877076411960133,12.061649171925108
6.897009966777409,12.058574698380482
6.9169435215946855,12.057248919044255
6.93687707641196,12.057686425389521
6.956810631229236,12.059894049463313
6.9767441860465125,12.06387082082526
6.996677740863787,12.069607968525384
7.016611295681064,12.077088968087564
7.036544850498339,12.086289632996836
7.056478405315615,12.097178249729115
7.076411960132891,12.109715754923911
7.096345514950166,12.123855952889528
7.116279069767442,12.139545771255618
7.136212624584719,12.156725552256246
7.156146179401993,12.175329376840763
7.17607973421927,12.195285418577406
7.196013289036546,12.216516324133062
7.21594684385382,12.238939616987535
7.235880398671097,12.262468120967371
7.2558139534883725,12.287010400163858
7.275747508305648,12.312471211826736
7.295681063122924,12.338751968897457
7.3156146179402,12.365751208957315
7.335548172757475,12.393365066511372
7.355481727574752,12.421487745704363
7.3754152823920265,12.450011990761304
7.395348837209303,12.478829551660908
7.415282392026579,12.507831642775496
7.435215946843854,12.536909392443729
7.45514950166113,12.565954281676525
7.475083056478406,12.594858570427592
7.495016611295681,12.623515710085123
7.514950166112956,12.651820741056177
7.5348837209302335,12.67967067451835
7.554817275747508,12.706964857602665
7.574750830564784,12.733605321444479
7.5946843853820605,12.759497111696483
7.614617940199336,12.784548601237216
7.634551495016611,12.808671784931596
7.6544850498338874,12.83178255640481
7.674418604651163,12.853800966880463
7.694352159468439,12.874651466206377
7.714285714285715,12.894263126249829
7.73421926910299,12.912569846887525
7.754152823920266,12.9295105448468
7.774086378737542,12.945029325672806
7.794019933554818,12.959075639105064
7.813953488372093,12.971604418144526
7.83388704318937,12.982576202081988
7.853820598006645,12.991957243740735
7.8737541528239205,12.999719601161578
7.893687707641197,13.005841213928182
7.913621262458472,13.010305964295355
7.9335548172757475,13.013103723244841
7.953488372093024,13.014230381550258
7.9734219269103,13.013687865890248
7.9933554817275745,13.011484140001672
8.013289036544851,13.007633190820801
8.033222591362128,13.002154999512978
8.053156146179402,12.995075497246907
8.073089700996679,12.986426505527012
8.093023255813954,12.976245660855973
8.11295681063123,12.964576323462866
8.132890365448505,12.951467469799944
8.152823920265782,12.936973568482827
8.172757475083056,12.921154439328612
8.192691029900331,12.904075095132518
8.21262458471761,12.885805565818693
8.232558139534884,12.86642070460556
8.252491694352159,12.845999975841899
8.272425249169435,12.82462722419766
8.292358803986712,12.802390424934966
8.312292358803987,12.779381415041001
8.332225913621263,12.755695605075463
8.352159468438538,12.731431671675029
8.372093023255815,12.706691230762125
8.392026578073091,12.681578491630848
8.411960132890366,12.656199892225104
8.43189368770764,12.630663716086561
8.451827242524917,12.605079691629388
8.471760797342194,12.57955857459703
8.491694352159469,12.554211714769764
8.511627906976745,12.529150608219979
8.53156146179402,12.504486436652265
8.551495016611296,12.480329595613577
8.571428571428573,12.45678921361291
8.591362126245848,12.433972664442745
8.611295681063122,12.411985075245356
8.6312292358804,12.390928833104871
8.651162790697676,12.37090309317042
8.67109634551495,12.352003291516004
8.691029900332227,12.334320666115831
8.710963455149502,12.317941789451204
8.730897009966778,12.30294811636231
8.750830564784053,12.289415550808883
8.77076411960133,12.277414035203728
8.790697674418604,12.267007165928256
8.81063122923588,12.258251838527503
8.830564784053157,12.251197925911349
8.850498338870432,12.245887992661007
8.870431893687707,12.242357048254798
8.890365448504983,12.240632341690372
8.91029900332226,12.24073319959632
8.930232558139535,12.242670909499758
8.950166112956811,12.246448649458866
8.970099667774086,12.25206146478594
8.990033222591363,12.259496292089842
9.00996677740864,12.26873203036554
9.029900332225914,12.279739658363155
9.049833887043189,12.292482396990936
9.069767441860467,12.30691591505281
9.089700996677742,12.322988576204407
9.109634551495017,12.340641724634104
9.129568106312293,12.359810006649447
9.14950166112957,12.380421725073909
9.169435215946844,12.402399223141698
9.189368770764121,12.425659294417645
9.209302325581396,12.450113615166917
9.22923588039867,12.47566919555338
9.249169435215949,12.502228846052326
9.269102990033224,12.52969165552094
9.289036544850498,12.557953477470692
9.308970099667773,12.586907421227606
9.328903654485051,12.616444344839486
9.348837209302326,12.646453346791137
9.368770764119601,12.676822253809663
9.388704318936878,12.707438102279053
9.408637873754152,12.73818761102789
9.428571428571429,12.768957643503796
9.448504983388705,12.79963565759502
9.46843853820598,12.830110141601843
9.488372093023255,12.860271035094183
9.508305647840533,12.890010133611327
9.528239202657808,12.91922147636739
9.548172757475083,12.947801716315443
9.56810631229236,12.975650472096822
9.588039867109636,13.00267066155597
9.60797342192691,13.028768816638223
9.627906976744187,13.053855379605524
9.647840531561462,13.077844980604988
9.667774086378738,13.100656696708564
9.687707641196015,13.122214292607799
9.70764119601329,13.142446443199304
9.727574750830565,13.16128693833291
9.747508305647841,13.178674870018293
9.767441860465118,13.194554802397166
9.787375415282392,13.208876924789593
9.807308970099669,13.221597188113495
9.827242524916944,13.232677424959851
9.84717607973422,13.242085453581174
9.867109634551497,13.249795166019998
9.887043189368772,13.255786600567625
9.906976744186046,13.26004599870306
9.926910299003321,13.262565846617148
9.9468438538206,13.263344901380679
9.966777408637874,13.262388201765468
9.986710963455149,13.259707063678343
10.006644518272426,13.255319060117273
10.026578073089702,13.24924798550924
10.046511627906977,13.24152380424102
10.066445182724253,13.232182583148358
10.086378737541528,13.22126640768516
10.106312292358805,13.20882328145614
10.126245847176081,13.194907008761058
10.146179401993356,13.17957705977236
10.16611295681063,13.16289841794526
10.186046511627907,13.14494140924851
10.205980066445184,13.125781512799875
10.225913621262459,13.105499152499366
10.245847176079735,13.08417946927296
10.26578073089701,13.061912073573572
10.285714285714286,13.038790777835013
10.305647840531563,13.014913308639498
10.325581395348838,12.990380998442218
10.345514950166113,12.965298456797013
10.36544850498339,12.939773221148528
10.385382059800666,12.91391538739595
10.40531561461794,12.887837220595562
10.425249169435217,12.861652746349819
10.445182724252492,12.835477323632555
10.465116279069768,12.809427200019805
10.485049833887045,12.783619050532991
10.50498338870432,12.758169501553068
10.524916943521594,12.733194641528906
10.544850498338871,12.708809520474297
10.564784053156147,12.685127640525112
10.584717607973422,12.662260440101978
10.604651162790697,12.640316774491934
10.624584717607974,12.619402395916783
10.64451827242525,12.59961943639059
10.664451827242525,12.58106589687624
10.684385382059801,12.5638351464249
10.704318936877076,12.548015435115662
