Frequency (Hz),Amplitude
0.0,0.74679283079063
0.01978021978021978,0.7473116703235446
0.03956043956043956,0.7488640653480862
0.05934065934065934,0.7514377376642337
0.07912087912087912,0.7550125269053011
0.0989010989010989,0.7595608281201995
0.11868131868131868,0.7650481714214654
0.13846153846153844,0.7714339145804961
0.15824175824175823,0.7786720159793064
0.17802197802197803,0.7867118545035291
0.1978021978021978,0.7954990645288085
0.21758241758241756,0.8049763576266222
0.23736263736263735,0.8150843073851204
0.2571428571428572,0.8257620791737017
0.2769230769230769,0.8369480922093534
0.2967032967032967,0.8485806064594662
0.31648351648351647,0.8605982314312817
0.3362637362637363,0.8729403575850083
0.35604395604395606,0.885547513913471
0.3758241758241758,0.898361657195863
0.3956043956043956,0.9113263996517548
0.4153846153846154,0.9243871823215429
0.4351648351648351,0.9374914016162111
0.45494505494505494,0.950588496242191
0.4747252747252747,0.9636300012302108
0.4945054945054945,0.976569575174756
0.5142857142857143,0.9893630060969103
0.5340659340659341,1.0019682006327222
0.5538461538461538,1.0143451605603704
0.5736263736263736,1.0264559500364083
0.5934065934065934,1.0382646563293765
0.6131868131868132,1.0497373463236912
0.6329670329670329,1.0608420206196052
0.6527472527472528,1.0715485666734528
0.6725274725274726,1.0818287121010641
0.6923076923076923,1.0916559790009106
0.7120879120879121,1.1010056399350137
0.7318681318681318,1.1098546760289176
0.7516483516483516,1.1181817375109242
0.7714285714285715,1.1259671068995751
0.7912087912087912,1.1331926649623119
0.810989010989011,1.1398418595028752
0.8307692307692308,1.1458996769865795
0.8505494505494506,1.1513526169780928
0.8703296703296702,1.1561886693428907
0.8901098901098901,1.1603972941491885
0.9098901098901099,1.1639694041997484
0.9296703296703297,1.1668973501213464
0.9494505494505494,1.1691749079423495
0.9692307692307692,1.17079726909507
0.989010989010989,1.1717610327881312
1.0087912087912088,1.172064200704944
1.0285714285714287,1.1717061739962684
1.0483516483516484,1.17068775254796
1.0681318681318681,1.1690111365183056
1.087912087912088,1.1666799301532147
1.1076923076923075,1.163699147900637
1.1274725274725275,1.1600752228586086
1.1472527472527472,1.1558160176029655
1.1670329670329669,1.1509308374509803
1.1868131868131868,1.1454304462253895
1.2065934065934065,1.1393270845886603
1.2263736263736265,1.1326344910190993
1.2461538461538462,1.125367925497383
1.2659340659340659,1.1175441959634422
1.2857142857142858,1.1091816875871023
1.3054945054945055,1.1003003948700891
1.3252747252747252,1.090921956559735
1.3450549450549452,1.0810696933023587
1.3648351648351649,1.070768647895078
1.3846153846153846,1.060045627903096
1.4043956043956045,1.048929250292388
1.4241758241758242,1.0374499875791154
1.443956043956044,1.0256402148120325
1.4637362637362636,1.0135342564757535
1.4835164835164834,1.0011684321253633
1.5032967032967033,0.9885810992295516
1.523076923076923,0.9758126913046957
1.542857142857143,0.9629057489617637
1.5626373626373626,0.949904940959432
1.5824175824175823,0.9368570717629622
1.6021978021978023,0.9238110714566056
1.621978021978022,0.9108179631646303
1.6417582417582417,0.897930802429082
1.6615384615384616,0.8852045823132018
1.6813186813186813,0.8726960974063519
1.7010989010989013,0.8604637594767923
1.720879120879121,0.8485673573517257
1.7406593406593405,0.8370677538155747
1.7604395604395604,0.8260265130393282
1.7802197802197801,0.8155054534189922
1.7999999999999998,0.8055661228311795
1.8197802197802198,0.796269196294001
1.8395604395604395,0.7876737998723209
1.8593406593406594,0.7798367693152379
1.879120879120879,0.7728118571637056
1.8989010989010988,0.7666489075823221
1.9186813186813187,0.761393023478158
1.9384615384615385,0.757083754989332
1.9582417582417584,0.7537543415282113
1.978021978021978,0.7514310406597445
1.9978021978021978,0.750132575743543
2.0175824175824175,0.7498697302753803
2.0373626373626372,0.7506451103579401
2.0571428571428574,0.7524530881822984
2.076923076923077,0.7552799295830479
2.096703296703297,0.7591040986050831
2.1164835164835165,0.7638967226041566
2.1362637362637362,0.7696221935978852
2.1560439560439564,0.7762388760491276
2.175824175824176,0.7836998883329825
2.195604395604396,0.7919539248049158
2.215384615384615,0.8009460873466766
2.2351648351648348,0.8106186990052937
2.254945054945055,0.8209120772431926
2.2747252747252746,0.8317652497646344
2.2945054945054943,0.8431166013339954
2.314285714285714,0.8549044450343832
2.3340659340659338,0.8670675157538338
2.353846153846154,0.8795453871860851
2.3736263736263736,0.8922788162628956
2.3934065934065933,0.9052100207440648
2.413186813186813,0.9182828967837021
2.4329670329670328,0.9314431837936489
2.452747252747253,0.9446385839723258
2.4725274725274726,0.9578188435847392
2.4923076923076923,0.9709358025768958
2.512087912087912,0.9839434184748642
2.5318681318681318,0.9967977698256802
2.5516483516483515,1.0094570437342154
2.5714285714285716,1.0218815113739022
2.5912087912087913,1.034033494720889
2.610989010989011,1.0458773271951025
2.6307692307692307,1.0573793103913007
2.6505494505494505,1.06850766865098
2.6703296703296706,1.0792325028569718
2.6901098901098903,1.0895257445234352
2.70989010989011,1.0993611109969508
2.7296703296703297,1.1087140623750653
2.7494505494505495,1.1175617605785921
2.769230769230769,1.1258830308791101
2.7890109890109893,1.1336583260766284
2.808791208791209,1.1408696934401927
2.8285714285714287,1.1475007444622303
2.8483516483516484,1.1535366274313563
2.8681318681318677,1.158964002795794
2.887912087912088,1.1637710212678776
2.9076923076923076,1.1679473046065405
2.9274725274725273,1.1714839290086072
2.947252747252747,1.1743734110383708
2.9670329670329667,1.1766096960283043
2.986813186813187,1.1781881488900487
3.0065934065934066,1.179105547283986
3.0263736263736263,1.1793600771059332
3.046153846153846,1.1789513302622627
3.0659340659340657,1.1778803047167206
3.085714285714286,1.1761494068064178
3.1054945054945056,1.1737624558369886
3.1252747252747253,1.1707246909805327
3.145054945054945,1.1670427805117378
3.1648351648351647,1.1627248334292293
3.184615384615385,1.1577804135181395
3.2043956043956046,1.1522205559174175
3.2241758241758243,1.1460577862594628
3.243956043956044,1.139306142450042
3.2637362637362637,1.13198119915162
3.2835164835164834,1.1241000950223945
3.3032967032967036,1.1156815627442211
3.3230769230769233,1.1067459618438131
3.342857142857143,1.0973153142702559
3.3626373626373627,1.0874133426355563
3.3824175824175824,1.077065510950003
3.4021978021978025,1.0662990675866013
3.4219780219780223,1.0551430900846017
3.441758241758242,1.0436285312454319
3.4615384615384617,1.0317882657801245
3.481318681318681,1.019657136529196
3.501098901098901,1.0072719989873138
3.520879120879121,0.9946717625211234
3.5406593406593405,0.9818974262618679
3.5604395604395602,0.9689921071841009
3.58021978021978,0.9560010573441978
3.5999999999999996,0.9429716666534059
3.61978021978022,0.9299534469081112
3.6395604395604395,0.9169979921147339
3.659340659340659,0.9041589094571545
3.679120879120879,0.8914917146069931
3.6989010989010986,0.8790536845315247
3.718681318681319,0.8669036605929957
3.7384615384615385,0.8551017946558532
3.758241758241758,0.8437092312437935
3.7780219780219784,0.8327877196439105
3.7978021978021976,0.8223991513710316
3.8175824175824173,0.8126050206903421
3.8373626373626375,0.803465809022406
3.8571428571428568,0.7950402980214362
3.876923076923077,0.7873848208275074
3.896703296703296,0.7805524662259182
3.916483516483517,0.7745922558436632
3.936263736263736,0.7695483195882913
3.956043956043956,0.7654590987075529
3.9758241758241755,0.7623566085091164
3.9956043956043956,0.7602657933807266
4.015384615384615,0.7592040049054738
4.035164835164835,0.7591806294484309
4.054945054945055,0.7601968847894143
4.0747252747252745,0.7622457967127347
4.094505494505494,0.7653123567306326
4.114285714285715,0.7693738522703406
4.134065934065934,0.7744003516681806
4.153846153846154,0.7803553190298335
4.173626373626373,0.7871963290215037
4.193406593406594,0.7948758492175941
4.213186813186813,0.8033420576893404
4.232967032967033,0.812539665739778
4.252747252747253,0.8224107195550648
4.2725274725274724,0.8328953594468814
4.292307692307692,0.8439325207129446
4.312087912087913,0.8554605654324995
4.331868131868132,0.8674178393530891
4.351648351648352,0.8797431521637584
4.371428571428571,0.8923761827631533
4.391208791208792,0.905257813601658
4.410989010989011,0.9183303998581068
4.43076923076923,0.931537980210038
4.450549450549451,0.9448264363950404
4.4703296703296695,0.958143608770281
4.49010989010989,0.9714393747776608
4.50989010989011,0.9846656967169284
4.52967032967033,0.997776644605066
4.549450549450549,1.0107283992211802
4.569230769230769,1.0234792397521615
4.589010989010989,1.0359895197967925
4.608791208791209,1.0482216348776734
4.628571428571428,1.0601399840613266
4.648351648351649,1.0717109278033883
4.6681318681318675,1.0829027437168393
4.687912087912088,1.0936855816049469
4.707692307692308,1.1040314188006537
4.7274725274725276,1.1139140166060595
4.747252747252747,1.1233088784225382
4.767032967032967,1.1321932099971588
4.786813186813187,1.1405458820806957
4.806593406593407,1.1483473956887327
4.826373626373626,1.1555798500780061
4.846153846153847,1.1622269134895038
4.8659340659340655,1.1682737966653693
4.885714285714286,1.1737072291146862
4.905494505494506,1.1785154380823002
4.9252747252747255,1.1826881301615548
4.945054945054945,1.1862164754857145
4.964835164835165,1.1890930944318037
4.984615384615385,1.1913120467736547
5.004395604395604,1.1928688232271203
5.024175824175824,1.1937603393391827
5.043956043956045,1.1939849316830293
5.0637362637362635,1.1935423563327625
5.083516483516483,1.1924337896038963
5.103296703296703,1.1906618310583927
5.123076923076923,1.1882305087859109
5.142857142857143,1.1851452869850343
5.162637362637362,1.1814130758797994
5.182417582417583,1.1770422440169095
5.2021978021978015,1.1720426329972726
5.221978021978022,1.1664255747015935
5.241758241758242,1.160203911071691
5.2615384615384615,1.1533920165083063
5.281318681318681,1.146005822938594
5.301098901098901,1.1380628475929824
5.320879120879121,1.1295822235090267
5.340659340659341,1.1205847327469936
5.36043956043956,1.1110928422565147
5.380219780219781,1.1011307422722183
5.3999999999999995,1.0907243870355097
5.41978021978022,1.0799015375358088
5.43956043956044,1.0686918058331356
5.4593406593406595,1.0571267003591887
5.479120879120879,1.045239671391608
5.498901098901099,1.033066155649074
5.518681318681319,1.0206436186577401
5.538461538461538,1.0080115931871607
5.558241758241758,0.9952117116406691
5.578021978021979,0.9822877298101023
5.5978021978021975,0.9692855388668655
5.617582417582418,0.9562531618668226
5.637362637362637,0.9432407304070491
5.6571428571428575,0.9303004364090327
5.676923076923077,0.9174864533485613
5.696703296703297,0.9048548206539782
5.716483516483517,0.8924632845164334
5.736263736263735,0.8803710880797868
5.756043956043956,0.8686387040047975
5.775824175824176,0.8573275028468582
5.795604395604395,0.8464993516722996
5.815384615384615,0.8362161389836329
5.835164835164835,0.8265392244260431
5.854945054945055,0.8175288149581035
5.874725274725275,0.8092432731678243
5.894505494505494,0.801738368082802
5.914285714285715,0.7950664839202525
5.934065934065933,0.7892758073821221
5.953846153846154,0.7844095188383086
5.973626373626374,0.7805050164968447
5.993406593406593,0.7775932048613383
6.013186813186813,0.7756978789271006
6.032967032967033,0.7748352333448802
6.052747252747253,0.7750135211154171
6.072527472527473,0.7762328795065456
6.092307692307692,0.7784853323462478
6.112087912087913,0.7817549684224697
6.131868131868131,0.7860182863305522
6.151648351648352,0.7912446876613144
6.171428571428572,0.79739709368616
6.191208791208791,0.8044326561877299
6.210989010989011,0.8123035310197634
6.230769230769231,0.8209576832687125
6.2505494505494505,0.8303396951945863
6.270329670329671,0.8403915519458016
6.29010989010989,0.8510533848014394
6.309890109890111,0.8622641568378279
6.329670329670329,0.8739622809712979
6.349450549450549,0.8860861649375578
6.36923076923077,0.8985746817005806
6.3890109890109885,0.9113675669295013
6.408791208791209,0.9244057475257421
6.428571428571428,0.9376316067793657
6.4483516483516485,0.950989192682173
6.468131868131868,0.9644243763435858
6.487912087912088,0.9778849674656571
6.507692307692308,0.9913207935499948
6.527472527472527,1.0046837490291496
6.547252747252747,1.017927819919843
6.567032967032967,1.0310090889470194
6.5868131868131865,1.0438857254321603
6.606593406593407,1.0565179636087263
6.626373626373626,1.0688680724418025
6.6461538461538465,1.0809003194999327
6.665934065934065,1.0925809309595693
6.685714285714286,1.103878049416655
6.705494505494506,1.1147616908333695
6.725274725274725,1.1252037016563092
6.745054945054945,1.1351777168995427
6.764835164835165,1.1446591197870144
6.7846153846153845,1.1536250033870734
6.804395604395605,1.1620541345426907
6.824175824175824,1.16992692029869
6.8439560439560445,1.177225376948131
6.863736263736263,1.1839331017593788
6.883516483516484,1.1900352474008327
6.903296703296704,1.1955184990476035
6.923076923076923,1.2003710541330237
6.942857142857143,1.2045826046938817
6.962637362637362,1.2081443222514225
6.9824175824175825,1.2110488451682282
7.002197802197802,1.2132902684234352
7.021978021978022,1.2148641357542596
7.041758241758242,1.2157674341193787
7.061538461538461,1.2159985904496204
7.081318681318681,1.2155574706618957
7.101098901098901,1.2144453809240408
7.1208791208791204,1.2126650711697986
7.140659340659341,1.2102207408751258
7.16043956043956,1.207118047117926
7.1802197802197805,1.203364114953595
7.199999999999999,1.1989675501474595
7.21978021978022,1.1939384543119191
7.23956043956044,1.1882884424999758
7.259340659340659,1.1820306633072608
7.279120879120879,1.1751798215308331
7.298901098901099,1.1677522034228969
7.318681318681318,1.1597657045610419
7.338461538461539,1.151239860330647
7.358241758241758,1.1421958789784703
7.3780219780219785,1.1326566771463626
7.397802197802197,1.1226469177275273
7.417582417582418,1.1121930498017913
7.437362637362638,1.1013233502965054
7.457142857142857,1.090067966882036
7.476923076923077,1.0784589614403728
7.496703296703297,1.0665303532366601
7.516483516483516,1.054318160671588
7.536263736263736,1.0418604401914198
7.556043956043957,1.0291973205785692
7.575824175824176,1.0163710304339197
7.595604395604395,1.0034259161928591
7.615384615384615,0.9904084474910447
7.635164835164835,0.9773672061211093
7.654945054945055,0.9643528542111395
7.674725274725275,0.9514180766334261
7.694505494505494,0.9386174920514403
7.7142857142857135,0.9260075264832086
7.734065934065935,0.9136462428640503
7.753846153846154,0.9015931199119701
7.7736263736263735,0.8899087737309743
7.793406593406592,0.8786546161400615
7.813186813186814,0.867892444801558
7.832967032967034,0.8576839619458754
7.852747252747252,0.8480902209322037
7.872527472527472,0.8391710030774743
7.892307692307693,0.8309841310924146
7.912087912087912,0.8235847299497031
7.931868131868132,0.8170244508315234
7.951648351648351,0.8113506786019867
7.971428571428572,0.8066057475644177
7.991208791208791,0.8028261935738841
8.010989010989011,0.8000420723638333
8.03076923076923,0.798276373777754
8.05054945054945,0.7975445592053636
8.07032967032967,0.7978542448812173
8.09010989010989,0.7992050470629507
8.10989010989011,0.8015885969883199
8.129670329670331,0.8049887246483421
8.149450549450549,0.8093818016509652
8.169230769230769,0.8147372256130266
8.189010989010988,0.8210180222995053
8.20879120879121,0.8281815375878198
8.22857142857143,0.8361801894565565
8.248351648351647,0.8449622504941778
8.268131868131867,0.85447263358136
8.287912087912087,0.8646536569610119
8.307692307692308,0.875445769349903
8.327472527472528,0.8867882205558526
8.347252747252746,0.8986196678089005
8.367032967032966,0.910878712360798
8.386813186813187,0.9235043646387462
8.406593406593407,0.9364364392479072
8.426373626373627,0.9496158833824685
8.446153846153845,0.9629850437731262
8.465934065934066,0.9764878782552442
8.485714285714286,0.9900701184950632
8.505494505494505,1.0036793904711587
8.525274725274725,1.0172652990817783
8.545054945054945,1.0307794828263637
8.564835164835165,1.0441756439693508
8.584615384615384,1.057409558994898
8.604395604395604,1.0704390735477278
8.624175824175826,1.0832240854596429
8.643956043956043,1.0957265189031695
8.663736263736263,1.1079102922063393
8.683516483516483,1.1197412814108645
8.703296703296704,1.1311872812617474
8.723076923076924,1.1422179649774034
8.742857142857142,1.1528048438625007
8.762637362637362,1.1629212275854366
8.782417582417583,1.1725421857442107
8.802197802197803,1.1816445111826035
8.821978021978023,1.1902066853879445
8.84175824175824,1.1982088461979776
8.86153846153846,1.2056327579631227
8.881318681318682,1.2124617842475043
8.901098901098901,1.2186808631052957
8.920879120879121,1.2242764849342038
8.940659340659339,1.2292366728840691
8.96043956043956,1.2335509657827113
8.98021978021978,1.23721040353223
9.0,1.240207514925312
9.01978021978022,1.2425363078316192
9.03956043956044,1.24419226170824
9.05934065934066,1.2451723223943145
9.079120879120879,1.2454748991581672
9.098901098901099,1.2450998639744035
9.11868131868132,1.2440485530187466
9.138461538461538,1.2423237703782575
9.158241758241758,1.2399297939852394
9.178021978021977,1.23687238379218
9.197802197802199,1.2331587922138534
9.217582417582419,1.2287977768692782
9.237362637362637,1.2237996156610986
9.257142857142856,1.2181761242314117
9.276923076923078,1.2119406758311835
9.296703296703297,1.2051082236335093
9.316483516483517,1.197695325508245
9.336263736263735,1.1897201712553187
9.356043956043957,1.1812026122648047
9.375824175824176,1.1721641935313265
9.395604395604396,1.162628187896341
9.415384615384616,1.1526196323214153
9.435164835164835,1.1421653659055857
9.454945054945055,1.1312940692465974
9.474725274725275,1.1200363046051056
9.494505494505495,1.1084245561584734
9.514285714285714,1.0964932694218115
9.534065934065934,1.0842788886636698
9.553846153846154,1.0718198908481218
9.573626373626373,1.0591568142895298
9.593406593406593,1.0463322798099304
9.613186813186815,1.033391001740447
9.632967032967032,1.0203797856121029
9.652747252747252,1.007347508845645
9.672527472527472,0.9943450801900351
9.692307692307693,0.9814253730985643
9.712087912087913,0.9686431277049123
9.731868131868131,0.9560548156158226
9.75164835164835,0.9437184614332068
9.771428571428572,0.9316934148323779
9.791208791208792,0.9200400672420375
9.810989010989012,0.9088195077932507
9.83076923076923,0.8980931143270146
9.850549450549451,0.8879220769607697
9.87032967032967,0.8783668540765118
9.89010989010989,0.8694865636239906
9.90989010989011,0.861338316283279
9.92967032967033,0.8539765011692463
9.94945054945055,0.8474520391552136
9.96923076923077,0.8418116232141721
9.989010989010989,0.837096969012939
10.008791208791209,0.8333441018863554
10.028571428571428,0.8305827078170369
10.048351648351648,0.8288355757773452
10.068131868131868,0.8281181565321124
10.08791208791209,0.8284382587394726
10.107692307692307,0.8297958971488358
10.127472527472527,0.8321833003397983
10.147252747252747,0.8355850774141589
10.167032967032966,0.8399785350834155
10.186813186813188,0.8453341294141805
10.206593406593406,0.8516160307189853
10.226373626373626,0.8587827761313438
10.246153846153845,0.8667879824666814
10.265934065934067,0.8755810919925221
10.285714285714286,0.8851081254607978
10.305494505494504,0.8953124198031553
10.325274725274724,0.9061353318030123
10.345054945054946,0.9175168933840175
10.364835164835165,0.9293964084952478
10.384615384615385,0.9417129856176
10.404395604395603,0.9544060034504751
10.424175824175824,0.9674155102455441
10.443956043956044,0.9806825594990437
10.463736263736264,0.994149486321202
10.483516483516484,1.0077601298380554
10.503296703296703,1.0214600075364917
10.523076923076923,1.0351964476354532
10.542857142857143,1.0489186854496928
10.562637362637362,1.0625779293925988
10.582417582417584,1.0761274018135814
10.602197802197802,1.0895223593416345
