Frequency (Hz),Amplitude
0.0,9.875278117208754
0.01978021978021978,9.873411881312215
0.03956043956043956,9.86781840937124
0.05934065934065934,9.858513409386854
0.07912087912087912,9.845523063804668
0.0989010989010989,9.828884032923003
0.11868131868131868,9.808643459142388
0.13846153846153844,9.784858971518505
0.15824175824175823,9.757598689905233
0.17802197802197803,9.726941227781369
0.1978021978021978,9.692975692641392
0.21758241758241756,9.65580168259309
0.23736263736263735,9.615529277539412
0.2571428571428572,9.572279023025132
0.2769230769230769,9.526181904498227
0.2967032967032967,9.477379309367452
0.31648351648351647,9.42602297383165
0.3362637362637363,9.37227491100992
0.35604395604395606,9.31630731641742
0.3758241758241758,9.258302446310331
0.3956043956043956,9.198452463871474
0.4153846153846154,9.136959247632245
0.4351648351648351,9.074034155938794
0.45494505494505494,9.009897740686805
0.4747252747252747,8.944779402990573
0.4945054945054945,8.878916982945244
0.5142857142857143,8.812556275219213
0.5340659340659341,8.745950461917399
0.5538461538461538,8.67935945403081
0.5736263736263736,8.613049132888293
0.5934065934065934,8.547290483409949
0.6131868131868132,8.482358611690243
0.6329670329670329,8.418531640574765
0.6527472527472528,8.356089478496173
0.6725274725274726,8.295312458951006
0.6923076923076923,8.236479850664749
0.7120879120879121,8.1798682417186
0.7318681318681318,8.12574980467937
0.7516483516483516,8.074390454027473
0.7714285714285715,8.026047911816447
0.7912087912087912,7.980969702372674
0.810989010989011,7.939391101758253
0.8307692307692308,7.901533072432205
0.8505494505494506,7.867600217777836
0.8703296703296702,7.837778794620578
0.8901098901098901,7.812234824244682
0.9098901098901099,7.79111234345931
0.9296703296703297,7.774531836747582
0.9494505494505494,7.762588888318946
0.9692307692307692,7.755353088940174
0.989010989010989,7.752867226823815
1.0087912087912088,7.75514678480518
1.0285714285714287,7.762179757852689
1.0483516483516484,7.7739267960348615
1.0681318681318681,7.790321668875057
1.087912087912088,7.811272038049435
1.1076923076923075,7.836660517092981
1.1274725274725275,7.866345989585141
1.1472527472527472,7.90016515151463
1.1670329670329669,7.937934239385046
1.1868131868131868,7.979450903213708
1.2065934065934065,8.024496182871623
1.2263736263736265,8.072836547086348
1.2461538461538462,8.124225956672424
1.2659340659340659,8.178407916900928
1.2857142857142858,8.235117488075995
1.3054945054945055,8.294083228054792
1.3252747252747252,8.355029045347678
1.3450549450549452,8.417675946321841
1.3648351648351649,8.48174366470133
1.3846153846153846,8.546952165856212
1.4043956043956045,8.613023022197137
1.4241758241758242,8.679680659278263
1.443956043956044,8.746653474938476
1.4637362637362636,8.813674835987081
1.4835164835164834,8.880483958596745
1.5032967032967033,8.946826679752073
1.523076923076923,9.012456127874279
1.542857142857143,9.077133301162256
1.5626373626373626,9.140627562320697
1.5824175824175823,9.202717058244733
1.6021978021978023,9.263189072951747
1.621978021978022,9.321840321643057
1.6417582417582417,9.378477193279876
1.6615384615384616,9.432915948505235
1.6813186813186813,9.484982879162628
1.7010989010989013,9.53451443507507
1.720879120879121,9.581357323171584
1.7406593406593405,9.625368583493556
1.7604395604395604,9.666415646089481
1.7802197802197801,9.70437637231828
1.7999999999999998,9.739139083631622
1.8197802197802198,9.77060258049516
1.8395604395604395,9.798676153736878
1.8593406593406594,9.823279590275954
1.879120879120879,9.844343174885427
1.8989010989010988,9.861807689373201
1.9186813186813187,9.87562441032569
1.9384615384615385,9.885755106342325
1.9582417582417584,9.892172035494468
1.978021978021978,9.894857943564311
1.9978021978021978,9.89380606345525
2.0175824175824175,9.88902011601023
2.0373626373626372,9.880514312326182
2.0571428571428574,9.868313357505821
2.076923076923077,9.852452455640153
2.096703296703297,9.83297731566185
2.1164835164835165,9.80994415754742
2.1362637362637362,9.7834197181711
2.1560439560439564,9.753481255922296
2.175824175824176,9.720216552986598
2.195604395604396,9.683723913955143
2.215384615384615,9.644112159163916
2.2351648351648348,9.601500610870634
2.254945054945055,9.556019070048936
2.2747252747252746,9.507807781214643
2.2945054945054943,9.457017382295774
2.314285714285714,9.403808836115246
2.3340659340659338,9.34835333957341
2.353846153846154,9.290832206099642
2.3736263736263736,9.231436716391622
2.3934065934065933,9.170367931886615
2.413186813186813,9.107836464821014
2.4329670329670328,9.044062198148671
2.452747252747253,8.979273948025616
2.4725274725274726,8.913709061054426
2.4923076923076923,8.84761293804879
2.512087912087912,8.78123847576697
2.5318681318681318,8.71484541791741
2.5516483516483515,8.648699606814072
2.5714285714285716,8.583072127410546
2.5912087912087913,8.51823833613206
2.610989010989011,8.454476768015724
2.6307692307692307,8.392067917220258
2.6505494505494505,8.331292888027802
2.6703296703296706,8.272431916068545
2.6901098901098903,8.215762762667056
2.70989010989011,8.16155898892384
2.7296703296703297,8.11008812035261
2.7494505494505495,8.06160971749968
2.769230769230769,8.016373372831769
2.7890109890109893,7.974616659101872
2.808791208791209,7.936563059151577
2.8285714285714287,7.902419911409156
2.8483516483516484,7.8723764089009824
2.8681318681318677,7.846601692111036
2.887912087912088,7.825243077227885
2.9076923076923076,7.808424460984606
2.9274725274725273,7.7962449412791335
2.947252747252747,7.788777689012498
2.9670329670329667,7.786069101166098
2.986813186813187,7.788138258246127
3.0065934065934066,7.794976701150068
3.0263736263736263,7.806548533654236
3.046153846153846,7.822790847538974
3.0659340659340657,7.843614458346553
3.085714285714286,7.868904931376738
3.1054945054945056,7.898523870188093
3.1252747252747253,7.9323104339216854
3.145054945054945,7.970083045427156
3.1648351648351647,8.011641249554414
3.184615384615385,8.05676768006954
3.2043956043956046,8.105230094344417
3.2241758241758243,8.156783437056097
3.243956043956044,8.211171897355419
3.2637362637362637,8.268130928032086
3.2835164835164834,8.327389199818668
3.3032967032967036,8.38867046885563
3.3230769230769233,8.45169534023344
3.342857142857143,8.51618291522842
3.3626373626373627,8.581852314196608
3.3824175824175824,8.648424070973341
3.4021978021978025,8.71562139797942
3.4219780219780223,8.78317132403016
3.441758241758242,8.850805709087123
3.4615384615384617,8.91826214191202
3.481318681318681,8.985284727825302
3.501098901098901,9.051624774594167
3.520879120879121,9.11704138493787
3.5406593406593405,9.181301964303527
3.5604395604395602,9.244182652493523
3.58021978021978,9.305468687468476
3.5999999999999996,9.364954709258038
3.61978021978022,9.4224450114253
3.6395604395604395,9.477753746984495
3.659340659340659,9.530705095095271
3.679120879120879,9.581133394270404
3.6989010989010986,9.628883247256557
3.718681318681319,9.67380960219058
3.7384615384615385,9.7157778141066
3.758241758241758,9.754663690376127
3.7780219780219784,9.790353523209708
3.7978021978021976,9.822744111932641
3.8175824175824173,9.851742777371209
3.8373626373626375,9.877267370346148
3.8571428571428568,9.899246275965536
3.876923076923077,9.917618415136625
3.896703296703296,9.932333244471655
3.916483516483517,9.94335075554372
3.936263736263736,9.95064147425065
3.956043956043956,9.954186460864511
3.9758241758241755,9.953977311177866
3.9956043956043956,9.950016159001393
4.015384615384615,9.942315680117254
4.035164835164835,9.93089909764501
4.054945054945055,9.915800188628227
4.0747252747252745,9.897063291496245
4.094505494505494,9.874743313893626
4.114285714285715,9.84890574019503
4.134065934065934,9.819626637833062
4.153846153846154,9.786992661355805
4.173626373626373,9.751101052896992
4.193406593406594,9.71205963748034
4.213186813186813,9.669986811287835
4.232967032967033,9.62501152069561
4.252747252747253,9.577273229519356
4.2725274725274724,9.526921871510151
4.292307692307692,9.474117784701738
4.312087912087913,9.41903162373125
4.331868131868132,9.361844245739197
4.351648351648352,9.302746564906323
4.371428571428571,9.241939370110963
4.391208791208792,9.179633099602635
4.410989010989011,9.116047565999647
4.43076923076923,9.051411624351843
4.450549450549451,8.985962775488277
4.4703296703296695,8.919946696426985
4.49010989010989,8.853616689297844
4.50989010989011,8.787233040065264
4.52967032967033,8.721062278387514
4.549450549450549,8.655376330270514
4.569230769230769,8.590451555827881
4.589010989010989,8.526567665507145
4.608791208791209,8.464006509644921
4.628571428571428,8.403050738221594
4.648351648351649,8.34398233023824
4.6681318681318675,8.287080995250225
4.687912087912088,8.232622453252441
4.707692307692308,8.180876603272559
4.7274725274725276,8.132105595600096
4.747252747252747,8.086561827423154
4.767032967032967,8.044485886574883
4.786813186813187,8.006104472876032
4.806593406593407,7.971628330928509
4.826373626373626,7.941250231874493
4.846153846153847,7.915143044289317
4.8659340659340655,7.893457935746081
4.885714285714286,7.876322746446756
4.905494505494506,7.863840574499968
4.9252747252747255,7.856088608880887
4.945054945054945,7.853117240886226
4.964835164835165,7.854949478168847
4.984615384615385,7.861580677490039
5.004395604395604,7.872978603544893
5.024175824175824,7.8890838120499405
5.043956043956045,7.909810346215191
5.0637362637362635,7.935046727229995
5.083516483516483,7.964657211900653
5.103296703296703,7.998483284434081
5.123076923076923,8.036345344805902
5.142857142857143,8.078044553306901
5.162637362637362,8.123364789733035
5.182417582417583,8.172074686169442
5.2021978021978015,8.223929694228206
5.221978021978022,8.27867415068064
5.241758241758242,8.336043309389884
5.2615384615384615,8.395765312001302
5.281318681318681,8.457563074701273
5.301098901098901,8.521156073255455
5.320879120879121,8.586262013271314
5.340659340659341,8.652598377031529
5.36043956043956,8.719883842196273
5.380219780219781,8.78783957110227
5.3999999999999995,8.856190372261604
5.41978021978022,8.924665737985354
5.43956043956044,8.993000763851313
5.4593406593406595,9.06093695704606
5.479120879120879,9.12822294149361
5.498901098901099,9.194615068197674
5.518681318681319,9.259877939432648
5.538461538461538,9.323784855380644
5.558241758241758,9.386118191581758
5.578021978021979,9.44666971519301
5.5978021978021975,9.505240847578591
5.617582417582418,9.561642880217562
5.637362637362637,9.61569715034295
5.6571428571428575,9.667235182141807
5.676923076923077,9.716098798767336
5.696703296703297,9.762140209854241
5.716483516483517,9.805222078696689
5.736263736263735,9.845217572750569
5.756043956043956,9.882010400661514
5.775824175824176,9.915494838598903
5.795604395604395,9.945575748293182
5.815384615384615,9.97216858882891
5.835164835164835,9.995199423935107
5.854945054945055,10.014604926236965
5.874725274725275,10.030332379683303
5.894505494505494,10.042339681140914
5.914285714285715,10.0505953419447
5.934065934065933,10.055078490008741
5.953846153846154,10.055778872933784
5.973626373626374,10.052696862387585
5.993406593406593,10.045843459882056
6.013186813186813,10.03524030392204
6.032967032967033,10.02091967835029
6.052747252747253,10.002924521558858
6.072527472527473,9.981308436074533
6.092307692307692,9.956135697851078
6.112087912087913,9.927481264410916
6.131868131868131,9.895430780768917
6.151648351648352,9.860080581837671
6.171428571428572,9.821537689753967
6.191208791208791,9.779919804275224
6.210989010989011,9.73535528407113
6.230769230769231,9.687983116375074
6.2505494505494505,9.63795287206153
6.270329670329671,9.585424642777612
6.29010989010989,9.530568956279588
6.309890109890111,9.473566665610974
6.329670329670329,9.414608807211348
6.349450549450549,9.353896422471232
6.36923076923077,9.291640336659391
6.3890109890109885,9.228060888558483
6.408791208791209,9.163387603572854
6.428571428571428,9.09785880254383
6.4483516483516485,9.03172113805369
6.468131868131868,8.965229049658246
6.487912087912088,8.898644129303573
6.507692307692308,8.832234388206894
6.527472527472527,8.766273416771144
6.547252747252747,8.701039429718712
6.567032967032967,8.636814189633919
6.5868131868131865,8.57388180355645
6.606593406593407,8.512527389221493
6.626373626373626,8.453035610036506
6.6461538461538465,8.39568908093914
6.665934065934065,8.340766650887147
6.685714285714286,8.28854157184688
6.705494505494506,8.239279568685818
6.725274725274725,8.193236829205746
6.745054945054945,8.150657938495717
6.764835164835165,8.111773786610852
6.7846153846153845,8.076799483029516
6.804395604395605,8.045932315115987
6.824175824175824,8.019349790620618
6.8439560439560445,7.997207805804267
6.863736263736263,7.979638980840516
6.883516483516484,7.966751202560022
6.903296703296704,7.958626411283491
6.923076923076923,7.955319663479058
6.942857142857143,7.956858495433759
6.962637362637362,7.963242605318288
6.9824175824175825,7.974443862319688
7.002197802197802,7.9904066423630535
7.021978021978022,8.011048480819383
7.041758241758242,8.036261023981522
7.061538461538461,8.065911253418466
7.081318681318681,8.099842950949423
7.101098901098901,8.137878367169098
7.1208791208791204,8.179820053345713
7.140659340659341,8.225452815124621
7.16043956043956,8.274545746716536
7.1802197802197805,8.32685430595268
7.199999999999999,8.382122393505544
7.21978021978022,8.440084403420324
7.23956043956044,8.500467216581121
7.259340659340659,8.562992113561029
7.279120879120879,8.627376588215359
7.298901098901099,8.693336048153423
7.318681318681318,8.760585392692548
7.338461538461539,8.82884046293304
7.358241758241758,8.897819362116028
7.3780219780219785,8.967243647398455
7.397802197802197,9.036839396597227
7.417582417582418,9.106338155339504
7.437362637362638,9.175477771449348
7.457142857142857,9.2440031243564
7.476923076923077,9.311666757889036
7.496703296703297,9.378229425074872
7.516483516483516,9.443460553575228
7.536263736263736,9.507138640182601
7.556043956043957,9.569051582462192
7.575824175824176,9.628996955162725
7.595604395604395,9.686782238495585
7.615384615384615,9.742225004814893
7.635164835164835,9.79515306964776
7.654945054945055,9.845404612444353
7.674725274725275,9.892828271852897
7.694505494505494,9.937283219787606
7.7142857142857135,9.978639218052793
7.734065934065935,10.016776660818905
7.753846153846154,10.051586605816848
7.7736263736263735,10.082970796726817
7.793406593406592,10.110841678884604
7.813186813186814,10.135122410110965
7.832967032967034,10.155746868184723
7.852747252747252,10.172659656224738
7.872527472527472,10.185816107016496
7.892307692307693,10.195182287111994
7.912087912087912,10.200735001343094
7.931868131868132,10.20246179821498
7.951648351648351,10.200360976483632
7.971428571428572,10.194441593066106
7.991208791208791,10.184723472280737
8.010989010989011,10.17123721626228
8.03076923076923,10.154024216241268
8.05054945054945,10.133136664213064
8.07032967032967,10.108637564347084
8.09010989010989,10.08060074329585
8.10989010989011,10.04911085835415
8.129670329670331,10.014263402185788
8.149450549450549,9.9761647025762
8.169230769230769,9.934931915379956
8.189010989010988,9.890693008509283
8.20879120879121,9.843586734451117
8.22857142857143,9.793762588402592
8.248351648351647,9.741380748678552
8.268131868131867,9.686611995568217
8.287912087912087,9.629637604304312
8.307692307692308,9.570649207260063
8.327472527472528,9.509848619914521
8.347252747252746,9.447447624534393
8.367032967032966,9.383667704924974
8.386813186813187,9.318739725023306
8.406593406593407,9.25290354356697
8.426373626373627,9.186407556602935
8.446153846153845,9.119508159240109
8.465934065934066,9.05246911783984
8.485714285714286,8.985560843832022
8.505494505494505,8.919059560596658
8.525274725274725,8.853246355422336
8.545054945054945,8.788406109506612
8.564835164835165,8.724826300359751
8.584615384615384,8.662795672865887
8.604395604395604,8.602602777687824
8.624175824175826,8.544534378694891
8.643956043956043,8.488873734644434
8.663736263736263,8.435898764418958
8.683516483516483,8.385880109632593
8.703296703296704,8.339079113248392
8.723076923076924,8.29574573781731
8.742857142857142,8.25611645183968
8.762637362637362,8.220412117300187
8.782417582417583,8.188835915347658
8.802197802197803,8.161571350083863
8.821978021978023,8.138780372203598
8.84175824175824,8.120601664546426
8.86153846153846,8.10714913029655
8.881318681318682,8.098510621512505
8.901098901098901,8.094746940900484
8.920879120879121,8.095891143401815
8.940659340659339,8.101948156500836
8.96043956043956,8.112894729530648
8.98021978021978,8.128679713095577
9.0,8.149224660519112
9.01978021978022,8.174424734446054
9.03956043956044,8.204149893823912
9.05934065934066,8.23824632983619
9.079120879120879,8.276538114235084
9.098901098901099,8.318829020084735
9.11868131868132,8.36490447322178
9.138461538461538,8.414533592697255
9.158241758241758,8.467471279922167
9.178021978021977,8.523460318961321
9.197802197802199,8.58223345413059
9.217582417582419,8.643515415452512
9.237362637362637,8.707024867325151
9.257142857142856,8.772476260691183
9.276923076923078,8.839581573831095
9.296703296703297,8.908051931462325
9.316483516483517,8.977599095971177
9.336263736263735,9.047936828248226
9.356043956043957,9.118782118694602
9.375824175824176,9.18985629150624
9.395604395604396,9.260885987341897
9.415384615384616,9.331604030978072
9.435164835164835,9.401750191600245
9.454945054945055,9.471071844033787
9.474725274725275,9.539324539542859
9.494505494505495,9.606272494879509
9.514285714285714,9.671689008107332
9.534065934065934,9.735356809404205
9.553846153846154,9.797068354612167
9.573626373626373,9.856626068788271
9.593406593406593,9.91384254644851
9.613186813186815,9.968540714615076
9.632967032967032,10.020553964193047
9.652747252747252,10.069726254632728
9.672527472527472,10.115912196288036
9.692307692307693,10.158977114367412
9.712087912087913,10.198797097895776
9.731868131868131,10.23525903666643
9.75164835164835,10.268260648761277
9.771428571428572,10.297710500854178
9.791208791208792,10.323528023185869
9.810989010989012,10.345643520804453
9.83076923076923,10.36399818240233
9.850549450549451,10.378544087843355
9.87032967032967,10.389244215260396
9.89010989010989,10.396072448409123
9.90989010989011,10.399013584785259
9.92967032967033,10.398063344845347
9.94945054945055,10.393228382512602
9.96923076923077,10.384526296994142
9.989010989010989,10.371985645782233
10.008791208791209,10.355645958553666
10.028571428571428,10.335557751517353
10.048351648351648,10.311782541583389
10.068131868131868,10.284392859536576
10.08791208791209,10.25347226118754
10.107692307692307,10.21911533524227
10.127472527472527,10.181427706372629
10.147252747252747,10.140526031681691
10.167032967032966,10.096537988436141
10.186813186813188,10.04960225057993
10.206593406593406,9.99986845114706
10.226373626373626,9.9474971272549
10.246153846153845,9.892659643883052
10.265934065934067,9.83553809212771
10.285714285714286,9.776325157070964
10.305494505494504,9.715223949825443
10.325274725274724,9.652447797715759
10.345054945054946,9.588219985953213
10.364835164835165,9.522773443567809
10.384615384615385,9.45635036580445
10.404395604395603,9.389201764698786
10.424175824175824,9.321586939158868
10.443956043956044,9.253772855634478
10.463736263736264,9.186033430406829
10.483516483516484,9.11864870473374
10.503296703296703,9.051903904599506
10.523076923076923,8.986088377707922
10.542857142857143,8.921494401683129
10.562637362637362,8.858415859262626
10.582417582417584,8.797146778625175
10.602197802197802,8.737979739920604
10.621978021978022,8.681204152560552
10.641758241758241,8.627104411858387
10.661538461538463,8.575957948099909
10.681318681318682,8.52803318596857
10.7010989010989,8.483587437272199
10.72087912087912,8.442864754908516
10.740659340659342,8.406093780708177
10.760439560439561,8.373485623917505
10.780219780219781,8.345231810328617
10.799999999999999,8.32150234413638
10.819780219780219,8.302443925243528
10.83956043956044,8.288178363745502
10.85934065934066,8.278801230597542
10.87912087912088,8.27438077899066
