Time (s),Filtered Signal
0.0,-0.030180909957820554
0.03337004405286344,0.3563089253563148
0.06674008810572687,0.6585832265637536
0.10011013215859031,0.8250693649694928
0.13348017621145375,0.8528699061722936
0.16685022026431717,0.7802113893920648
0.20022026431718062,0.6616089803720345
0.23359030837004408,0.5407486992405451
0.2669603524229075,0.4355099623944174
0.3003303964757709,0.340764706775123
0.33370044052863435,0.24357574526943565
0.3670704845814978,0.13898254099367477
0.40044052863436125,0.036111105508629636
0.43381057268722467,-0.04794845063947862
0.46718061674008815,-0.1006778202125445
0.5005506607929515,-0.12359064298283469
0.533920704845815,-0.13200609001772562
0.5672907488986785,-0.14544466039854514
0.6006607929515418,-0.17512351204694349
0.6340308370044053,-0.21663538969897328
0.6674008810572687,-0.2523374780527457
0.7007709251101322,-0.26184158424063236
0.7341409691629956,-0.23416666239401163
0.767511013215859,-0.17436716514826925
0.8008810572687225,-0.10096784099756222
0.834251101321586,-0.03601765051447454
0.8676211453744493,0.006267481443093577
0.9009911894273128,0.025811620331900632
0.9343612334801763,0.03474180984018541
0.9677312775330397,0.0489281172636704
1.001101321585903,0.07829283015528136
1.0344713656387665,0.12138312401567145
1.06784140969163,0.16669766137305828
1.1012114537444935,0.19917816275431757
1.134581497797357,0.20769377177042064
1.1679515418502202,0.18955025279220805
1.2013215859030837,0.1503939853749827
1.2346916299559472,0.10052701568063735
1.2680616740088106,0.05006258710200029
1.3014317180616741,0.005209199619817514
1.3348017621145374,-0.03303653108488343
1.3681718061674009,-0.06760471492913818
1.4015418502202643,-0.10222559610782826
1.4349118942731278,-0.13802950587294832
1.4682819383259913,-0.1718864322518835
1.5016519823788548,-0.19795352469279423
1.535022026431718,-0.21209270568203628
1.5683920704845815,-0.2165532715681397
1.601762114537445,-0.22124431932169264
1.6351321585903085,-0.2393285804296783
1.668502202643172,-0.2783930561818581
1.7018722466960352,-0.3319945920441167
1.7352422907488987,-0.37740941785538185
1.7686123348017622,-0.38275698362397476
1.8019823788546256,-0.3214716042918367
1.8353524229074891,-0.18731260614131184
1.8687224669603526,-0.0017415267419205723
1.9020925110132159,0.19128653913070315
1.9354625550660793,0.34179219177366377
1.9688325991189428,0.41422409185951586
2.002202643171806,0.4022742138203085
2.0355726872246698,0.33100292106381135
2.068942731277533,0.2453283895720274
2.1023127753303967,0.19037802587120226
2.13568281938326,0.19274070267506066
2.1690528634361232,0.25073761415766527
2.202422907488987,0.3372343921688884
2.23579295154185,0.4127447309977958
2.269162995594714,0.44239065306153114
2.302533039647577,0.40935423127010734
2.3359030837004404,0.3197460668187703
2.369273127753304,0.19790593760478883
2.4026431718061674,0.075115062848097
2.436013215859031,-0.02300841013355977
2.4693832599118943,-0.08520977343971668
2.5027533039647576,-0.11629574725463902
2.5361233480176213,-0.13192438921002422
2.5694933920704845,-0.14949052719833308
2.6028634361233483,-0.179529857949669
2.6362334801762115,-0.2214334504780567
2.6696035242290748,-0.26495866599285217
2.7029735682819385,-0.29623147925134224
2.7363436123348017,-0.3050596037263762
2.7697136563876654,-0.2902195290086323
2.8030837004405287,-0.2606940988291124
2.8364537444933924,-0.2326313407534353
2.8698237885462556,-0.22318256319582727
2.903193832599119,-0.24314904263433165
2.9365638766519826,-0.29077822481806687
2.969933920704846,-0.3491747028216427
3.0033039647577096,-0.3892436899745457
3.036674008810573,-0.37845487974723696
3.070044052863436,-0.29322494547453737
3.1034140969162998,-0.13041731498708437
3.136784140969163,0.08726358771764206
3.1701541850220267,0.315471211323659
3.20352422907489,0.5016300181416011
3.2368942731277532,0.6028272419982805
3.270264317180617,0.6008704292095073
3.30363436123348,0.5080232205663773
3.337004405286344,0.3610096033335188
3.370374449339207,0.20618328126921448
3.4037444933920704,0.08254521191017926
3.437114537444934,0.009722129205225059
3.4704845814977974,-0.014854241651357332
3.503854625550661,-0.009800441304787461
3.5372246696035243,0.0012865333252079117
3.5705947136563876,0.00028028421223213606
3.6039647577092513,-0.01994124755457718
3.6373348017621145,-0.056101553070780824
3.6707048458149782,-0.09927446261433391
3.7040748898678415,-0.1401063716200089
3.737444933920705,-0.17149986818811033
3.7708149779735685,-0.18814141406286133
3.8041850220264317,-0.18473023100932778
3.8375550660792954,-0.15565274226197442
3.8709251101321587,-0.09757955009446839
3.9042951541850224,-0.013936479008956558
3.9376651982378856,0.08184366185986654
3.971035242290749,0.1674868891691103
4.004405286343612,0.218537901974131
4.037775330396476,0.2183240746050006
4.0711453744493395,0.16650931845750977
4.104515418502203,0.08138922225742018
4.137885462555066,-0.006250744099018465
4.171255506607929,-0.0656177020530492
4.2046255506607935,-0.07904457196249612
4.237995594713657,-0.04929524208657981
4.27136563876652,0.0027436150371230312
4.304735682819383,0.048890831536036
4.3381057268722465,0.06749539978798413
4.371475770925111,0.05322479207273665
4.404845814977974,0.018049431575551445
4.438215859030837,-0.016585879070785778
4.4715859030837,-0.03181733201770873
4.504955947136564,-0.021111881178115008
4.538325991189428,0.007185437550219635
4.571696035242291,0.035254797939544995
4.605066079295154,0.04563780615527296
4.638436123348018,0.02994700708075227
4.671806167400881,-0.007969340439030451
4.705176211453745,-0.05541746029847135
4.738546255506608,-0.09826441400611444
4.7719162995594715,-0.12807635803313266
4.805286343612335,-0.1454098724145903
4.838656387665198,-0.1580549439349754
4.872026431718062,-0.17561423351641064
4.905396475770925,-0.20336391632428996
4.938766519823789,-0.23837733159255098
4.972136563876652,-0.2696391183287039
5.005506607929515,-0.28202366829047887
5.038876651982379,-0.26236644714085816
5.072246696035243,-0.20505658785205955
5.105616740088106,-0.11487715391502482
5.138986784140969,-0.006011438516887374
5.172356828193832,0.10233100644120441
5.2057268722466965,0.19197084030933176
5.23909691629956,0.2512821310876192
5.272466960352423,0.278267167322303
5.305837004405286,0.2801950673837173
5.3392070484581495,0.2700383162935601
5.372577092511014,0.2610744870557969
5.405947136563877,0.26167724314910173
5.43931718061674,0.27222781400599894
5.4726872246696034,0.28524671792464196
5.506057268722468,0.2886226366031708
5.539427312775331,0.2707097440844231
5.572797356828194,0.22546148404448393
5.606167400881057,0.1557662970309459
5.639537444933921,0.07364172811027829
5.672907488986785,-0.003186990131779439
5.706277533039648,-0.05761104360643042
5.739647577092511,-0.0803331450359873
5.7730176211453745,-0.07495496144381075
5.806387665198238,-0.058112447910237265
5.839757709251102,-0.05346503158004579
5.873127753303965,-0.08116090974154223
5.9064977973568284,-0.14715276611621764
5.939867841409692,-0.237820027328077
5.973237885462555,-0.3236868064625312
6.006607929515419,-0.37188345510420445
6.039977973568282,-0.36221201013279997
6.073348017621146,-0.29887126985626083
6.106718061674009,-0.21103862113034572
6.140088105726872,-0.14055190705343512
6.173458149779736,-0.12157855650989995
6.2068281938325995,-0.16193686593395532
6.240198237885463,-0.23588829188561314
6.273568281938326,-0.2932497817675448
6.306938325991189,-0.2817489410843042
6.3403083700440535,-0.17255236062847149
6.373678414096917,0.023446836825058978
6.40704845814978,0.2571368744855688
6.440418502202643,0.4606036414496444
6.4737885462555065,0.575697510863461
6.507158590308371,0.5782718453516358
6.540528634361234,0.48659781613410685
6.573898678414097,0.3502516660050385
6.60726872246696,0.22542811112431513
6.640638766519824,0.14920375005731495
6.674008810572688,0.1253851988531456
6.707378854625551,0.1282200476283306
6.740748898678414,0.12080804187747726
6.774118942731278,0.0775387097595208
6.807488986784141,-0.0017246594990275284
6.840859030837005,-0.09293800128423589
6.874229074889868,-0.16305769235626344
6.9075991189427315,-0.18990062103251215
6.940969162995595,-0.1752172425321497
6.974339207048458,-0.14368203321819556
7.007709251101322,-0.12857234802072104
7.041079295154185,-0.15231953818555502
7.074449339207049,-0.21289221040858766
7.107819383259912,-0.28376365192037256
7.141189427312775,-0.3278330510824434
7.174559471365639,-0.3180086059096698
7.207929515418503,-0.25324588435131845
7.241299559471366,-0.16086920419045844
7.274669603524229,-0.08316839439353267
7.308039647577092,-0.05488652165612718
7.3414096916299565,-0.08353955774902333
7.37477973568282,-0.14338106992117908
7.408149779735683,-0.18669233328687454
7.441519823788546,-0.1668646500362281
7.47488986784141,-0.06155122759335679
7.508259911894274,0.11569111805719144
7.541629955947137,0.32067247482164013
7.575,0.4975071252986146
7.608370044052863,0.6015404298837069
7.641740088105728,0.6155282099764927
7.675110132158591,0.5526460647873835
7.708480176211454,0.44674699715216365
7.741850220264317,0.33588328611930246
7.775220264317181,0.2469971777763365
7.808590308370045,0.18779369653541855
7.841960352422908,0.14789317044421924
7.875330396475771,0.10749496303410358
7.9087004405286345,0.049217178782290774
7.942070484581498,-0.03211860759980448
7.975440528634362,-0.1261395319162333
8.008810572687224,-0.2118010104190398
8.042180616740088,-0.2684927005673649
8.075550660792953,-0.287898813827231
8.108920704845815,-0.2800238216022331
8.142290748898679,-0.26924754497505377
8.175660792951541,-0.2815156291711554
8.209030837004406,-0.329069372571007
8.24240088105727,-0.40125153274104075
8.275770925110132,-0.4672255915279153
8.309140969162996,-0.4900886808835112
8.342511013215859,-0.44539827907830365
8.375881057268723,-0.33440442085578265
8.409251101321587,-0.18495569666636608
8.44262114537445,-0.03955643912457826
8.475991189427313,0.06336693457380642
8.509361233480176,0.10582859437589265
8.54273127753304,0.09679932153222992
8.576101321585904,0.06655372554846671
8.609471365638766,0.052302115898079246
8.64284140969163,0.08218618262978203
8.676211453744493,0.1646884155635515
8.709581497797357,0.28712445190415786
8.742951541850221,0.4221295431235921
8.776321585903084,0.5376092650289069
8.809691629955948,0.6053331888582907
8.84306167400881,0.6059091102988015
8.876431718061674,0.531023758476556
8.909801762114538,0.38507611742131864
8.9431718061674,0.1869003160828939
8.976541850220265,-0.030278696988603915
9.009911894273127,-0.22364792313840362
9.043281938325991,-0.3516053741740684
9.076651982378856,-0.38795057070877803
9.110022026431718,-0.3334712899616144
9.143392070484582,-0.21851879066030774
9.176762114537445,-0.09351800469066869
9.210132158590309,-0.00998000472761189
9.243502202643173,0.00043574026575616637
9.276872246696035,-0.06041950238224839
9.3102422907489,-0.1573974369784767
9.343612334801762,-0.23684448456142687
9.376982378854626,-0.2501227430126835
9.41035242290749,-0.17577045956823278
9.443722466960352,-0.030376515509957354
9.477092511013216,0.13699343593833815
9.510462555066079,0.2646296694678521
9.543832599118943,0.30358425555739027
9.577202643171807,0.2375079629578708
9.61057268722467,0.0885511319820606
9.643942731277534,-0.09250683076169107
9.677312775330396,-0.2467587182706365
9.71068281938326,-0.32907119972349713
9.744052863436124,-0.32256541406422434
9.777422907488987,-0.24098664208786663
9.81079295154185,-0.1196926871108381
9.844162995594713,-0.00016162020988900617
9.877533039647577,0.08551229871497623
9.910903083700441,0.12462102753541977
9.944273127753304,0.12540422365233267
9.977643171806168,0.1104027904333727
10.01101321585903,0.10474058536077306
10.044383259911895,0.12430452380928415
10.077753303964759,0.1688229364904455
10.111123348017621,0.22275574989017866
10.144493392070485,0.2633254524601467
10.177863436123348,0.2715483425233513
10.211233480176212,0.2406510538427427
10.244603524229076,0.1777517612227828
10.277973568281938,0.09845061698768365
10.311343612334802,0.017903799801696846
10.344713656387665,-0.05625514357380982
10.378083700440529,-0.12520613599779534
10.411453744493393,-0.19424085300863506
10.444823788546255,-0.2655526225319182
10.47819383259912,-0.333343658661106
10.511563876651982,-0.38435131062947436
10.544933920704846,-0.40340387602139544
10.57830396475771,-0.38069160419923886
10.611674008810573,-0.3167965976992407
10.645044052863437,-0.22319566476080133
10.678414096916299,-0.11851876512053862
10.711784140969163,-0.022661015691373503
10.745154185022027,0.048854753853013605
10.77852422907489,0.08869831900035544
10.811894273127754,0.09917997132504738
10.845264317180618,0.0912950909826527
10.87863436123348,0.08143989409254851
10.912004405286345,0.08613620541930211
10.945374449339207,0.11591750894262325
10.978744493392071,0.17055546398720312
11.012114537444935,0.2381099035201692
11.045484581497798,0.29911308115064306
11.078854625550662,0.33476335783301026
11.112224669603524,0.33557169745830895
11.145594713656388,0.30605257578891
11.178964757709252,0.26260549623306373
11.212334801762115,0.2251300286791566
11.245704845814979,0.2064017216367432
11.279074889867841,0.20480342863169704
11.312444933920705,0.20456554413616068
11.34581497797357,0.18377951624321445
11.379185022026432,0.12616205764559563
11.412555066079296,0.03032257888141285
11.445925110132158,-0.08847420910808533
11.479295154185023,-0.20497139554012447
11.512665198237887,-0.29536061213311143
11.546035242290749,-0.34745715062473614
11.579405286343613,-0.3645910403847652
11.612775330396476,-0.36177589706887
11.64614537444934,-0.3566563706363263
11.679515418502204,-0.3600277628646899
11.712885462555066,-0.370572663980095
11.74625550660793,-0.376257438861592
11.779625550660793,-0.3615998373781541
11.812995594713657,-0.31705116969162817
11.846365638766521,-0.24539788384765943
11.879735682819383,-0.16132731700186784
11.913105726872248,-0.08389202534532056
11.94647577092511,-0.025813198987356137
11.979845814977974,0.014119714956030645
12.013215859030838,0.05059653123289676
12.0465859030837,0.10285818177081124
12.079955947136565,0.18208702845293434
12.113325991189427,0.28255221050230794
12.146696035242291,0.38215466399119463
12.180066079295155,0.4526525091110082
12.213436123348018,0.4740756918642767
12.246806167400882,0.44517288405039634
12.280176211453744,0.38383088034467944
12.313546255506608,0.3170588727409237
12.346916299559473,0.2660499761624859
12.380286343612335,0.2346352077585789
12.413656387665199,0.207577922796169
12.447026431718061,0.1597207377303642
12.480396475770926,0.07107473408509962
12.51376651982379,-0.06018475803085679
12.547136563876652,-0.21357688936760869
12.580506607929516,-0.35303880657415576
12.613876651982379,-0.44105634879922784
12.647246696035243,-0.4534469856151925
12.680616740088107,-0.38834331898161967
12.71398678414097,-0.26622001632498676
12.747356828193833,-0.12203017671158893
12.780726872246696,0.0065372649335260335
12.81409691629956,0.09009466205263614
12.847466960352424,0.11466444499320985
12.880837004405286,0.08361470434836303
12.91420704845815,0.014713993372864713
12.947577092511013,-0.06646039742499632
12.980947136563877,-0.13477811945177254
13.014317180616741,-0.17283523365352949
13.047687224669604,-0.17462204013164356
13.081057268722468,-0.14426082256740266
13.11442731277533,-0.0908862085701856
13.147797356828194,-0.022858407293870106
13.181167400881058,0.05519197174949719
13.21453744493392,0.14092950456822018
13.247907488986785,0.22996724225064535
13.281277533039647,0.31218695048103906
13.314647577092511,0.37198161000658286
13.348017621145376,0.3930613726945007
13.381387665198238,0.36530481325606234
13.414757709251102,0.2896043040389109
13.448127753303964,0.1778102405152766
13.481497797356829,0.04792503206199403
13.514867841409693,-0.08243110544120114
13.548237885462555,-0.20043501800198016
13.58160792951542,-0.29817619113007393
13.614977973568282,-0.36929793346726814
13.648348017621146,-0.40541133882388486
13.68171806167401,-0.3958660843718648
13.715088105726872,-0.33243576459734214
13.748458149779736,-0.21714101821815285
13.781828193832599,-0.0686517975967176
13.815198237885463,0.0777574713507096
13.848568281938327,0.17916366725048172
13.88193832599119,0.2006524232198901
13.915308370044054,0.1310601259209208
13.948678414096916,-0.009240012980107177
13.98204845814978,-0.17357268327740633
14.015418502202644,-0.3059960533278228
14.048788546255507,-0.362661729596843
14.08215859030837,-0.3275044148504279
14.115528634361233,-0.21516499997861355
14.148898678414097,-0.0607835855961783
14.182268722466961,0.0970499164177606
14.215638766519824,0.23109923285179065
14.249008810572688,0.3313117188870125
14.28237885462555,0.4006857163940598
14.315748898678414,0.44572223606743494
14.349118942731279,0.4682318591700575
14.382488986784141,0.4633225024077514
14.415859030837005,0.4239440722777914
14.449229074889868,0.34831437853452224
14.482599118942732,0.24514809291283646
14.515969162995596,0.13324097768025733
14.549339207048458,0.035280068619178054
14.582709251101322,-0.031186727661382058
14.616079295154185,-0.06127631012307539
14.649449339207049,-0.06507381169697506
14.682819383259913,-0.06323621900046028
14.716189427312775,-0.07738608114467642
14.74955947136564,-0.11936703178377767
14.782929515418502,-0.18448864985228314
14.816299559471366,-0.25263555395074416
14.84966960352423,-0.29766206934721023
14.883039647577093,-0.3011605983005036
14.916409691629957,-0.2636925772042358
14.94977973568282,-0.20692343104726502
14.983149779735683,-0.164265350876614
15.016519823788547,-0.1638055206422269
15.04988986784141,-0.2121186828101679
15.083259911894274,-0.28799871914706254
15.116629955947138,-0.3504640387744554
15.15,-0.35786963183654563
15.183370044052865,-0.2887165316719554
15.216740088105727,-0.1533867018434756
15.250110132158591,0.009508734203852289
15.283480176211455,0.15051840353940535
15.316850220264318,0.23168331836878991
15.350220264317182,0.2425960170942656
15.383590308370044,0.20254237305072118
15.416960352422908,0.14857192752429504
15.450330396475772,0.11651604915307291
15.483700440528635,0.12492202812794943
15.517070484581499,0.16928809558900731
15.550440528634361,0.22782542577595594
15.583810572687225,0.27406374280218937
15.61718061674009,0.2891464048090847
15.650550660792952,0.26832228612607034
15.683920704845816,0.2201451813093402
15.717290748898678,0.16056784278553657
15.750660792951543,0.10570549889164882
15.784030837004407,0.06642226597317262
15.817400881057269,0.04611437211093395
15.850770925110133,0.04137919218409439
15.884140969162996,0.04439935272351093
15.91751101321586,0.045865467255253894
15.950881057268724,0.037687924967228344
15.984251101321586,0.015134725999544936
16.01762114537445,-0.021854096942333243
16.050991189427315,-0.06850232056785292
16.084361233480177,-0.11649511464741144
16.11773127753304,-0.15668492658741548
16.151101321585905,-0.1824544568917503
16.184471365638768,-0.19233914721142895
16.21784140969163,-0.19046186795446285
16.251211453744492,-0.18416807060457627
16.284581497797358,-0.17969905996399346
16.31795154185022,-0.17804117790881283
16.351321585903083,-0.1733940194117209
16.38469162995595,-0.1556010434191414
16.41806167400881,-0.115766965546764
16.451431718061674,-0.05228060581101219
16.48480176211454,0.02613997605711098
16.518171806167402,0.10238931726101286
16.551541850220264,0.15723941450952994
16.584911894273127,0.17687906851540533
16.618281938325993,0.15803697671463782
16.651651982378855,0.10844237604847265
16.685022026431717,0.042958632072794586
16.718392070484583,-0.02212790972464037
16.751762114537446,-0.07367166413978407
16.785132158590308,-0.10337127517415451
16.818502202643174,-0.10703281847234425
16.851872246696036,-0.0833626824121658
16.8852422907489,-0.034189595308387166
16.91861233480176,0.033617284074753104
16.951982378854627,0.10629252919678797
16.98535242290749,0.16401999118320715
17.01872246696035,0.18599761897638808
17.052092511013218,0.15859437529428574
17.08546255506608,0.08291610913150435
17.118832599118942,-0.022609093492403518
17.152202643171808,-0.1271278039118283
17.18557268722467,-0.19858676183579316
