Frequency (Hz),Amplitude
0.0,2.5454524007340087
0.019867549668874173,2.5458115972704194
0.039735099337748346,2.54688743723427
0.059602649006622516,2.5486746848821196
0.07947019867549669,2.55116465774011
0.09933774834437085,2.55434529152215
0.11920529801324503,2.5582012295791405
0.13907284768211922,2.562713935495144
0.15894039735099338,2.567861827124335
0.17880794701986755,2.5736204300872605
0.1986754966887417,2.5799625485283637
0.2185430463576159,2.5868584507757504
0.23841059602649006,2.5942760674463337
0.2582781456953642,2.602181199498243
0.27814569536423844,2.610537733749173
0.2980132450331126,2.6193078634444737
0.31788079470198677,2.628452311570883
0.33774834437086093,2.637930554758905
0.3576158940397351,2.6477010457948396
0.3774834437086093,2.657721432961784
0.3973509933774834,2.6679487746422086
0.4172185430463576,2.678339747833076
0.4370860927152318,2.688850849445134
0.45695364238410596,2.6994385894708213
0.4768211920529801,2.710059675310681
0.49668874172185434,2.7206711867379934
0.5165562913907285,2.7312307411565415
0.5364238410596026,2.741696648962825
0.5562913907284769,2.752028058962152
0.5761589403973509,2.7621850939067967
0.5960264900662252,2.7721289763244545
0.6158940397350993,2.7818221448874887
0.6357615894039735,2.7912283616386064
0.6556291390728477,2.8003128104380246
0.6754966887417219,2.8090421870334654
0.695364238410596,2.8173847811766253
0.7152317880794702,2.825310551222677
0.7350993377483444,2.8327911916514665
0.7549668874172186,2.839800193944723
0.7748344370860927,2.8463129012405823
0.7947019867549668,2.8523065571704547
0.8145695364238411,2.8577603492607393
0.8344370860927152,2.8626554472570294
0.8543046357615894,2.8669750367004996
0.8741721854304636,2.870704348055869
0.8940397350993378,2.8738306816594013
0.9139072847682119,2.876343428722544
0.9337748344370861,2.8782340885936035
0.9536423841059603,2.8794962824463823
0.9735099337748344,2.8801257635305886
0.9933774834437087,2.880120424084738
1.0132450331125828,2.8794802989780033
1.033112582781457,2.878207566113424
1.0529801324503312,2.876306543590161
1.0728476821192052,2.87378368358879
1.0927152317880795,2.8706475629084283
1.1125827814569538,2.8669088700509358
1.1324503311258278,2.8625803887125927
1.1523178807947019,2.857676977509519
1.1721854304635762,2.8522155457290506
1.1920529801324504,2.846215024865924
1.2119205298013245,2.839696335668694
1.2317880794701985,2.8326823503904266
1.2516556291390728,2.8251978499067705
1.271523178807947,2.81726947533645
1.2913907284768211,2.8089256737730217
1.3112582781456954,2.8001966377149445
1.3311258278145695,2.7911142377627205
1.3509933774834437,2.781711948139904
1.370860927152318,2.772024764589159
1.390728476821192,2.7620891141969617
1.410596026490066,2.7519427567129604
1.4304635761589404,2.741624676953178
1.4503311258278146,2.731174967912367
1.4701986754966887,2.7206347042610415
1.4900662251655628,2.7100458059693535
1.5099337748344372,2.699450891883027
1.5298013245033113,2.688893123178836
1.5496688741721854,2.6784160367481027
1.5695364238410596,2.668063368697051
1.5894039735099337,2.6578788683131287
1.609271523178808,2.6479061030241255
1.6291390728476822,2.6381882550717735
1.6490066225165563,2.6287679108298603
1.6688741721854303,2.619686843915231
1.6887417218543048,2.61098579346438
1.7086092715231789,2.6027042391714414
1.728476821192053,2.594880174900627
1.7483443708609272,2.5875498828882177
1.7682119205298013,2.5807477107301984
1.7880794701986755,2.5745058535013943
1.8079470198675496,2.568854143464456
1.8278145695364238,2.5638198498932523
1.847682119205298,2.5594274915499247
1.8675496688741722,2.555698664312185
1.8874172185430464,2.5526518863441416
1.9072847682119205,2.5503024630398983
1.9271523178807946,2.5486623737442895
1.9470198675496688,2.5477401819741
1.9668874172185429,2.547540970532272
1.9867549668874174,2.548066302534959
2.0066225165562916,2.5493142089677105
2.0264900662251657,2.551279202965092
2.0463576158940397,2.5539523205793633
2.066225165562914,2.557321187383289
2.086092715231788,2.5613701098515946
2.1059602649006623,2.566080190096758
2.1258278145695364,2.5714294622095424
2.1456953642384105,2.577393048179076
2.165562913907285,2.5839433311494138
2.185430463576159,2.5910501436114726
2.205298013245033,2.598680968032962
2.2251655629139075,2.6068011473921016
2.2450331125827816,2.6153741031015407
2.2649006622516556,2.6243615578796606
2.2847682119205297,2.6337237612430062
2.3046357615894038,2.6434197154468406
2.324503311258278,2.6534073998831285
2.3443708609271523,2.6636439921495145
2.364238410596027,2.6740860842193905
2.384105960264901,2.6846898923667863
2.403973509933775,2.695411459722465
2.423841059602649,2.706206850554548
2.443708609271523,2.717032335573387
2.463576158940397,2.727844567752909
2.4834437086092715,2.7386007483359367
2.5033112582781456,2.7492587828488553
2.52317880794702,2.759777427088613
2.543046357615894,2.770116423164087
2.562913907284768,2.7802366257731808
2.5827814569536423,2.7901001189789056
2.6026490066225163,2.799670323811624
2.622516556291391,2.8089120970736174
2.642384105960265,2.8177918217569946
2.662251655629139,2.8262774895076523
2.6821192052980134,2.83433877557955
2.7019867549668874,2.841947106725098
2.7218543046357615,2.849075722461591
2.741721854304636,2.8556997301405227
2.76158940397351,2.861796154228745
2.781456953642384,2.867343980187729
2.801324503311258,2.8723241933113166
2.821192052980132,2.8767198128538976
2.8410596026490067,2.8805159217500615
2.8609271523178808,2.883699692195259
2.8807947019867552,2.886260407323712
2.9006622516556293,2.8881894791859515
2.9205298013245033,2.8894804631948467
2.9403973509933774,2.8901290691737325
2.9602649006622515,2.890133169106305
2.9801324503311255,2.8894928016529278
3.0,2.8882101734630856
3.0198675496688745,2.8862896572792347
3.0397350993377485,2.8837377867916407
3.0596026490066226,2.8805632481694197
3.0794701986754967,2.8767768681571098
3.0993377483443707,2.8723915985912853
3.119205298013245,2.8674224971561353
3.1390728476821192,2.861886704161863
3.1589403973509933,2.855803415094656
3.1788079470198674,2.8491938486527575
3.198675496688742,2.8420812099495727
3.218543046357616,2.8344906485324772
3.23841059602649,2.8264492108356256
3.2582781456953644,2.8179857866575486
3.2781456953642385,2.809131049229598
3.2980132450331126,2.7999173884218624
3.3178807947019866,2.7903788366182174
3.3377483443708607,2.7805509867849363
3.3576158940397347,2.7704709022579106
3.3774834437086096,2.76017701778367
3.3973509933774837,2.7497090313716894
3.4172185430463577,2.739107786550132
3.437086092715232,2.7284151446673315
3.456953642384106,2.7176738469476582
3.47682119205298,2.706927366095468
3.4966887417218544,2.696219747343586
3.5165562913907285,2.6855954389688246
3.5364238410596025,2.6750991124399865
3.556291390728477,2.664775472531247
3.576158940397351,2.6546690579176064
3.596026490066225,2.644824032973384
3.615894039735099,2.635283971712413
3.6357615894039736,2.6260916350387156
3.6556291390728477,2.6172887427128537
3.6754966887417218,2.608915741675451
3.695364238410596,2.6010115726006564
3.7152317880794703,2.593613436767632
3.7350993377483444,2.5867565655328604
3.754966887417219,2.5804739948473743
3.774834437086093,2.574796347386911
3.794701986754967,2.5697516249366124
3.814569536423841,2.5653650136927912
3.834437086092715,2.5616587051032544
3.854304635761589,2.558651734763423
3.8741721854304636,2.556359841715776
3.8940397350993377,2.554795350266131
3.9139072847682117,2.5539670761363347
3.9337748344370858,2.5538802584255813
3.9536423841059607,2.5545365184606306
3.9735099337748347,2.5559338461900887
3.993377483443709,2.5580666143330864
4.013245033112583,2.560925620040833
4.033112582781457,2.564498153385724
4.052980132450331,2.568768091570827
4.072847682119205,2.5737160173647045
4.0927152317880795,2.579319359923823
4.112582781456953,2.5855525558773533
4.132450331125828,2.592387228320462
4.152317880794702,2.599792381199748
4.172185430463576,2.6077346064755
4.19205298013245,2.616178301410908
4.211920529801325,2.6250858933632473
4.231788079470199,2.6344180695311685
4.251655629139073,2.64413400923787
4.271523178807947,2.6541916164947468
4.291390728476821,2.6645477507849855
4.311258278145695,2.67515845422305
4.33112582781457,2.685979173475991
4.3509933774834435,2.696964975067787
4.370860927152318,2.7080707529226924
4.390728476821192,2.7192514272305064
4.410596026490066,2.7304621339329587
4.43046357615894,2.7416584043299475
4.450331125827815,2.7527963344876447
4.470198675496689,2.763832744292286
4.490066225165563,2.7747253261361977
4.509933774834438,2.7854327833442647
4.529801324503311,2.795914958550144
4.549668874172186,2.8061329523146044
4.569536423841059,2.816049232342809
4.589403973509934,2.82562773370564
4.6092715231788075,2.834833950504344
4.629139072847682,2.843635019438249
4.649006622516556,2.8519997957453795
4.66887417218543,2.859898921985796
4.688741721854305,2.8673048901293643
4.708609271523179,2.87419209739537
4.728476821192054,2.880536896271188
4.748344370860927,2.8863176391129692
4.768211920529802,2.891514717703638
4.788079470198675,2.896110598113191
4.80794701986755,2.9000898511745254
4.827814569536423,2.903439178853952
4.847682119205298,2.9061474367619153
4.867549668874172,2.908205653013753
4.887417218543046,2.90960704361559
4.9072847682119205,2.9103470245142526
4.927152317880794,2.910423220414853
4.947019867549669,2.90983547043348
4.966887417218543,2.908585830616675
4.986754966887418,2.9066785733231573
5.006622516556291,2.904120183427014
5.026490066225166,2.900919351265292
5.04635761589404,2.8970869622158033
5.066225165562914,2.8926360827545925
5.086092715231788,2.8875819428049
5.105960264900662,2.881941914152518
5.125827814569536,2.875735484665095
5.14569536423841,2.868984228016126
5.1655629139072845,2.861711768577945
5.185430463576159,2.853943741112931
5.205298013245033,2.845707744858041
5.225165562913908,2.8370332915669154
5.245033112582782,2.8279517470450606
5.264900662251656,2.8184962656897543
5.28476821192053,2.8087017175274283
5.304635761589404,2.7986046072292257
5.324503311258278,2.7882429845816414
5.344370860927152,2.77765634589501
5.364238410596027,2.766885525850655
5.3841059602649,2.7559725793184833
5.403973509933775,2.7449606527242003
5.4238410596026485,2.733893844609226
5.443708609271523,2.722817055110522
5.463576158940397,2.7117758241916605
5.483443708609272,2.700816158583269
5.503311258278146,2.689984347540322
5.52317880794702,2.679326767696146
5.543046357615895,2.6688896774875035
5.562913907284768,2.6587190018407285
5.582781456953643,2.6488601080419834
5.602649006622516,2.639357573962365
5.622516556291391,2.630254950065655
5.642384105960264,2.6215945168856485
5.662251655629139,2.613417039915652
5.682119205298013,2.605761524094536
5.701986754966887,2.5986649702939233
5.7218543046357615,2.592162136399248
5.741721854304636,2.5862853057237625
5.7615894039735105,2.58106406559126
5.781456953642384,2.5765250989596473
5.801324503311259,2.5726919919298843
5.821192052980132,2.569585059886173
5.841059602649007,2.5672211948428347
5.860927152317881,2.565613736331988
5.880794701986755,2.564772367856771
5.900662251655629,2.564703040565239
5.920529801324503,2.565407925379914
5.940397350993377,2.5668853943586534
5.960264900662251,2.5691300315795904
5.980132450331126,2.5721326733495498
6.0,2.575880477051052
6.0198675496688745,2.5803570174785806
6.039735099337749,2.5855424090888373
6.059602649006623,2.5914134522118606
6.079470198675497,2.5979438009519824
6.099337748344371,2.6051041502554404
6.119205298013245,2.612862439440462
6.139072847682119,2.6211840693764805
6.158940397350993,2.6300321304598975
6.178807947019867,2.639367638560807
6.198675496688741,2.649149776201401
6.218543046357616,2.659336136364917
6.23841059602649,2.66988296651482
6.258278145695365,2.6807454106171815
6.2781456953642385,2.691877747196697
6.298013245033113,2.7032336217080544
6.317880794701987,2.7147662717611123
6.337748344370861,2.7264287439938966
6.357615894039735,2.738174101634154
6.377483443708609,2.7499556220238786
6.397350993377484,2.761726983597589
6.417218543046357,2.77344244200097
6.437086092715232,2.7850569952112836
6.456953642384105,2.796526537672022
6.47682119205298,2.807808003583945
6.496688741721854,2.8188594996011562
6.516556291390729,2.829640427267749
6.5364238410596025,2.840111595597041
6.556291390728477,2.850235324245431
6.5761589403973515,2.859975537766239
6.596026490066225,2.8692978514491787
6.6158940397351,2.878169649259481
6.635761589403973,2.8865601543884636
6.655629139072848,2.8944404929170875
6.675496688741721,2.9017837510773874
6.695364238410596,2.9085650265730774
6.715231788079469,2.914761474394584
6.735099337748344,2.9203523475326523
6.754966887417219,2.9253190329622036
6.774834437086093,2.9296450832336065
6.794701986754967,2.933316243972371
6.814569536423841,2.936320477552155
6.8344370860927155,2.9386479831685035
6.854304635761589,2.9402912135035337
6.874172185430464,2.941244888134697
6.894039735099337,2.941506003802379
6.913907284768212,2.941073841614951
6.933774834437086,2.939949971230542
6.95364238410596,2.938138252018694
6.973509933774834,2.935644831165867
6.993377483443709,2.932478138651138
7.013245033112583,2.9286488789796477
7.033112582781457,2.924170019522018
7.052980132450331,2.9190567752689613
7.072847682119205,2.913326589769702
7.0927152317880795,2.9069991119833163
7.112582781456954,2.9000961687310642
7.132450331125828,2.892641732398287
7.152317880794702,2.8846618834937887
7.172185430463576,2.876184767637273
7.19205298013245,2.8672405465071895
7.211920529801324,2.857861342248131
7.231788079470198,2.8480811748055
7.251655629139073,2.8379358916295434
7.271523178807947,2.827463089171343
7.291390728476822,2.8167020255810518
7.311258278145695,2.8056935240173053
7.33112582781457,2.79447986598554
7.3509933774834435,2.7831046741469008
7.370860927152318,2.7716127840788243
7.390728476821192,2.7600501045258747
7.410596026490066,2.7484634657583054
7.430463576158941,2.7369004557565146
7.450331125827814,2.725409244064846
7.470198675496689,2.714038393309704
7.490066225165562,2.7028366585533483
7.509933774834438,2.69185277485927
7.52980132450331,2.6811352336726753
7.549668874172186,2.6707320488712267
7.569536423841059,2.6606905136118555
7.589403973509934,2.6510569493831997
7.6092715231788075,2.6418764489664825
7.629139072847682,2.6331926152987637
7.649006622516557,2.6250472985154394
7.66887417218543,2.617480333711975
7.6887417218543055,2.610529282196295
7.708609271523178,2.6042291791942973
7.728476821192054,2.5986122911073313
7.748344370860927,2.5937078854951774
7.768211920529802,2.58954201695972
7.788079470198675,2.586137332028983
7.80794701986755,2.583512895983308
7.827814569536423,2.5816840443251987
7.847682119205298,2.580662261275225
7.8675496688741715,2.580455087284301
7.887417218543046,2.581066057098132
7.907284768211921,2.5824946694064064
7.927152317880795,2.584736388572012
7.9470198675496695,2.587782678383005
7.966887417218543,2.5916210672196116
7.986754966887418,2.5962352434987888
8.006622516556291,2.6016051797672706
8.026490066225167,2.6077072833747135
8.046357615894038,2.614514571285055
8.066225165562914,2.621996866284872
8.086092715231787,2.630121011628344
8.105960264900663,2.638851101021702
8.125827814569536,2.648148720793328
8.14569536423841,2.6579732011161736
8.165562913907285,2.668281873238126
8.185430463576159,2.6790303298254514
8.205298013245034,2.690172685723674
8.225165562913906,2.7016618366782548
8.245033112582782,2.7134497138227407
8.264900662251655,2.725487532024884
8.28476821192053,2.7377260304699256
8.304635761589404,2.7501157041481257
8.324503311258278,2.7626070251913513
8.344370860927151,2.7751506532666452
8.364238410596027,2.78769763447731
8.3841059602649,2.800199588441997
8.403973509933774,2.812608883417016
8.42384105960265,2.8248787994959086
8.443708609271523,2.836963680063631
8.463576158940398,2.848819071800683
8.483443708609272,2.8604018536269353
8.503311258278146,2.8716703550481877
8.52317880794702,2.8825844644209777
8.543046357615895,2.893105727687504
8.562913907284768,2.9031974381518713
8.582781456953642,2.912824717877223
8.602649006622515,2.921954591278511
8.62251655629139,2.930556051473414
8.642384105960264,2.938600119933228
8.66225165562914,2.9460598999498986
8.682119205298013,2.952910624403942
8.701986754966887,2.9591296982850848
8.721854304635762,2.9646967363799224
8.741721854304636,2.96959359650383
8.76158940397351,2.9738044086146376
8.781456953642383,2.9773156001058596
8.801324503311259,2.9801159175379626
8.821192052980132,2.9821964450252767
8.841059602649008,2.983550619456956
8.86092715231788,2.9841742426902016
8.880794701986755,2.9840654908144004
8.90066225165563,2.9832249205451524
8.920529801324504,2.981655472767407
8.940397350993377,2.9793624732066704
8.960264900662251,2.976353630167843
8.980132450331126,2.97263902923886
9.0,2.9682311248163535
9.019867549668875,2.963144728267655
9.039735099337747,2.95739699250038
9.059602649006623,2.9510073926676323
9.079470198675496,2.94399770269203
9.099337748344372,2.93639196724725
9.119205298013245,2.9282164687904486
9.139072847682119,2.919499689194317
9.158940397350994,2.910272265483445
9.178807947019868,2.900566939137379
9.198675496688743,2.8904184983829815
9.218543046357615,2.8798637128626132
9.23841059602649,2.868941260034178
9.258278145695364,2.857691642634656
9.27814569536424,2.846157096524342
9.298013245033111,2.8343814882244738
9.317880794701987,2.822410201470454
9.33774834437086,2.81029001212824
9.357615894039736,2.7980689508654017
9.37748344370861,2.785796153033999
9.397350993377483,2.7735216953119273
9.417218543046358,2.76129641876568
9.437086092715232,2.749171738142742
9.456953642384107,2.737199437376969
9.47682119205298,2.725431451497089
9.496688741721854,2.7139196353659703
9.516556291390728,2.702715519945318
9.536423841059603,2.6918700570743193
9.556291390728477,2.6814333540668205
9.57615894039735,2.6714543997634483
9.596026490066224,2.6619807840153014
9.6158940397351,2.653058412913878
9.635761589403973,2.644731222407168
9.655629139072847,2.6370408932410814
9.675496688741722,2.6300265704258274
9.695364238410596,2.623724590634638
9.715231788079471,2.6181682210839914
9.735099337748345,2.613387413508952
9.754966887417218,2.609408576824454
9.774834437086092,2.6062543719461324
9.794701986754967,2.603943532030308
9.814569536423841,2.602490711081635
9.834437086092716,2.6019063634751642
9.854304635761588,2.6021966564555252
9.874172185430464,2.603363417125199
9.894039735099337,2.605404114831018
9.913907284768213,2.6083118792264153
9.933774834437086,2.6120755536453557
9.95364238410596,2.6166797827961075
9.973509933774835,2.6221051331902094
9.993377483443709,2.6283282441826814
10.013245033112582,2.6353220070320305
10.033112582781456,2.6430557690036878
10.052980132450331,2.6514955592485823
10.072847682119205,2.660604332992802
10.09271523178808,2.670342230474972
10.112582781456952,2.680666847061226
10.132450331125828,2.6915335110449665
10.152317880794701,2.7028955657920912
10.172185430463577,2.714704653106593
10.192052980132452,2.7269109949569894
10.211920529801324,2.7394636710041786
10.2317880794702,2.752310889695378
10.251655629139073,2.765400251022877
10.271523178807948,2.7786789993806744
10.29139072847682,2.792094265276767
10.311258278145695,2.8055932949664633
10.331125827814569,2.8191236673571396
10.350993377483444,2.8326334977928465
10.370860927152318,2.8460716285559267
10.390728476821192,2.8593878061209472
10.410596026490065,2.8725328453640326
10.43046357615894,2.8854587810688344
10.450331125827816,2.8981190071807137
10.470198675496688,2.9104684043453246
10.490066225165563,2.9224634563292753
10.509933774834437,2.934062355961231
10.529801324503312,2.945225101255171
10.549668874172186,2.955913582384824
10.56953642384106,2.966091660173906
10.589403973509933,2.9757252367510674
10.609271523178808,2.9847823189947396
10.629139072847682,2.99323307536327
10.649006622516556,3.001049886669962
10.66887417218543,3.0082073913246865
10.688741721854305,3.0146825255217604
10.70860927152318,3.0204545588118767
10.728476821192054,3.0255051254516383
10.748344370860927,3.0298182518806653
10.7682119205298,3.0333803806324555
10.788079470198676,3.0361803909412446
