Frequency (Hz),Amplitude
0.0,1.489607648104358
0.04,1.490958421968602
0.08,1.49499818451183
0.12,1.5016896161697744
0.16,1.5109716846596748
0.19999999999999998,1.522761311263862
0.24,1.5369555459281052
0.27999999999999997,1.5534341163781424
0.32,1.5720622058774159
0.36,1.5926933176008544
0.39999999999999997,1.6151720983974522
0.44,1.63933701735582
0.48,1.6650228211754157
0.52,1.6920627153722756
0.5599999999999999,1.7202902451204214
0.6,1.7495408703373538
0.64,1.7796532456809513
0.6799999999999999,1.8104702273940454
0.72,1.8418396358761568
0.76,1.8736148062213225
0.7999999999999999,1.9056549595735472
0.84,1.9378254268219535
0.88,1.9699977535849018
0.9199999999999999,2.002049712176747
0.96,2.033865242732244
1.0,2.0653343421743613
1.04,2.0963529164392924
1.0799999999999998,2.126822608424489
1.1199999999999999,2.1566506115493653
1.1600000000000001,2.185749476621815
1.2,2.2140369178690134
1.24,2.241435622485795
1.28,2.267873066839087
1.3199999999999998,2.2932813415015123
1.3599999999999999,2.317596986531925
1.4,2.3407608378391807
1.44,2.3627178850260995
1.48,2.3834171407855087
1.52,2.4028115216867305
1.5599999999999998,2.4208577400290814
1.5999999999999999,2.437516206333657
1.64,2.4527509419826257
1.68,2.466529501486623
1.72,2.4788229038572878
1.76,2.4896055725773576
1.7999999999999998,2.498855283689896
1.8399999999999999,2.5065531215677033
1.88,2.5126834419704944
1.92,2.5172338420492903
1.9599999999999997,2.5201951370126774
2.0,2.5215613432273463
2.0399999999999996,2.521329667584516
2.08,2.519500503024143
2.12,2.5160774301695854
2.1599999999999997,2.5110672250865105
2.2,2.5044798732409506
2.2399999999999998,2.496328589792248
2.28,2.4866298464169048
2.3200000000000003,2.475403404918561
2.36,2.4626723579368752
2.4,2.448463177122966
2.44,2.4328057692000558
2.48,2.4157335403733775
2.5199999999999996,2.3972834695905707
2.56,2.377496191179982
2.6,2.3564160874048974
2.6399999999999997,2.3340913914616674
2.68,2.310574301411839
2.7199999999999998,2.285921105463996
2.76,2.2601923188988646
2.8,2.2334528327474805
2.84,2.20577207406977
2.88,2.1772241773188195
2.92,2.147888165789531
2.96,2.117848141509647
2.9999999999999996,2.0871934811024637
3.04,2.0560190340956837
3.08,2.0244253188287984
3.1199999999999997,1.9925187094803969
3.16,1.9604116057581085
3.1999999999999997,1.9282225744380734
3.2399999999999998,1.8960764491961806
3.28,1.8641043720587864
3.32,1.8324437563814016
3.36,1.8012381476727288
3.4,1.770636955041368
3.44,1.7407950228921105
3.4799999999999995,1.7118720102119738
3.52,1.6840315439836648
3.5599999999999996,1.6574401147007212
3.5999999999999996,1.632265686478711
3.64,1.6086760027015672
3.6799999999999997,1.5868365811993077
3.7199999999999998,1.5669084109526816
3.76,1.5490453849911658
3.7999999999999994,1.5333915303889731
3.84,1.5200781239774896
3.88,1.509220808514429
3.9199999999999995,1.500916844794877
3.96,1.4952426465912183
4.0,1.4922517439874754
4.04,1.4919733046815122
4.079999999999999,1.4944113123494964
4.12,1.4995444588172364
4.16,1.5073267573579148
4.199999999999999,1.517688834094183
4.24,1.5305398095629756
4.28,1.5457696482854244
4.319999999999999,1.5632518339539945
4.36,1.5828462224652398
4.4,1.6044019330872872
4.4399999999999995,1.6277601564996038
4.4799999999999995,1.6527567833977703
4.5200000000000005,1.679224784920431
4.56,1.7069963030253534
4.6,1.7359044327415505
4.640000000000001,1.7657846975828018
4.68,1.7964762338402314
4.72,1.8278227091615822
4.76,1.8596730063801008
4.8,1.8918817057895496
4.84,1.9243093988269213
4.88,1.9568228642054524
4.92,1.989295134597145
4.96,2.0216054785102773
5.0,2.053639318417653
5.039999999999999,2.0852881027188483
5.08,2.116449145919866
5.12,2.1470254485688387
5.159999999999999,2.176925506027008
5.2,2.2060631130759907
5.24,2.234357169640094
5.279999999999999,2.261731491499541
5.319999999999999,2.2881146287458765
5.36,2.3134396938431134
5.3999999999999995,2.3376442004683446
5.4399999999999995,2.360669913778771
5.48,2.3824627123573445
5.52,2.4029724618006476
5.56,2.4221528997081725
5.6,2.439961531693745
5.64,2.4563595379527774
5.68,2.4713116898715577
5.72,2.4847862761472643
5.76,2.4967550378926675
5.8,2.507193112221524
5.84,2.516078983845122
5.879999999999999,2.5233944442538845
5.92,2.5291245581077044
5.96,2.5332576365130253
5.999999999999999,2.5357852169220045
6.04,2.53670204944859
6.08,2.5360060894571537
6.119999999999999,2.533698496341052
6.16,2.5297836384707715
6.2,2.5242691043539063
6.239999999999999,2.517165720111824
6.279999999999999,2.5084875734403793
6.32,2.4982520442839364
6.359999999999999,2.486479842512916
6.3999999999999995,2.473195052954275
6.44,2.4584251881808634
6.4799999999999995,2.4422012495179746
6.52,2.4245577967717633
6.56,2.405533027221904
6.6,2.385168864446383
6.64,2.3635110575552214
6.68,2.3406092913960714
6.72,2.316517308250572
6.76,2.2912930414562642
6.8,2.2649987612524773
6.84,2.2377012329447297
6.88,2.2094718871919095
6.92,2.18038700182095
6.959999999999999,2.1505278940374217
7.0,2.1199811211951074
7.04,2.0888386873760494
7.08,2.0571982518733174
7.119999999999999,2.025163334217471
7.16,1.992843508599865
7.199999999999999,1.960354578381246
7.239999999999999,1.9278187188037568
7.28,1.8953645730409805
7.32,1.8631272833527017
7.359999999999999,1.8312484354415353
7.3999999999999995,1.799875890297874
7.4399999999999995,1.7691634741315088
7.4799999999999995,1.7392704938163581
7.52,1.7103610431626746
7.5600000000000005,1.6826030649794925
7.599999999999999,1.6561671361367283
7.64,1.6312249485950947
7.68,1.6079474695178693
7.719999999999999,1.5865027787685788
7.76,1.5670536025362858
7.800000000000001,1.5497545869996612
7.839999999999999,1.5347493843705715
7.88,1.5221676527945758
7.92,1.51212209787948
7.959999999999999,1.5047057028965478
8.0,1.4999893028138283
8.040000000000001,1.4980196510582269
8.08,1.498818105855355
8.12,1.5023800262111806
8.159999999999998,1.508674919718066
8.2,1.5176473311340293
8.24,1.5292184088955092
8.28,1.543288042887306
8.32,1.5597374358650697
8.36,1.578431955475274
8.399999999999999,1.5992241138098158
8.44,1.6219565346034492
8.48,1.646464790820876
8.52,1.672580023244023
8.56,1.700131279790454
8.6,1.728947542520798
8.639999999999999,1.7588594325369558
8.68,1.7897006011885022
8.72,1.8213088290091288
8.76,1.8535268620197614
8.8,1.8862030192295918
8.84,1.919191606245035
8.879999999999999,1.952353168747449
8.92,1.9855546170046645
8.959999999999999,2.018669249171445
9.0,2.0515766973872043
9.040000000000001,2.084162816930616
9.079999999999998,2.116319535157042
9.12,2.1479446737509154
9.16,2.178941755029279
9.2,2.20921980064652
9.24,2.238693129056686
9.280000000000001,2.2672811564545317
9.32,2.2949082045971667
9.36,2.3215033178606896
9.399999999999999,2.3470000910673434
9.44,2.3713365089889766
9.48,2.3944547979573327
9.52,2.4163012896605287
9.559999999999999,2.4368262969529475
9.6,2.455984001331402
9.639999999999999,2.4737323516169063
9.68,2.4900329733146025
9.72,2.504851088093348
9.76,2.518155442822523
9.8,2.529918247619689
9.84,2.5401151223937126
9.879999999999999,2.548725051409723
9.92,2.555730345451699
9.959999999999999,2.5611166112134143
10.0,2.564872727607067
10.04,2.56699082874017
10.079999999999998,2.5674662933742174
10.12,2.566297740742774
10.16,2.5634870326715347
10.2,2.5590392820084404
10.24,2.552962867437749
10.280000000000001,2.5452694548180776
10.319999999999999,2.535974025250527
10.36,2.525094910148763
10.4,2.512653833648006
10.44,2.4986759627533375
10.48,2.4831899656888257
10.52,2.4662280789658726
10.559999999999999,2.4478261837401085
10.6,2.4280238920681354
10.639999999999999,2.406864643704695
10.68,2.384395814092428
10.72,2.3606688341838216
10.76,2.3357393226896845
10.799999999999999,2.3096672312599
10.84,2.2825170029566
10.879999999999999,2.254357744160245
10.92,2.2252634097343704
10.96,2.195313000839113
11.0,2.1645907741962196
11.04,2.133186460832591
11.08,2.101195491323107
11.12,2.068719223269928
11.16,2.0358651651437505
11.2,2.002747188622223
11.24,1.9694857191461994
11.28,1.9362078915433958
11.319999999999999,1.9030476542343644
11.36,1.870145801772942
11.4,1.8376499113816829
11.44,1.805714154913278
11.48,1.7744989536135949
11.52,1.7441704396453386
11.559999999999999,1.7148996861917902
11.6,1.6868616679159512
11.64,1.660233916570018
11.68,1.6351948436738446
11.72,1.6119217143749265
11.759999999999998,1.590588274538599
11.799999999999999,1.5713620568897637
11.84,1.5544014208457253
11.879999999999999,1.5398524126103943
11.92,1.527845563968642
11.96,1.5184927757784072
11.999999999999998,1.5118844506036395
12.04,1.5080870437551506
12.08,1.5071411900471896
12.12,1.5090605340040544
12.16,1.5138313461615263
12.200000000000001,1.5214129524724818
12.239999999999998,1.5317389446917642
12.28,1.5447190847353383
12.32,1.5602417722683268
12.36,1.5781769168707114
12.4,1.5983790458436251
12.44,1.6206904849507955
12.479999999999999,1.6449444688013162
12.52,1.6709680656028891
12.559999999999999,1.6985848328865436
12.6,1.7276171523857238
12.64,1.7578882205055442
12.68,1.7892236939388722
12.719999999999999,1.821453007286503
12.76,1.854410391180921
12.799999999999999,1.8879356261030031
12.84,1.921874569791943
12.88,1.9560794959104828
12.92,1.9904092793890067
12.959999999999999,2.024729460428128
12.999999999999998,2.058912215106807
13.04,2.0928362563672
13.08,2.1263866851261257
13.12,2.159454807576148
13.16,2.1919379314792917
13.2,2.2237391514541685
13.239999999999998,2.2547671309036366
13.28,2.284935886291924
13.32,2.3141645779117646
13.36,2.3423773100337506
13.4,2.369502942351953
13.44,2.3954749138861935
13.479999999999999,2.4202310799308235
13.52,2.4437135622170527
13.559999999999999,2.4658686121505737
13.6,2.486646486773542
13.64,2.5060013369592755
13.68,2.5238911072629318
13.719999999999999,2.5402774468086684
13.76,2.555125630582848
13.799999999999999,2.568404490515775
13.84,2.5800863557647165
13.88,2.590147001653931
13.919999999999998,2.5985656067793466
13.959999999999999,2.6053247178437475
14.0,2.6104102218509544
14.04,2.6138113253528954
14.08,2.6155205405110946
14.120000000000001,2.6155336778028713
14.16,2.6138498452724797
14.2,2.6104714542980663
14.239999999999998,2.6054042319166704
14.28,2.5986572398215237
14.32,2.5902429002185334
14.36,2.580177028801979
14.399999999999999,2.568478875182951
14.44,2.5551711711774514
14.479999999999999,2.540280187433802
14.52,2.5238357989499747
14.56,2.5058715600993025
14.6,2.4864247898454948
14.64,2.465536667882176
14.68,2.443252342474078
14.719999999999999,2.41962105080147
14.76,2.394696252608934
14.799999999999999,2.368535777925207
14.84,2.3412019895403704
14.879999999999999,2.312761960784781
14.919999999999998,2.283287668931618
14.959999999999999,2.2528562042171947
15.0,2.2215499940106715
15.04,2.189457041030819
15.079999999999998,2.156671173658791
15.120000000000001,2.1232923052816046
15.159999999999998,2.089426698163778
15.199999999999998,2.055187225521465
15.24,2.0206936232002968
15.28,1.9860727195746433
15.319999999999999,1.951458628946475
15.36,1.9169928898092292
15.399999999999999,1.8828245248887185
15.439999999999998,1.8491099949889966
15.48,1.8160130135780417
15.52,1.7837041841196306
15.559999999999999,1.7523604179588805
15.600000000000001,1.7221640878874565
15.639999999999999,1.6933018723691708
15.679999999999998,1.665963249011626
15.72,1.6403386045314898
15.76,1.6166169433874316
15.799999999999999,1.5949831992623267
15.84,1.5756151827155656
15.879999999999999,1.558680233479503
15.919999999999998,1.5443316844335342
15.96,1.5327052820617189
16.0,1.5239157396910434
16.04,1.5180536189750389
16.080000000000002,1.5151827365266428
16.12,1.515338272933628
16.16,1.5185257204608062
16.200000000000003,1.524720747224781
16.24,1.5338699866622503
16.279999999999998,1.5458926910153246
16.319999999999997,1.560683125872503
16.36,1.5781135373024273
16.4,1.5980374983153216
16.439999999999998,1.6202934379797127
16.48,1.6447081717849372
16.52,1.671100280729806
16.56,1.6992832231535477
16.6,1.7290681018359633
16.64,1.760266044875094
16.68,1.7926901893452474
16.72,1.8261572803149266
16.759999999999998,1.860488914275183
16.799999999999997,1.8955124660584464
16.84,1.9310617430473567
16.88,1.9669774111716758
16.919999999999998,2.0031072351018935
16.96,2.039306171228877
17.0,2.075436347303218
17.04,2.1113669576051186
17.080000000000002,2.1469740976376017
17.12,2.182140557834865
17.16,2.2167555917867654
17.2,2.2507146710487778
17.24,2.2839192357280984
17.279999999999998,2.3162764476719753
17.32,2.3476989511777053
17.36,2.3781046446323324
17.4,2.4074164653118517
17.44,2.435562188666791
17.48,2.4624742427417785
17.52,2.4880895378768892
17.56,2.5123493114804973
17.6,2.5351989874163308
17.64,2.556588049386079
17.68,2.576469927593134
17.72,2.5948018979267062
17.759999999999998,2.6115449928961754
17.799999999999997,2.626663923563233
17.84,2.6401270117567472
17.88,2.6519061319066135
17.919999999999998,2.661976661893867
17.96,2.6703174423820935
18.0,2.676910744167178
18.04,2.681742243157473
18.080000000000002,2.684801002673245
18.12,2.686079462832378
18.159999999999997,2.685573436868421
18.2,2.6832821143069587
18.24,2.6792080710072548
18.279999999999998,2.673357286158264
18.32,2.665739166401472
18.36,2.6563665773382676
18.4,2.645255882766405
18.44,2.6324269920789627
18.48,2.6179034163499484
18.52,2.6017123337227215
18.560000000000002,2.583884664810548
18.6,2.5644551589109525
18.64,2.5434624919260878
18.679999999999996,2.520949376966516
18.72,2.4969626886924288
18.759999999999998,2.4715536025083913
18.799999999999997,2.444777749768231
18.84,2.4166953901553536
18.88,2.3873716023674985
18.919999999999998,2.3568764941364426
18.96,2.3252854324295646
19.0,2.292679294383111
19.04,2.259144739069569
19.080000000000002,2.2247744995582885
19.119999999999997,2.1896676938336084
19.159999999999997,2.1539301519205214
19.2,2.1176747549553276
19.24,2.0810217798375352
19.279999999999998,2.0440992404111853
19.32,2.0070432127493416
19.36,1.9699981279643746
19.4,1.9331170109771492
19.44,1.8965616378437256
19.48,1.860502577646475
19.52,1.8251190778411737
19.560000000000002,1.790598744753872
19.6,1.7571369643593175
19.639999999999997,1.7249360036029233
19.68,1.6942037307803053
19.72,1.6651518966384986
19.759999999999998,1.6379939279054976
19.8,1.6129422038286574
19.84,1.5902048154451573
19.88,1.5699818470501927
19.919999999999998,1.5524612682206909
19.96,1.537814578995039
20.0,1.5261924040573311
20.04,1.5177202755861514
20.08,1.5124948695332532
20.119999999999997,1.5105809584047112
20.159999999999997,1.5120093105301797
20.2,1.5167757021308097
20.24,1.5248411211601076
20.279999999999998,1.5361331429831802
20.32,1.5505483621969647
20.36,1.5679556862490798
20.4,1.5882002450831256
20.44,1.6111076511452507
20.48,1.6364883540752968
20.52,1.6641418679565247
20.560000000000002,1.6938606973021735
20.599999999999998,1.7254338419590667
20.639999999999997,1.7586498132123445
20.68,1.7932991383450037
20.72,1.8291763660051643
20.759999999999998,1.8660816093397292
20.8,1.9038216788217417
20.84,1.942210863712557
20.88,1.9810714221318118
20.92,2.0202338366545693
20.96,2.0595368868311064
21.0,2.098827583285458
21.04,2.1379610009916785
21.08,2.176800042540296
21.119999999999997,2.2152151560366895
21.159999999999997,2.2530840268845407
21.2,2.2902912581471178
21.24,2.3267280504163113
21.279999999999998,2.362291889081644
21.32,2.3968862444859442
21.36,2.430420288584377
21.4,2.462808630295808
21.44,2.4939710706665768
21.48,2.523832378183738
21.52,2.5523220840166654
21.56,2.579374296581867
21.599999999999998,2.604927534575351
21.639999999999997,2.628924577466865
21.68,2.651312332375743
21.72,2.6720417162283407
21.759999999999998,2.691067552117417
21.8,2.7083484788321925
21.84,2.7238468725959217
21.88,2.737528780128906
21.92,2.749363862244615
21.96,2.759325347281561
22.0,2.767389993771718
22.04,2.773538061846306
22.08,2.7777532929807514
22.119999999999997,2.780022897782721
22.16,2.780337551630095
22.2,2.7786913980703165
22.24,2.775082059999318
22.28,2.7695106587480165
22.32,2.7619818413182875
22.36,2.7525038161294915
22.4,2.7410883977622733
22.44,2.727751061319769
22.48,2.71251100716903
22.519999999999996,2.6953912369784545
22.56,2.6764186421319915
22.599999999999998,2.655624105778451
22.639999999999997,2.6330426199656736
22.68,2.608713419514503
22.72,2.582680134506238
22.759999999999998,2.5549909634878376
22.8,2.5256988697383065
22.84,2.4948618031818355
22.88,2.4625429507696395
22.92,2.428811018369037
22.96,2.3937405473759896
23.0,2.357412269376949
23.04,2.319913502188108
23.08,2.2813385904395513
23.119999999999997,2.2417893934737108
23.16,2.2013758225913223
23.2,2.1602164284717427
23.24,2.1184390377464637
23.28,2.0761814349979595
23.32,2.033592082622404
23.36,1.9908308657142832
23.400000000000002,1.948069842039937
23.44,1.9054939678812508
23.479999999999997,1.8633017586936853
23.519999999999996,1.8217058288912604
23.56,1.7809332376516025
23.599999999999998,1.7412255478856355
23.639999999999997,1.7028384846206543
23.68,1.6660410592330404
23.72,1.6311140108406894
23.759999999999998,1.598347410908284
23.8,1.568037288389723
23.84,1.540481167993224
23.88,1.5159724801627452
23.92,1.4947939017229928
23.96,1.4772098181259248
23.999999999999996,1.4634582498652116
24.04,1.4537427342540712
24.08,1.4482247681270628
24.119999999999997,1.447017463647472
24.16,1.4501810226372014
24.2,1.4577204874561402
24.24,1.4695859959691062
24.28,1.4856754950354067
24.32,1.5058396040832227
24.36,1.5298881172626302
24.400000000000002,1.5575975215010598
24.439999999999998,1.5887188959911582
24.479999999999997,1.6229856309458768
24.52,1.6601205303912703
24.56,1.6998420123758118
24.599999999999998,1.7418692624525782
24.64,1.785926314488876
24.68,1.831745118749955
24.72,1.8790677107502252
24.759999999999998,1.9276476204266537
24.8,1.9772506666879726
24.84,2.027655274299682
24.88,2.078652434276935
24.92,2.1300454098887838
24.959999999999997,2.181649270991404
24.999999999999996,2.2332903214687954
25.04,2.284805468947248
25.08,2.3360415729525776
25.119999999999997,2.386854797226342
25.16,2.4371099837479457
25.2,2.486680059783932
25.24,2.5354454846525782
25.28,2.583293739525972
25.32,2.630118861210193
25.36,2.6758210192121954
25.4,2.7203061343298036
25.439999999999998,2.7634855363398696
25.479999999999997,2.805275657994094
25.52,2.8455977623751103
25.56,2.884377700651655
25.599999999999998,2.9215456973534035
25.64,2.957036160428019
25.68,2.990787513520345
25.72,3.0227420481090492
25.76,3.052845793337054
25.8,3.0810484015710125
25.84,3.1073030479165813
25.880000000000003,3.131566342097256
25.919999999999998,3.1537982512735314
25.959999999999997,3.1739620325353766
25.999999999999996,3.1920241739446444
26.04,3.2079543431355084
26.08,3.221725342601187
26.119999999999997,3.2333130709049844
26.16,3.2426964891541625
26.2,3.2498575921673547
26.24,3.2547813838513706
26.28,3.2574558563822853
26.32,3.257871972859771
26.36,3.256023653173826
26.4,3.251907762890247
26.439999999999998,3.2455241050266546
26.479999999999997,3.23687541465542
26.52,3.225967356334676
26.56,3.2128085244348163
26.599999999999998,3.197410446496659
26.64,3.1797875898300387
26.68,3.1599573716395266
26.72,3.1379401730486944
26.76,3.1137593574877482
26.8,3.087441294013423
26.84,3.0590153862471787
26.88,3.028514107750601
26.919999999999998,2.9959730448088466
26.959999999999997,2.961430947767445
27.0,2.9249297922693964
27.04,2.8865148519732022
27.08,2.8462347846042673
27.119999999999997,2.8041417335090055
27.16,2.760291447250921
27.2,2.7147434202203935
27.24,2.667561057735332
27.28,2.6188118697002545
27.32,2.5685676975798084
27.36,2.516904980243086
27.4,2.463905065161305
27.439999999999998,2.4096545725061915
27.479999999999997,2.3542458209087034
27.52,2.2977773249993385
27.56,2.2403543763505525
27.599999999999998,2.182089721044243
27.64,2.1231043487216494
27.68,2.063528409509017
27.72,2.0035022764295176
27.76,1.9431777714521479
27.8,1.8827195726308317
27.839999999999996,1.8223068169967247
27.88,1.7621349077153408
27.919999999999998,1.7024175226778098
27.959999999999997,1.6433888026101524
28.0,1.5853056665472285
28.04,1.5284501568482325
28.08,1.4731316499591913
28.12,1.4196886782846145
28.16,1.3684899904998096
28.2,1.3199343359445979
