Time (s),Filtered Signal
0.0,-0.004578117002444762
0.0334075723830735,-0.21458847136301462
0.066815144766147,-0.40116702545219085
0.1002227171492205,-0.5397783645080289
0.133630289532294,-0.6069993175401721
0.1670378619153675,-0.5873608208672687
0.200445434298441,-0.48160790891283883
0.23385300668151449,-0.3112221876096361
0.267260579064588,-0.11517622837710764
0.3006681514476615,0.061220823091201186
0.334075723830735,0.1811455658726912
0.3674832962138085,0.22824064943853653
0.400890868596882,0.2104138406645187
0.4342984409799555,0.15404441264606983
0.46770601336302897,0.09168518244007558
0.5011135857461025,0.049058225322114
0.534521158129176,0.03683601155477388
0.5679287305122495,0.04985544886161253
0.601336302895323,0.0727715363139367
0.6347438752783965,0.08861334229354799
0.66815144766147,0.08625050343534843
0.7015590200445435,0.06414530141065096
0.734966592427617,0.029856459022813298
0.7683741648106905,-0.0035611169688941216
0.801781737193764,-0.022435591415196913
0.8351893095768375,-0.017030793746628237
0.868596881959911,0.015228520141710104
0.9020044543429845,0.06837618731579326
0.9354120267260579,0.12868411870949276
0.9688195991091315,0.17775149572692253
1.002227171492205,0.19756522118676778
1.0356347438752784,0.17633243842345722
1.069042316258352,0.11309755279878211
1.1024498886414256,0.019104054490983013
1.135857461024499,-0.0851164992552649
1.1692650334075725,-0.1761925882350878
1.202672605790646,-0.23555054715679322
1.2360801781737194,-0.2552782955671777
1.269487750556793,-0.23993920774441305
1.3028953229398665,-0.20369311859495182
1.33630289532294,-0.1639230325396951
1.3697104677060135,-0.13391285540505768
1.403118040089087,-0.11753195475152847
1.4365256124721606,-0.10820356748260682
1.469933184855234,-0.09279814578657031
1.5033407572383075,-0.05897829922310712
1.536748329621381,-0.0027537333984393305
1.5701559020044544,0.06749894509698975
1.603563474387528,0.13301444776015156
1.6369710467706016,0.1723324736033532
1.670378619153675,0.1714265181865034
1.7037861915367485,0.13132906611820494
1.737193763919822,0.06910152960186404
1.7706013363028954,0.011102612804177375
1.804008908685969,-0.018550694763617447
1.8374164810690425,-0.008789404681538708
1.8708240534521159,0.03366605883601912
1.9042316258351895,0.08790395064449992
1.937639198218263,0.12877913937506408
1.9710467706013366,0.1381526450176431
2.00445434298441,0.11203541722458768
2.0378619153674835,0.06073752435718726
2.071269487750557,0.002804950954419203
2.1046770601336307,-0.043656082584146626
2.138084632516704,-0.06802135208458153
2.1714922048997773,-0.0697802638261937
2.204899777282851,-0.056446610895713
2.2383073496659245,-0.03855481547715668
2.271714922048998,-0.02445827796023461
2.3051224944320716,-0.017238136347976586
2.338530066815145,-0.014752569365011367
2.3719376391982183,-0.01236110887259353
2.405345211581292,-0.006713580033051171
2.4387527839643655,0.0014386911148856687
2.472160356347439,0.0070275989167410775
2.5055679287305126,0.003477982654717886
2.538975501113586,-0.012600550631660108
2.5723830734966593,-0.03726734298108616
2.605790645879733,-0.058325247432612665
2.6391982182628064,-0.05909008079794407
2.67260579064588,-0.02599947520278982
2.7060133630289536,0.043163843022042625
2.739420935412027,0.13469848928988223
2.7728285077951007,0.22118392241514787
2.806236080178174,0.270551768520984
2.8396436525612474,0.2586497674297533
2.873051224944321,0.1798286413204086
2.9064587973273945,0.050595932841376486
2.939866369710468,-0.09562918128138138
2.9732739420935417,-0.22060278622044022
3.006681514476615,-0.29506263389785875
3.0400890868596884,-0.3085039833192542
3.073496659242762,-0.27118945026481206
3.1069042316258355,-0.20820203375628485
3.140311804008909,-0.1486557612697167
3.1737193763919826,-0.1147725158869765
3.207126948775056,-0.11493745700415586
3.2405345211581293,-0.14266154658056113
3.273942093541203,-0.18081739401375924
3.3073496659242765,-0.20870508584913866
3.34075723830735,-0.20900714553832345
3.3741648106904236,-0.1723935546280982
3.407572383073497,-0.09888332995562893
3.4409799554565703,0.003595093577575307
3.474387527839644,0.1221623925998109
3.5077951002227175,0.24204712660995847
3.541202672605791,0.3488266639071341
3.5746102449888646,0.4297673492597097
3.608017817371938,0.4748794627362575
3.6414253897550113,0.4783968415780384
3.674832962138085,0.4407180609374825
3.7082405345211584,0.36979289295284423
3.7416481069042318,0.2803414707910642
3.7750556792873056,0.1899053225861222
3.808463251670379,0.11254900500985761
3.8418708240534527,0.05304676243209322
3.875278396436526,0.005077519558820926
3.9086859688195994,-0.04463958794735582
3.942093541202673,-0.10766833765359388
3.9755011135857465,-0.1851384348586667
4.00890868596882,-0.26419017525183347
4.042316258351893,-0.32229390520636636
4.075723830734967,-0.3377851114707159
4.109131403118041,-0.3013064315989764
4.142538975501114,-0.22210723846328695
4.1759465478841875,-0.1257197737238185
4.209354120267261,-0.04391641906280686
4.242761692650334,-0.001695014092484847
4.276169265033408,-0.0074283808288812675
4.309576837416482,-0.050665678377979986
4.342984409799555,-0.10828691608641686
4.3763919821826285,-0.1556845437123702
4.409799554565702,-0.17736045371970954
4.443207126948775,-0.17189192459800462
4.476614699331849,-0.14931091988456102
4.510022271714923,-0.12294251118429884
4.543429844097996,-0.10056588064534727
4.5768374164810695,-0.07991505577289956
4.610244988864143,-0.05096567392044685
4.643652561247216,-0.0035724446885283165
4.67706013363029,0.06404673375763424
4.710467706013364,0.14107078740436818
4.743875278396437,0.20696018323514653
4.77728285077951,0.2405196472373517
4.810690423162584,0.23076626344506246
4.844097995545657,0.18399928915298114
4.877505567928731,0.12309135658591379
4.910913140311805,0.07871159999340664
4.944320712694878,0.07613055810922609
4.977728285077951,0.12350782409908904
5.011135857461025,0.20702814860961324
5.044543429844098,0.29520196110865693
5.077951002227172,0.3505719692192988
5.111358574610246,0.34390891308185423
5.144766146993319,0.2651388946182507
5.178173719376392,0.1269193571670399
5.211581291759466,-0.04001777157581173
5.244988864142539,-0.19744666073073705
5.278396436525613,-0.3119369743843211
5.311804008908687,-0.36451832351081676
5.34521158129176,-0.35477421537686105
5.378619153674833,-0.298587906936479
5.412026726057907,-0.22091678833499906
5.445434298440981,-0.14648464115261065
5.478841870824054,-0.09176841964036278
5.512249443207128,-0.0610021107085511
5.545657015590201,-0.04731667380498376
5.579064587973274,-0.03811007045186149
5.612472160356348,-0.0220723699766982
5.645879732739422,0.0052768581150788975
5.679287305122495,0.039837412313030326
5.712694877505569,0.07139187585359
5.746102449888642,0.08875683995604773
5.779510022271715,0.08502523549618482
5.812917594654789,0.06056035927357784
5.846325167037863,0.022703909003686736
5.879732739420936,-0.01725587823608705
5.91314031180401,-0.048225168419559566
5.946547884187083,-0.0627514019750317
5.979955456570156,-0.05861923506272881
6.01336302895323,-0.03843964191084988
6.046770601336304,-0.007904676367252037
6.080178173719377,0.026277956350206515
6.1135857461024505,0.05791866639074142
6.146993318485524,0.0819807915668256
6.180400890868597,0.09451066249701778
6.213808463251671,0.09245459255542357
6.247216035634745,0.07398772856436413
6.280623608017818,0.03957591873321481
6.3140311804008915,-0.006684774728669642
6.347438752783965,-0.056456990976356536
6.380846325167038,-0.09827649439421215
6.414253897550112,-0.12065372643051453
6.447661469933186,-0.11625473035817552
6.481069042316259,-0.08531353032191868
6.5144766146993325,-0.036381185914282826
6.547884187082406,0.016421702743720762
6.581291759465479,0.058769108561476144
6.614699331848553,0.08178744905573082
6.648106904231627,0.08535610121825006
6.6815144766147,0.07743273828674727
6.7149220489977735,0.06967872114616916
6.748329621380847,0.07145303167157595
6.78173719376392,0.08503790377823352
6.815144766146994,0.10436435287221113
6.848552338530068,0.1178162785726217
6.881959910913141,0.11374346799346546
6.915367483296214,0.08607274299655499
6.948775055679288,0.03746865808970934
6.982182628062361,-0.021236761311061364
7.015590200445435,-0.0748727366880957
7.048997772828509,-0.10921233011999318
7.082405345211582,-0.11556340656786086
7.115812917594655,-0.09314563551322906
7.149220489977729,-0.048824154974081574
7.182628062360802,0.005257470080805156
7.216035634743876,0.05510676416038086
7.24944320712695,0.08833247287121887
7.282850779510023,0.09685232001167676
7.316258351893096,0.07842017338996443
7.34966592427617,0.03678582380007103
7.383073496659243,-0.01949707672277548
7.416481069042317,-0.07936082592186039
7.449888641425391,-0.1320593116654635
7.4832962138084635,-0.16974696131105416
7.516703786191537,-0.18898067231272878
7.550111358574611,-0.19066322359077387
7.583518930957685,-0.17857437416031616
7.616926503340758,-0.15727411427623583
7.650334075723832,-0.1304488713483257
7.683741648106905,-0.10047787848326911
7.717149220489978,-0.06921664271953129
7.750556792873052,-0.039159553207731665
7.783964365256126,-0.013808782730622617
7.817371937639199,0.003446254412023829
7.850779510022273,0.011555595057392197
7.884187082405346,0.01375573386065615
7.917594654788419,0.017650287166996414
7.951002227171493,0.032695062578055635
7.984409799554567,0.06584167140321338
8.01781737193764,0.1173348057965238
8.051224944320714,0.17889696837946512
8.084632516703786,0.23557702258145596
8.118040089086861,0.2708472990070631
8.151447661469934,0.2729448707231318
8.184855233853007,0.23974314043848638
8.218262806236082,0.17997057325509996
8.251670378619155,0.11015050989977296
8.285077951002227,0.04851415328676218
8.318485523385302,0.008454063389408278
8.351893095768375,-0.005790424008749768
8.385300668151448,0.0003727073569889348
8.418708240534523,0.015056889139839947
8.452115812917596,0.02505899650885424
8.485523385300668,0.020752107492590027
8.518930957683743,-0.0010811554213477266
8.552338530066816,-0.03712413317561134
8.585746102449889,-0.07960016874894763
8.619153674832964,-0.11937704757899696
8.652561247216036,-0.14891942359562876
8.68596881959911,-0.16430340706726784
8.719376391982184,-0.1659512350385325
8.752783964365257,-0.15803651583354786
8.78619153674833,-0.14672128134558748
8.819599109131405,-0.1376739721297929
8.853006681514477,-0.13366647858978623
8.88641425389755,-0.13321127897293755
8.919821826280625,-0.13092618940746556
8.953229398663698,-0.11962661620366961
8.98663697104677,-0.09337487787456754
9.020044543429846,-0.05026945717092444
9.053452115812918,0.006158809556172393
9.086859688195991,0.06753948486027206
9.120267260579066,0.12309842980832131
9.153674832962139,0.16310711187933072
9.187082405345212,0.1820962480203899
9.220489977728286,0.1805803387764385
9.25389755011136,0.16451687423383335
9.287305122494432,0.1425886432130712
9.320712694877507,0.1223482534938985
9.35412026726058,0.10686793350452012
9.387527839643653,0.0934363326433258
9.420935412026727,0.07498763138025903
9.4543429844098,0.04369782180059042
9.487750556792873,-0.004837151974303503
9.521158129175948,-0.06867903216970044
9.55456570155902,-0.13908677886659146
9.587973273942094,-0.20259371778341248
9.621380846325168,-0.24470504821065922
9.654788418708241,-0.25391228242748537
9.688195991091314,-0.2249527151272877
9.721603563474389,-0.16070244880541373
9.755011135857462,-0.07236687498241087
9.788418708240535,0.02233289639053159
9.82182628062361,0.10313894774967902
9.855233853006682,0.1529353994095998
9.888641425389755,0.16360564689115548
9.92204899777283,0.139693801008119
9.955456570155903,0.09767451329093603
9.988864142538976,0.06020703655997262
10.02227171492205,0.04716609514444356
10.055679287305123,0.06720468915460762
10.089086859688196,0.11382005369042797
10.12249443207127,0.1679750264216169
10.155902004454344,0.20617623929253448
10.189309576837417,0.21024874736929527
10.222717149220491,0.1743495444772833
10.256124721603564,0.10634427848060761
10.289532293986637,0.023543342207529697
10.322939866369712,-0.05465849246885255
10.356347438752785,-0.11371951309763956
10.389755011135858,-0.14777441793079654
10.423162583518932,-0.159530088261101
10.456570155902005,-0.15720678487291911
10.489977728285078,-0.15037448828777528
10.523385300668153,-0.14637348144859283
10.556792873051226,-0.14825024209140483
10.590200445434299,-0.15436758779972212
10.623608017817373,-0.15940366662245817
10.657015590200446,-0.15632503354698418
10.69042316258352,-0.13889191386969682
10.723830734966594,-0.1041559404093968
10.757238307349667,-0.054248787147227286
10.790645879732741,0.0032960224006932924
10.824053452115814,0.05718590263877226
10.857461024498887,0.09581414676161085
10.890868596881962,0.1114673541101676
10.924276169265035,0.10361011227677912
10.957683741648108,0.07963177113698924
10.991091314031182,0.052386963923466943
11.024498886414255,0.03531170431331923
11.057906458797328,0.03709569902855963
11.091314031180403,0.05816098960268448
11.124721603563476,0.09037980898219322
11.158129175946549,0.12002486367712269
11.191536748329623,0.13265415125395194
11.224944320712696,0.11807717906332424
11.25835189309577,0.07382165855077392
11.291759465478844,0.006268953838317862
11.325167037861917,-0.07061932940072593
11.35857461024499,-0.1385734146842101
11.391982182628064,-0.1796157542595263
11.425389755011137,-0.1810818378392164
11.45879732739421,-0.13983273518055264
11.492204899777285,-0.06420205938137839
11.525612472160358,0.02752856220616753
11.55902004454343,0.11232118876383893
11.592427616926505,0.16985899827901213
11.625835189309578,0.1895272501809485
11.659242761692651,0.173817902041577
11.692650334075726,0.13636261912415165
11.726057906458799,0.09524854093194426
11.759465478841872,0.06467121509902178
11.792873051224946,0.04896611694342677
11.82628062360802,0.041947042105630016
11.859688195991092,0.03174357858407113
11.893095768374167,0.008420887496905848
11.92650334075724,-0.02979808981179096
11.959910913140313,-0.07506409349740019
11.993318485523387,-0.11387924841967714
12.02672605790646,-0.1342100739724675
12.060133630289533,-0.13177984140382046
12.093541202672608,-0.11219884623348554
12.12694877505568,-0.088022116153387
12.160356347438753,-0.0725706506099322
12.193763919821828,-0.07383305488102562
12.227171492204901,-0.09131290211877516
12.260579064587974,-0.11685715364096844
12.293986636971049,-0.13852848555258612
12.327394209354122,-0.14549883139894032
12.360801781737194,-0.13200010159551434
12.39420935412027,-0.09913754637367256
12.427616926503342,-0.05425175048487084
12.461024498886415,-0.008201339617440179
12.49443207126949,0.028546331106143148
12.527839643652563,0.04973478624755801
12.561247216035635,0.05564519858338554
12.59465478841871,0.052919662562231816
12.628062360801783,0.05179693776190292
12.661469933184856,0.06178798918151093
12.69487750556793,0.08756836377078431
12.728285077951004,0.12684499121548648
12.761692650334076,0.17113311276954082
12.795100222717151,0.20910585434561144
12.828507795100224,0.2310227373075923
12.861915367483297,0.2322457946059328
12.895322939866372,0.21428534055362047
12.928730512249444,0.18302453473231237
12.962138084632517,0.14518582919863926
12.995545657015592,0.10499227114221041
13.028953229398665,0.0628318069450771
13.062360801781738,0.016582057342642526
13.095768374164813,-0.035294248130073716
13.129175946547885,-0.09083937323951216
13.162583518930958,-0.1437803515720499
13.195991091314033,-0.1855235897147559
13.229398663697106,-0.20902612619498281
13.262806236080179,-0.21240147009960375
13.296213808463254,-0.20010093330837203
13.329621380846326,-0.1807706680246337
13.3630289532294,-0.16276616348258582
13.396436525612474,-0.14972921820359822
13.429844097995547,-0.13871415965983339
13.46325167037862,-0.1219778246670086
13.496659242761694,-0.09150413992939598
13.530066815144767,-0.0438339648567403
13.56347438752784,0.017315183770162463
13.596881959910915,0.08185574381146121
13.630289532293988,0.13695424947939996
13.66369710467706,0.1715810975129931
13.697104677060135,0.17994684199309008
13.730512249443208,0.1626326262703558
13.763919821826281,0.12543267667002755
13.797327394209356,0.07685330427494927
13.830734966592429,0.0255260497265283
13.864142538975502,-0.021477618115656804
13.897550111358576,-0.059061499417906456
13.93095768374165,-0.0835658986838961
13.964365256124722,-0.09207542641618156
13.997772828507797,-0.08243560057557758
14.03118040089087,-0.05437822926701507
14.064587973273943,-0.01130960763932628
14.097995545657017,0.038482769178819744
14.13140311804009,0.08262586475656003
14.164810690423163,0.10807613384215344
14.198218262806238,0.10621749917949269
14.23162583518931,0.07727416137698727
14.265033407572384,0.031400572155260806
14.298440979955458,-0.014840481241177182
14.331848552338531,-0.04551164278210641
14.365256124721604,-0.0526534817643596
14.398663697104679,-0.04022573066230963
14.432071269487752,-0.0223294358764615
14.465478841870825,-0.016122561746645517
14.4988864142539,-0.03254169182973217
14.532293986636972,-0.06931277183326419
14.565701559020045,-0.11003991441497626
14.59910913140312,-0.1305516410231293
14.632516703786193,-0.11019711570606505
14.665924276169266,-0.04301255177121517
14.69933184855234,0.056893469249985854
14.732739420935413,0.15914435315096714
14.766146993318486,0.22920028957936542
14.79955456570156,0.24351260831284485
14.832962138084634,0.2003905583502955
14.866369710467707,0.1208405399410308
14.899777282850781,0.03844145881005439
14.933184855233854,-0.017001644666033676
14.966592427616927,-0.033782088463624856
15.0,-0.02311371000706201
