Frequency (Hz),Amplitude
0.0,2.496360700377021
0.019801980198019802,2.496557259550014
0.039603960396039604,2.497146070839819
0.0594059405940594,2.4981245406494677
0.07920792079207921,2.4994883632308027
0.09900990099009901,2.5012315458623298
0.1188118811881188,2.503346443717936
0.13861386138613863,2.5058238040555207
0.15841584158415842,2.508652819262446
0.1782178217821782,2.5118211882108796
0.19801980198019803,2.5153151853042033
0.21782178217821782,2.519119736534885
0.2376237623762376,2.52321850182618
0.25742574257425743,2.5275939628953616
0.27722772277227725,2.532227515853881
0.297029702970297,2.5370995677506443
0.31683168316831684,2.542189636267221
0.33663366336633666,2.5474764517873694
0.3564356435643564,2.5529380610869503
0.37623762376237624,2.5585519319228602
0.39603960396039606,2.5642950578390797
0.4158415841584158,2.5701440625536915
0.43564356435643564,2.5760753033410633
0.45544554455445546,2.5820649728763683
0.4752475247524752,2.588089199065096
0.495049504950495,2.5941241424357897
0.5148514851485149,2.6001460907295137
0.5346534653465347,2.6061315503737963
0.5544554455445545,2.6120573345800926
0.5742574257425742,2.6179006478531366
0.594059405940594,2.6236391667458903
0.613861386138614,2.6292511167356305
0.6336633663366337,2.6347153451348424
0.6534653465346534,2.6400113899839837
0.6732673267326733,2.6451195449032503
0.6930693069306931,2.6500209199056686
0.7128712871287128,2.6546974981955938
0.7326732673267327,2.659132188994464
0.7524752475247525,2.6633088764495403
0.7722772277227723,2.6672124646924797
0.7920792079207921,2.670828919121907
0.8118811881188118,2.6741453039892713
0.8316831683168316,2.6771498163690763
0.8514851485148516,2.679831816595014
0.8712871287128713,2.682181855240953
0.891089108910891,2.684191696722088
0.9108910891089109,2.6858543395860286
0.9306930693069307,2.6871640335568645
0.9504950495049505,2.68811629338709
0.9702970297029703,2.688707909564005
0.99009900990099,2.6889369559069416
1.00990099009901,2.6888027940823345
1.0297029702970297,2.6883060750524446
1.0495049504950495,2.6874487374634586
1.0693069306930694,2.68623400296748
1.0891089108910892,2.6846663684624024
1.108910891089109,2.682751595223217
1.1287128712871286,2.6804966948882933
1.1485148514851484,2.6779099122543473
1.1683168316831685,2.67500070482569
1.188118811881188,2.671779719054928
1.2079207920792079,2.668258763205882
1.227722772277228,2.6644507767641756
1.2475247524752475,2.660369796317049
1.2673267326732673,2.6560309178219152
1.2871287128712872,2.651450255183423
1.3069306930693068,2.6466448950609665
1.3267326732673268,2.6416328478336597
1.3465346534653466,2.6364329946574294
1.3663366336633662,2.6310650305600873
1.3861386138613863,2.625549403534047
1.405940594059406,2.619907249604728
1.4257425742574257,2.6141603238738997
1.4455445544554455,2.608330927563297
1.4653465346534653,2.6024418311130213
1.4851485148514851,2.5965161934236227
1.504950495049505,2.590577477368109
1.5247524752475248,2.584649361742363
1.5445544554455446,2.5787556498675217
1.5643564356435644,2.572920175106887
1.5841584158415842,2.567166703611375
1.6039603960396038,2.5615188346610664
1.6237623762376237,2.555999899025535
1.6435643564356437,2.5506328558208287
1.6633663366336633,2.5454401883958173
1.683168316831683,2.5404437998331986
1.7029702970297032,2.5356649087001615
1.7227722772277227,2.531123945728714
1.7425742574257426,2.5268404521447616
1.7623762376237624,2.522832980396709
1.782178217821782,2.5191189980573574
1.801980198019802,2.5157147956860433
1.8217821782178218,2.5126353994398323
1.8415841584158414,2.5098944892128223
1.8613861386138615,2.5075043230601612
1.881188118811881,2.5054756686280726
1.900990099009901,2.503817742263119
1.920792079207921,2.5025381564133413
1.9405940594059405,2.5016428758615317
1.9603960396039604,2.5011361832479007
1.98019801980198,2.5010206542473243
2.0,2.501297142666389
2.01980198019802,2.5019647756204306
2.0396039603960396,2.50302095884205
2.0594059405940595,2.50446139206292
2.0792079207920793,2.50628009430227
2.099009900990099,2.5084694387904274
2.118811881188119,2.511020197156621
2.1386138613861387,2.5139215924183955
2.1584158415841586,2.517161360227887
2.1782178217821784,2.520725817758323
2.1980198019801978,2.5245999395546193
2.217821782178218,2.5287674396242865
2.237623762376238,2.5332108590107443
2.257425742574257,2.537911658069302
2.2772277227722775,2.5428503126569653
2.297029702970297,2.5480064134501577
2.3168316831683167,2.5533587676178624
2.336633663366337,2.5588855021014267
2.3564356435643563,2.5645641677844413
2.376237623762376,2.5703718438754977
2.3960396039603964,2.57628524187195
2.4158415841584158,2.582280808522533
2.4356435643564356,2.588334827259654
2.455445544554456,2.5944235176267454
2.4752475247524752,2.600523132281386
2.495049504950495,2.606610051209702
2.514851485148515,2.612660872841218
2.5346534653465347,2.618652501804227
2.5544554455445545,2.624562233110767
2.5742574257425743,2.6303678326049558
2.594059405940594,2.6360476135503697
2.6138613861386135,2.6415805092693927
2.633663366336634,2.6469461417813034
2.6534653465346536,2.6521248864149483
2.673267326732673,2.657097932397543
2.6930693069306932,2.6618473394422946
2.712871287128713,2.66635609037535
2.7326732673267324,2.670608139856527
2.7524752475247527,2.6745884592590983
2.7722772277227725,2.6782830777814146
2.792079207920792,2.681679119868087
2.811881188118812,2.6847648390206187
2.8316831683168315,2.6875296480774025
2.8514851485148514,2.6899641460409494
2.8712871287128716,2.6920601415263445
2.891089108910891,2.693810672899742
2.910891089108911,2.6952100251687208
2.9306930693069306,2.696253743678972
2.9504950495049505,2.6969386446627572
2.9702970297029703,2.6972628226754836
2.99009900990099,2.6972256549465023
3.00990099009901,2.6968278026604136
3.0297029702970297,2.696071209174029
3.0495049504950495,2.6949590951642475
3.0693069306930694,2.6934959506910685
3.089108910891089,2.691687524150106
3.108910891089109,2.689540808079068
3.128712871287129,2.687064021773413
3.148514851485148,2.684266590657974
3.1683168316831685,2.6811591223538573
3.1881188118811883,2.6777533793735024
3.2079207920792077,2.674062248371767
3.227722772277228,2.670099705877412
3.2475247524752473,2.66588078042779
3.267326732673267,2.6614215110297836
3.2871287128712874,2.6567389018728824
3.3069306930693068,2.6518508732253663
3.3267326732673266,2.646776208452762
3.346534653465347,2.641534497108866
3.366336633663366,2.636146074063964
3.386138613861386,2.630631954653067
3.4059405940594063,2.6250137658485766
3.4257425742574257,2.619313673487472
3.4455445544554455,2.6135543056126815
3.4653465346534653,2.6077586720219146
3.485148514851485,2.6019500801546847
3.504950495049505,2.5961520474896793
3.5247524752475248,2.5903882106693814
3.5445544554455446,2.5846822316168194
3.564356435643564,2.579057700959957
3.5841584158415842,2.573538039131855
3.603960396039604,2.5681463955683363
3.6237623762376234,2.562905546479031
3.6435643564356437,2.557837791720882
3.6633663366336635,2.5529648513542798
3.683168316831683,2.5483077625101673
3.702970297029703,2.5438867772397247
3.722772277227723,2.5397212620558185
3.7425742574257423,2.5358295999055347
3.762376237623762,2.5322290953347473
3.7821782178217824,2.5289358836175078
3.801980198019802,2.5259648446240317
3.8217821782178216,2.523329522190489
3.841584158415842,2.5210420497308825
3.8613861386138613,2.51911308279594
3.881188118811881,2.517551739236162
3.9009900990099013,2.516365547566169
3.9207920792079207,2.5155604040561466
3.9405940594059405,2.515140538994668
3.96039603960396,2.5151084924765787
3.98019801980198,2.5154650999720194
4.0,2.5162094878295584
4.01980198019802,2.517339078760358
4.03960396039604,2.5188496072430295
4.0594059405940595,2.5207351446831128
4.079207920792079,2.5229881340585227
4.099009900990099,2.5255994336856964
4.118811881188119,2.528558369651428
4.138613861386139,2.531852796375495
4.158415841584159,2.5354691646988665
4.178217821782178,2.5393925968342486
4.198019801980198,2.5436069674692487
4.217821782178218,2.5480949902789036
4.237623762376238,2.5528383090828637
4.257425742574258,2.557817592873583
4.2772277227722775,2.5630126339442185
4.297029702970297,2.568402448358027
4.316831683168317,2.573965378023883
4.336633663366336,2.5796791936735
4.356435643564357,2.5855211980742627
4.376237623762377,2.5914683288556293
4.3960396039603955,2.5974972603752184
4.415841584158416,2.603584504102322
4.435643564356436,2.609706507049673
4.455445544554455,2.6158397478383892
4.475247524752476,2.621960830034262
4.4950495049504955,2.6280465724461344
4.514851485148514,2.634074096126904
4.534653465346535,2.640020907865528
4.554455445544555,2.6458649800025045
4.574257425742574,2.651584826442054
4.594059405940594,2.6571595747712755
4.613861386138614,2.6625690344295023
4.633663366336633,2.6677937609001545
4.653465346534653,2.6728151159223223
4.673267326732674,2.677615323740828
4.693069306930693,2.682177523430741
4.712871287128713,2.6864858173466004
4.732673267326733,2.6905253157572906
4.752475247524752,2.694282177735156
4.772277227722772,2.6977436483731463
4.792079207920793,2.700898092406086
4.811881188118812,2.7037350243123908
4.8316831683168315,2.7062451349708563
4.851485148514852,2.7084203149436377
4.871287128712871,2.710253674451405
4.891089108910891,2.711739560100434
4.910891089108912,2.712873568413952
4.930693069306931,2.713652556211753
4.9504950495049505,2.714074647873147
4.97029702970297,2.7141392395087007
4.99009900990099,2.713847000056483
5.00990099009901,2.7131998693082315
5.02970297029703,2.712201052861014
5.0495049504950495,2.7108550139796956
5.069306930693069,2.7091674623458792
5.089108910891089,2.707145339659799
5.108910891089109,2.70479680205266
5.128712871287129,2.7021311992592274
5.148514851485149,2.6991590504934346
5.1683168316831685,2.69589201696368
5.188118811881188,2.6923428709605073
5.207920792079208,2.6885254614457743
5.227722772277227,2.6844546760719266
5.247524752475248,2.6801463995604133
5.267326732673268,2.675617468371673
5.2871287128712865,2.6708856216048233
5.306930693069307,2.665969448073458
5.326732673267327,2.660888329515689
5.346534653465346,2.655662379911009
5.366336633663367,2.650312380894801
5.3861386138613865,2.6448597132831098
5.405940594059405,2.6393262847455947
5.425742574257426,2.6337344536939407
5.445544554455446,2.6281069494861553
5.465346534653465,2.622466789083822
5.485148514851486,2.6168371903398553
5.504950495049505,2.611241482137961
5.524752475247524,2.6057030116516033
5.544554455445545,2.6002450490390485
5.564356435643565,2.5948906899419586
5.584158415841584,2.589662756206587
5.603960396039604,2.5845836952982246
5.623762376237624,2.5796754789305005
5.643564356435643,2.574959501479651
5.663366336633663,2.5704564787993007
5.683168316831684,2.566186348092159
5.702970297029703,2.5621681695298917
5.7227722772277225,2.5584200303402853
5.742574257425743,2.5549589521003755
5.762376237623762,2.5518008019840934
5.782178217821782,2.5489602087126917
5.801980198019803,2.546450483944613
5.821782178217822,2.5442835498180942
5.841584158415841,2.542469873324808
5.861386138613861,2.541018408145454
5.881188118811881,2.539936544519917
5.900990099009901,2.539230067655168
5.920792079207921,2.5389031250949383
5.9405940594059405,2.5389582033879914
5.96039603960396,2.5393961142973813
5.98019801980198,2.540215990694214
6.0,2.5414152921771427
6.01980198019802,2.5429898203561465
6.03960396039604,2.5449337436373902
6.0594059405940595,2.5472396312477232
6.079207920792079,2.549898496144583
6.099009900990099,2.552899846371037
6.118811881188119,2.556231744338717
6.138613861386139,2.5598808734541545
6.158415841584159,2.5638326114477645
6.178217821782178,2.5680711097199898
6.198019801980198,2.5725793779864388
6.217821782178218,2.5773393734828227
6.237623762376237,2.5823320939813312
6.257425742574258,2.5875376738716915
6.2772277227722775,2.5929354825721695
6.297029702970296,2.598504224556868
6.316831683168317,2.6042220403150336
6.336633663366337,2.6100666075940033
6.356435643564356,2.616015242319309
6.376237623762377,2.622044998631279
6.396039603960396,2.6281327675265596
6.415841584158415,2.6342553736438514
6.435643564356436,2.6403896697846796
6.455445544554456,2.646512628811444
6.475247524752475,2.6526014326151794
6.495049504950495,2.6586335578938627
6.514851485148515,2.6645868585278176
6.534653465346534,2.67043964438185
6.554455445544554,2.6761707564032458
6.574257425742575,2.6817596379205666
6.594059405940594,2.6871864020807315
6.6138613861386135,2.6924318953900017
6.633663366336634,2.6974777573493633
6.653465346534653,2.7023064761957514
6.673267326732673,2.7069014407779015
6.693069306930694,2.7112469886098287
6.712871287128713,2.7153284501557553
6.732673267326732,2.719132189408292
6.752475247524753,2.7226456408270177
6.772277227722772,2.7258573427074517
6.792079207920792,2.728756967050968
6.811881188118813,2.731335346005088
6.8316831683168315,2.7335844949404478
6.851485148514851,2.7354976322263083
6.871287128712871,2.7370691957607325
6.891089108910891,2.738294856304767
6.910891089108911,2.739171527662107
6.930693069306931,2.739697373737681
6.9504950495049505,2.7398718124993535
6.97029702970297,2.7396955168579593
6.99009900990099,2.7391704124713687
7.00990099009901,2.738299672468817
7.02970297029703,2.73708770908254
7.0495049504950495,2.735540162164557
7.069306930693069,2.7336638845579895
7.089108910891089,2.7314669242843306
7.108910891089109,2.728958503500759
7.128712871287128,2.726148994175543
7.148514851485149,2.7230498904243565
7.1683168316831685,2.7196737774466273
7.188118811881187,2.716034296998949
7.207920792079208,2.712146109342015
7.227722772277228,2.708024851599282
7.247524752475247,2.703687092469231
7.267326732673268,2.6991502832394825
7.287128712871287,2.694432705059852
7.306930693069306,2.6895534124433045
7.326732673267327,2.684532172978696
7.346534653465347,2.6793894032573675
7.366336633663366,2.6741461010371994
7.3861386138613865,2.668823773693001
7.405940594059406,2.663444363030627
7.425742574257425,2.6580301665744894
7.445544554455446,2.6526037554737694
7.465346534653466,2.647187889211603
7.485148514851485,2.64180542734324
7.504950495049505,2.6364792385337
7.524752475247524,2.63123210721199
7.544554455445544,2.6260866382067665
7.564356435643565,2.621065159776969
7.584158415841584,2.6161896254994637
7.603960396039604,2.6114815155228976
7.623762376237624,2.6069617377421324
7.643564356435643,2.602650529489319
7.663366336633663,2.5985673603749078
7.683168316831684,2.5947308369434006
7.702970297029703,2.5911586098333252
7.7227722772277225,2.5878672841475314
7.742574257425743,2.5848723337476214
7.762376237623762,2.582188020184173
7.782178217821782,2.579827316961738
7.801980198019803,2.577801839814046
7.821782178217822,2.5761217836300534
7.841584158415841,2.574795866625753
7.861386138613862,2.5738312823002865
7.881188118811881,2.573233659648491
7.900990099009901,2.573007032026911
7.92079207920792,2.573153814987163
7.9405940594059405,2.573674793301483
7.96039603960396,2.5745691173118814
7.980198019801979,2.575834308637709
8.0,2.577466275179946
8.01980198019802,2.5794593352645583
8.03960396039604,2.581806250674939
8.05940594059406,2.5844982682359086
8.07920792079208,2.587525169530857
8.099009900990099,2.590875328260825
8.118811881188119,2.5945357746907405
8.138613861386139,2.598492266574669
8.158415841584159,2.6027293659091884
8.178217821782178,2.607230520832581
8.198019801980198,2.6119781519669028
8.217821782178218,2.6169537424903955
8.237623762376238,2.6221379312283535
8.257425742574258,2.627510608060732
8.277227722772277,2.633051010963796
8.297029702970297,2.6387378240295787
8.316831683168317,2.6445492758400038
8.336633663366337,2.6504632376111257
8.356435643564357,2.6564573205653326
8.376237623762377,2.6625089720350754
8.396039603960396,2.668595569849286
8.415841584158416,2.674694514601783
8.435643564356436,2.6807833194494766
8.455445544554456,2.6868396971354853
8.475247524752476,2.692841643978011
8.495049504950495,2.698767520609594
8.514851485148515,2.70459612929205
8.534653465346535,2.7103067876703983
8.554455445544555,2.71587939886375
8.574257425742575,2.721294517822082
8.594059405940595,2.7265334139056088
8.613861386138613,2.7315781296674766
8.633663366336634,2.736411535841235
8.653465346534654,2.7410173825517
8.673267326732672,2.7453803467821154
8.693069306930694,2.74948607614153
8.712871287128714,2.7533212289845337
8.732673267326732,2.756873510941557
8.752475247524753,2.7601317079209036
8.772277227722773,2.763085715645378
8.792079207920791,2.7657265657854473
8.811881188118813,2.7680464487488945
8.831683168316832,2.770038733182999
8.85148514851485,2.7716979822404917
8.871287128712872,2.7730199666544744
8.891089108910892,2.7740016746607545
8.91089108910891,2.7746413187985097
8.930693069306932,2.774938339612196
8.950495049504951,2.7748934062693826
8.97029702970297,2.7745084141006036
8.990099009900991,2.77378647905901
9.00990099009901,2.7727319290890096
9.029702970297029,2.77135029238522
9.04950495049505,2.7696482825154254
9.06930693069307,2.7676337803742244
9.089108910891088,2.7653158129278492
9.10891089108911,2.762704528705505
9.12871287128713,2.759811169988421
9.148514851485148,2.7566480416450063
9.16831683168317,2.7532284765594803
9.188118811881187,2.7495667976014784
9.207920792079207,2.745678276087001
9.227722772277229,2.7415790866852925
9.247524752475247,2.7372862587332576
9.267326732673267,2.7328176239285944
9.287128712871288,2.728191760384721
9.306930693069306,2.723427933045965
9.326732673267326,2.7185460304793625
9.346534653465348,2.7135664980807834
9.366336633663366,2.708510267757549
9.386138613861386,2.7033986841774102
9.405940594059407,2.698253427704674
9.425742574257425,2.693096434178102
9.445544554455445,2.6879498117221554
9.465346534653467,2.6828357548222983
9.485148514851485,2.677776455936738
9.504950495049505,2.672794014960017
9.524752475247526,2.6679103468981076
9.544554455445544,2.6631470881593162
9.564356435643564,2.6585255019091987
9.584158415841586,2.6540663829806688
9.603960396039604,2.6497899628707566
9.623762376237623,2.6457158153926157
9.643564356435645,2.6418627635841005
9.663366336633663,2.6382487885013437
9.683168316831683,2.6348909405466263
9.702970297029704,2.6318052539929884
9.722772277227723,2.629006665372991
9.742574257425742,2.6265089363949454
9.762376237623764,2.6243245820361127
9.782178217821782,2.622464804438733
9.801980198019802,2.620939433200926
9.821782178217823,2.6197568726107088
9.841584158415841,2.6189240563181935
9.861386138613861,2.6184464098787035
9.881188118811881,2.618327821529423
9.900990099009901,2.6185706214852735
9.92079207920792,2.619175569957132
9.94059405940594,2.6201418540092036
9.96039603960396,2.621467093283732
9.98019801980198,2.6231473545319464
10.0,2.6251771748022654
10.01980198019802,2.6275495930516555
10.03960396039604,2.630256189865455
10.05940594059406,2.633287134896447
10.07920792079208,2.6366312415667386
10.099009900990099,2.6402760285169413
10.118811881188119,2.644207787237514
10.138613861386139,2.6484116552769423
10.158415841584159,2.652871694391537
10.178217821782178,2.6575709729814987
10.198019801980198,2.6624916521478816
10.217821782178218,2.6676150747041607
10.237623762376238,2.672921856484428
10.257425742574258,2.678391979305965
10.277227722772277,2.6840048849671843
10.297029702970297,2.68973956969131
10.316831683168317,2.6955746784601096
10.336633663366337,2.7014885987205446
10.356435643564357,2.707459552988267
10.376237623762377,2.7134656899150613
10.396039603960396,2.719485173431594
10.415841584158416,2.7254962696210008
10.435643564356436,2.731477431022666
10.455445544554454,2.7374073781079606
10.475247524752476,2.743265177710198
10.495049504950495,2.7490303182295457
10.514851485148514,2.7546827814690245
10.534653465346535,2.760203110990756
10.554455445544555,2.7655724769110623
10.574257425742573,2.7707727370796404
10.594059405940595,2.775786494611324
10.613861386138614,2.780597151759044
10.633663366336632,2.7851889601337745
10.653465346534654,2.789547067291304
10.673267326732674,2.793657559717066
10.693069306930692,2.7975075022489393
10.712871287128714,2.8010849739843993
10.732673267326733,2.804379100722246
10.752475247524751,2.807380083991506
