Frequency (Hz),Amplitude
0.0,6.567002672367734
0.01993355481727575,6.564226998449132
0.0398671096345515,6.555903910065097
0.059800664451827246,6.542045213904263
0.079734219269103,6.522670609854546
0.09966777408637874,6.497807724684562
0.11960132890365449,6.467492160354159
0.13953488372093023,6.4317675581436635
0.159468438538206,6.390685680179231
0.17940199335548174,6.34430651035865
0.19933554817275748,6.292698377156597
0.21926910299003324,6.235938101325043
0.23920265780730898,6.174111172115736
0.25913621262458475,6.107311956353932
0.27906976744186046,6.035643945504978
0.29900332225913623,5.959220046818211
0.318936877076412,5.87816292573212
0.3388704318936877,5.792605408008367
0.3588039867109635,5.702690951562192
0.37873754152823924,5.608574199709949
0.39867109634551495,5.510421629598045
0.4186046511627907,5.408412311953919
0.4385382059800665,5.30273880104571
0.4584717607973422,5.19360817688743
0.47840531561461797,5.081243265295993
0.49833887043189373,4.965884065384337
0.5182724252491695,4.847789418395969
0.5382059800664452,4.727238956299696
0.5581395348837209,4.604535372976687
0.5780730897009968,4.480007064634712
0.5980066445182725,4.354011188424031
0.6179401993355482,4.226937187749229
0.637873754152824,4.09921082736743
0.6578073089700996,3.9712987678700586
0.6777408637873754,3.843713682935099
0.6976744186046512,3.717019877265534
0.717607973421927,3.5918392895299447
0.7375415282392027,3.468857651570715
0.7574750830564785,3.348830409475491
0.7774086378737541,3.2325877809713353
0.7973421926910299,3.121038019461988
0.8172757475083057,3.0151675850639905
0.8372093023255814,2.916036524182338
0.8571428571428572,2.824767018217436
0.877076411960133,2.7425229340021406
0.8970099667774087,2.6704785187122835
0.9169435215946844,2.6097753841840743
0.9368770764119602,2.5614687912058063
0.9568106312292359,2.5264668831731907
0.9767441860465116,2.5054694043745998
0.9966777408637875,2.498914595728035
1.0166112956810631,2.506943268749331
1.036544850498339,2.5293868434280333
1.0564784053156147,2.565781725477683
1.0764119601328903,2.615407170277529
1.0963455149501662,2.677339532604459
1.1162790697674418,2.7505138283809947
1.1362126245847177,2.833784057584404
1.1561461794019936,2.9259760125602208
1.176079734219269,3.0259291935919164
1.196013289036545,3.1325270336114754
1.2159468438538206,3.244716416012985
1.2358803986710964,3.361518396567942
1.255813953488372,3.4820322984025878
1.275747508305648,3.605435192504099
1.2956810631229239,3.730978424623331
1.3156146179401993,3.8579824508186866
1.3355481727574752,3.9858308793416994
1.3554817275747508,4.113964319461516
1.3754152823920267,4.24187441340856
1.3953488372093024,4.369098267540155
1.4152823920265782,4.495213390068527
1.435215946843854,4.619833172198952
1.4551495016611296,4.742602906209089
1.4750830564784054,4.863196309227931
1.495016611295681,4.981312508904342
1.514950166112957,5.096673442320786
1.5348837209302328,5.209021619359545
1.5548172757475083,5.318118204246154
1.5747508305647842,5.423741372876338
1.5946843853820598,5.525684907967132
1.6146179401993357,5.623756998571543
1.6345514950166113,5.717779214785312
1.6544850498338872,5.80758563241107
1.6744186046511629,5.8930220858722695
1.6943521594684385,5.973945530777253
1.7142857142857144,6.050223500241566
1.73421926910299,6.121733641418015
1.754152823920266,6.188363320697102
1.7740863787375416,6.2500092877668925
1.7940199335548175,6.306577390198759
1.8139534883720931,6.357982331489598
1.8338870431893688,6.404147466574066
1.8538205980066447,6.4450046297498025
1.8737541528239203,6.480493990759184
1.893687707641196,6.510563935464021
1.9136212624584719,6.535170968153228
1.9335548172757475,6.554279633053422
1.9534883720930232,6.567862453082635
1.9734219269102993,6.575899884309651
1.993355481727575,6.578380284967243
2.0132890365448506,6.5752998982244675
2.0332225913621262,6.566662848262738
2.0531561461794023,6.552481149527614
2.073089700996678,6.5327747293536085
2.0930232558139537,6.507571464488595
2.1129568106312293,6.476907232386695
2.132890365448505,6.440825978501323
2.1528239202657806,6.399379801202843
2.1727574750830567,6.352629056376803
2.1926910299003324,6.300642484241269
2.212624584717608,6.243497361466157
2.2325581395348837,6.181279682299273
2.25249169435216,6.1140843731181596
2.2724252491694354,6.042015545653549
2.292358803986711,5.965186795090841
2.312292358803987,5.883721550375612
2.332225913621263,5.79775348535685
2.352159468438538,5.7074270009299015
2.3720930232558137,5.612897790126495
2.39202657807309,5.514333500180535
2.4119601328903655,5.411914508016687
2.431893687707641,5.305834828401961
2.4518272425249172,5.196303177201164
2.471760797342193,5.083544215798673
2.4916943521594686,4.9678000067762005
2.511627906976744,4.849331715297217
2.5315614617940203,4.728421595180001
2.551495016611296,4.605375303033787
2.5714285714285716,4.48052458754368
2.5913621262458477,4.354230403126832
2.611295681063123,4.226886496319724
2.6312292358803986,4.098923507198004
2.6511627906976742,3.9708136135759897
2.6710963455149503,3.8430757178774115
2.691029900332226,3.71628112863987
2.7109634551495017,3.591059611485339
2.7308970099667778,3.468105566486861
2.7508305647840534,3.3481839168987784
2.770764119601329,3.232135055571021
2.7906976744186047,3.1208778834410538
2.810631229235881,3.01540959865274
2.8305647840531565,2.9168004960856604
2.850498338870432,2.8261817082473057
2.870431893687708,2.7447237221569436
2.8903654485049834,2.6736038741083297
2.910299003322259,2.613962107384917
2.9302325581395348,2.566846231863642
2.950166112956811,2.5331506226934497
2.9700996677740865,2.5135551639786264
2.990033222591362,2.508473273036811
3.0099667774086383,2.5180179233749387
3.029900332225914,2.541992122922349
3.0498338870431896,2.5799057363281386
3.0697674418604657,2.631015321434606
3.089700996677741,2.6943795709532767
3.1096345514950166,2.76892121972985
3.129568106312292,2.8534870097161975
3.1495016611295683,2.9468996899519793
3.169435215946844,3.0479989338042923
3.1893687707641196,3.1556705769787747
3.2093023255813957,3.268865281503971
3.2292358803986714,3.3866085869607216
3.249169435215947,3.5080045195942984
3.2691029900332227,3.6322347472511476
3.289036544850499,3.758554906862939
3.3089700996677744,3.8862893328824875
3.32890365448505,4.014825055544218
3.3488372093023258,4.143605647134341
3.3687707641196014,4.272125276118537
3.388704318936877,4.399923173928602
3.4086378737541527,4.5265786142866125
3.428571428571429,4.6517064372234085
3.4485049833887045,4.774953108545938
3.46843853820598,4.895993282010201
3.4883720930232562,5.014526819705675
3.508305647840532,5.130276221826493
3.5282392026578075,5.242984417150521
3.548172757475083,5.35241286822268
3.5681063122923593,5.458339949193169
3.588039867109635,5.560559558715911
3.60797342192691,5.658879934802027
3.6279069767441863,5.7531226427867095
3.647840531561462,5.843121711472083
3.6677740863787376,5.928722896000937
3.6877076411960132,6.009783049090325
3.7076411960132893,6.086169584930706
3.727574750830565,6.157760022369364
3.7475083056478407,6.224441595985699
3.7674418604651168,6.2861109253709575
3.787375415282392,6.342673734384401
3.807308970099668,6.394044613406587
3.8272425249169437,6.440146818680854
3.8471760797342194,6.480912103752551
3.867109634551495,6.516280578807636
3.887043189368771,6.546200594398021
3.9069767441860463,6.570628646638768
3.9269102990033224,6.5895293014880805
3.9468438538205985,6.602875136187611
3.9667774086378738,6.610646696361063
3.98671096345515,6.612832467652807
4.0066445182724255,6.6094288611453695
4.026578073089701,6.600440212133755
4.046511627906977,6.585878792163532
4.0664451827242525,6.565764834566406
4.086378737541528,6.540126574059642
4.106312292358805,6.509000301321415
4.1262458471760795,6.472430433822167
4.146179401993356,6.430469604590475
4.166112956810632,6.38317877103145
4.186046511627907,6.330627346406562
4.205980066445183,6.272893357139431
4.225913621262459,6.210063629746455
4.245847176079734,6.142234011920878
4.26578073089701,6.069509633143801
4.2857142857142865,5.992005211177297
4.305647840531561,5.909845411939657
4.325581395348838,5.8231652715997875
4.345514950166113,5.732110691290239
4.365448504983389,5.63683901666316
4.385382059800665,5.537519716640186
4.40531561461794,5.4343351781764895
4.425249169435216,5.327481636709033
4.445182724252492,5.217170265220382
4.465116279069767,5.103628448533434
4.485049833887043,4.98710127353886
4.50498338870432,4.867853270465497
4.524916943521594,4.746170444857683
4.544850498338871,4.622362644291083
4.5647840531561465,4.496766307464107
4.584717607973422,4.36974764520068
4.604651162790698,4.241706301592204
4.624584717607974,4.113079536684634
4.644518272425249,3.9843469563305036
4.664451827242526,3.8560357850639275
4.6843853820598005,3.728726627091186
4.704318936877076,3.603059579300142
4.724252491694353,3.4797404367380946
4.7441860465116275,3.359546551884251
4.764119601328904,3.2433316619144206
4.78405315614618,3.1320286775336714
4.803986710963455,3.026649044715026
4.823920265780731,2.9282768923702083
4.8438538205980075,2.838055864261627
4.863787375415282,2.7571664730124343
4.883720930232559,2.6867922449367843
4.9036544850498345,2.628074096303454
4.92358803986711,2.5820544300046526
4.943521594684386,2.5496152003925356
4.963455149501661,2.5314170388350887
4.983388704318937,2.5278484204275853
5.003322259136213,2.538993694392903
5.023255813953488,2.5646260840726893
5.043189368770764,2.604227039422845
5.063122923588041,2.6570281257867645
5.083056478405315,2.722067733019317
5.102990033222592,2.79825340490684
5.122923588039868,2.884421527132852
5.142857142857143,2.9793886023010643
5.162790697674419,3.08199124909141
5.182724252491695,3.191114524428115
5.20265780730897,3.3057097905964374
5.222591362126246,3.424804137059605
5.242524916943522,3.547503529917541
5.262458471760797,3.6729916546039427
5.282392026578074,3.800526047239213
5.3023255813953485,3.9294327120473547
5.322259136212625,4.059100067360107
5.342192691029901,4.1889727779497345
5.362126245847176,4.318545818662072
5.382059800664452,4.447358963861368
5.4019933554817285,4.574991795762578
5.421926910299003,4.701059259513133
5.44186046511628,4.825207753212527
5.4617940199335555,4.947111718708919
5.48172757475083,5.066470687997884
5.501661129568107,5.183006736172279
5.5215946843853825,5.296462292284436
5.541528239202658,5.406598262302639
5.561461794019934,5.513192422366871
5.5813953488372094,5.616038045025974
5.601328903654485,5.71494272562416
5.621262458471762,5.809727380249568
5.641196013289036,5.90022539053705
5.661129568106313,5.986281874082342
5.681063122923589,6.067753062272485
5.700996677740864,6.144505769989443
5.72093023255814,6.216416943934994
5.740863787375416,6.283373278294645
5.760797342192691,6.345270888146952
5.780730897009967,6.40201503247007
5.800664451827243,6.453519879834671
5.820598006644518,6.499708310932892
5.840531561461795,6.5405117530040116
5.8604651162790695,6.57587004200321
5.880398671096346,6.605731309040643
5.900332225913622,6.6300518882122645
5.920265780730897,6.648796243466859
5.940199335548173,6.661936912618762
5.960132890365449,6.669454467035552
5.980066445182724,6.671337485913293
6.0,6.667582544410565
6.0199335548172765,6.6581942152526965
6.039867109634551,6.643185083749325
6.059800664451828,6.622575776498628
6.0797342192691035,6.5963950043882
6.099667774086379,6.56467962085406
6.119601328903655,6.527474696733477
6.139534883720931,6.484833613453909
6.159468438538206,6.4368181767491315
6.179401993355482,6.383498753596099
6.1993355481727574,6.324954435634956
6.219269102990033,6.261273232984792
6.23920265780731,6.192552303116515
6.259136212624584,6.118898220310926
6.279069767441861,6.040427292238032
6.299003322259137,5.95726593136874
6.318936877076412,5.869551090302787
6.338870431893688,5.777430771700578
6.3588039867109645,5.68106462537902
6.378737541528239,5.580624647312685
6.398671096345516,5.476295997812008
6.418604651162791,5.368277959068143
6.438538205980066,5.256785055587743
6.458471760797343,5.142048364799621
6.4784053156146175,5.024317049272124
6.498338870431894,4.903860146444901
6.51827242524917,4.780968656358934
6.538205980066445,4.6559579722061954
6.558139534883721,4.529170702000333
6.578073089700998,4.400979931286579
6.598006644518272,4.2717929749744314
6.617940199335549,4.142055658656509
6.6378737541528245,4.01225715254336
6.6578073089701,3.8829353491506637
6.677740863787376,3.7546827218000773
6.6976744186046515,3.628152515087674
6.717607973421927,3.5040649885978774
6.737541528239203,3.383213247781938
6.7574750830564785,3.2664679391142313
6.777408637873754,3.1547797562252087
6.797342192691031,3.049178314501918
6.8172757475083055,2.950765554399761
6.837209302325582,2.8607015357666348
6.857142857142858,2.7801804663759757
6.877076411960133,2.7103953107281633
6.897009966777409,2.6524905956968143
6.9169435215946855,2.6075051805190275
6.93687707641196,2.576309579431597
6.956810631229236,2.559545237335048
6.9767441860465125,2.557574886918978
6.996677740863787,2.5704526968439416
7.016611295681064,2.597919935883149
7.036544850498339,2.639427000044637
7.056478405315615,2.6941774814955055
7.076411960132891,2.761186251738862
7.096345514950166,2.8393423026828994
7.116279069767442,2.9274682356909967
7.136212624584719,3.0243708812137466
7.156146179401993,3.1288804405105854
7.17607973421927,3.239877941800274
7.196013289036546,3.3563123479767505
7.21594684385382,3.4772093739067906
7.235880398671097,3.601674189681352
7.2558139534883725,3.7288899550705104
7.275747508305648,3.858113751611514
7.295681063122924,3.988671080960045
7.3156146179402,4.119949747562642
7.335548172757475,4.251393664416145
7.355481727574752,4.382496913074446
7.3754152823920265,4.512798242846584
7.395348837209303,4.641876095912675
7.415282392026579,4.769344182181162
7.435215946843854,4.894847589627601
7.45514950166113,5.018059394562904
7.475083056478406,5.138677725943841
7.495016611295681,5.256423234383004
7.514950166112956,5.371036917177251
7.5348837209302335,5.482278253632788
7.554817275747508,5.589923609057332
7.574750830564784,5.693764870293889
7.5946843853820605,5.793608280158657
7.614617940199336,5.88927344237954
7.634551495016611,5.980592472493486
7.6544850498338874,6.0674092736065175
7.674418604651163,6.149578918948052
7.694352159468439,6.226967125785214
7.714285714285715,6.2994498075375365
7.73421926910299,6.366912692888186
7.754152823920266,6.429251002364399
7.774086378737542,6.48636917429535
7.794019933554818,6.538180633284976
7.813953488372093,6.584607595391093
7.83388704318937,6.62558090510829
7.853820598006645,6.661039900033718
7.8737541528239205,6.690932299773116
7.893687707641197,6.715214116236878
7.913621262458472,6.733849582997884
7.9335548172757475,6.746811101848153
7.953488372093024,6.75407920511137
7.9734219269103,6.755642532653729
7.9933554817275745,6.751497822895831
8.013289036544851,6.741649917472055
8.033222591362128,6.726111779519211
8.053156146179402,6.704904525911412
8.073089700996679,6.678057474100766
8.093023255813954,6.6456082045817935
8.11295681063123,6.60760264038053
8.132890365448505,6.564095145385738
8.152823920265782,6.515148643800251
8.172757475083056,6.460834763507168
8.192691029900331,6.401234006730954
8.21262458471761,6.336435952043239
8.232558139534884,6.266539492534665
8.252491694352159,6.1916531158679975
8.272425249169435,6.111895232967105
8.292358803986712,6.027394563308479
8.312292358803987,5.9382905861977635
8.332225913621263,5.844734069067412
8.352159468438538,5.746887685761561
8.372093023255815,5.6449267400208685
8.392026578073091,5.539040011984247
8.411960132890366,5.429430748523602
8.43189368770764,5.316317821648355
8.451827242524917,5.199937083064295
8.471760797342194,5.080542947212336
8.491694352159469,4.958410239644368
8.511627906976745,4.8338363522046945
8.53156146179402,4.707143750786197
8.551495016611296,4.578682884759695
8.571428571428573,4.44883554845474
8.591362126245848,4.318018742607994
8.611295681063122,4.18668907490753
8.6312292358804,4.0553477198119365
8.651162790697676,3.9245459231920217
8.67109634551495,3.794890979367525
8.691029900332227,3.667052516664722
8.710963455149502,3.541768790237743
8.730897009966778,3.419852483967365
8.750830564784053,3.302195255291187
8.77076411960133,3.1897699152751118
8.790697674418604,3.0836287393976214
8.81063122923588,2.984896009203781
8.830564784053157,2.894752607291217
8.850498338870432,2.814410517370166
8.870431893687707,2.745075666687034
8.890365448504983,2.6878989297942955
8.91029900332226,2.6439173762585755
8.930232558139535,2.613990729444922
8.950166112956811,2.5987407716683064
8.970099667774086,2.5985029761008915
8.990033222591363,2.6132989395132094
9.00996677740864,2.6428349193516416
9.029900332225914,2.686526744567602
9.049833887043189,2.7435462455257555
9.069767441860467,2.8128808533404452
9.089700996677742,2.893397058983433
9.109634551495017,2.9838997824120415
9.129568106312293,3.08318239594121
9.14950166112957,3.1900650524191994
9.169435215946844,3.3034213063224827
9.189368770764121,3.422194481488878
9.209302325581396,3.5454058931786094
9.22923588039867,3.6721571060046903
9.249169435215949,3.8016281545945563
9.269102990033224,3.9330732663611934
9.289036544850498,4.065815227947374
9.308970099667773,4.19923919031746
9.328903654485051,4.332786433318369
9.348837209302326,4.465948407773578
9.368770764119601,4.598261230942228
9.388704318936878,4.729300715980306
9.408637873754152,4.858677955307253
9.428571428571429,4.986035441193846
9.448504983388705,5.11104368659082
9.46843853820598,5.233398299525793
9.488372093023255,5.352817461342874
9.508305647840533,5.469039759963416
9.528239202657808,5.581822332444426
9.548172757475083,5.690939275277314
9.56810631229236,5.796180285407573
9.588039867109636,5.8973494994544655
9.60797342192691,5.9942645028410135
9.627906976744187,6.086755484397264
9.647840531561462,6.174664515432878
9.667774086378738,6.257844935290647
9.687707641196015,6.336160828014369
9.70764119601329,6.409486577028604
9.727574750830565,6.477706486674329
9.747508305647841,6.540714461113634
9.767441860465118,6.598413732545724
9.787375415282392,6.650716631901209
9.807308970099669,6.697544396231863
9.827242524916944,6.738827007916635
9.84717607973422,6.7745030615847925
9.867109634551497,6.804519655334775
9.887043189368772,6.828832303419576
9.906976744186046,6.847404868092636
9.926910299003321,6.860209508774806
9.9468438538206,6.867226647125365
9.966777408637874,6.868444946988299
9.986710963455149,6.863861308549285
10.006644518272426,6.853480876386854
10.026578073089702,6.837317061442243
10.046511627906977,6.8153915772741165
10.066445182724253,6.787734491314465
10.086378737541528,6.754384292209875
10.106312292358805,6.715387974725511
10.126245847176081,6.6708011441186095
10.146179401993356,6.620688142363422
10.16611295681063,6.565122199143546
10.186046511627907,6.504185611133191
10.205980066445184,6.4379699537824315
10.225913621262459,6.366576330621218
10.245847176079735,6.29011566602311
10.26578073089701,6.208709048447799
10.285714285714286,6.122488132438087
10.305647840531563,6.031595609115011
10.325581395348838,5.936185756628595
10.345514950166113,5.836425084021392
10.36544850498339,5.7324930842875546
10.385382059800666,5.624583115103223
10.40531561461794,5.512903428801358
10.425249169435217,5.397678376689572
10.445182724252492,5.279149816764388
10.465116279069768,5.157578758217322
10.485049833887045,5.033247280740511
10.50498338870432,4.906460771287072
10.524916943521594,4.7775505251983335
10.544850498338871,4.64687676175721
10.564784053156147,4.514832105102528
10.584717607973422,4.381845578224942
10.604651162790697,4.248387147699353
10.624584717607974,4.114972835810156
10.64451827242525,3.9821703789499994
10.664451827242525,3.8506053485604514
10.684385382059801,3.7209675528704076
10.704318936877076,3.5940173914422386
10.724252491694353,3.4705916263681815
10.74418604651163,3.3516077530062254
10.764119601328904,3.238065798817507
10.784053156146179,3.131045973617159
10.803986710963457,3.0317002023317565
10.823920265780732,2.9412353183750604
10.843853820598007,2.8608857823662537
10.863787375415283,2.7918744726401936
10.88372093023256,2.735361602611122
