Frequency (Hz),Amplitude
0.0,1.7109087581575881
0.019801980198019802,1.71357871921813
0.039603960396039604,1.7215532508980422
0.0594059405940594,1.7347279614437212
0.07920792079207921,1.7529342189231158
0.09900990099009901,1.7759465618747416
0.1188118811881188,1.8034919570086378
0.13861386138613863,1.835260039603787
0.15841584158415842,1.8709135055576553
0.1782178217821782,1.9100979604800852
0.19801980198019803,1.9524507250804584
0.21782178217821782,1.9976083021657924
0.2376237623762376,2.045212394613804
0.25742574257425743,2.094914506440704
0.27722772277227725,2.1463792549474254
0.297029702970297,2.1992865748793395
0.31683168316831684,2.253333014556013
0.33663366336633666,2.3082323193389347
0.3564356435643564,2.3637154789597323
0.37623762376237624,2.419530389464705
0.39603960396039606,2.475441252957293
0.4158415841584158,2.5312278121117804
0.43564356435643564,2.5866844932739506
0.45544554455445546,2.6416195125205495
0.4752475247524752,2.695853983343971
0.495049504950495,2.7492210523371474
0.5148514851485149,2.801565079892763
0.5346534653465347,2.85274087598162
0.5544554455445545,2.902612996045073
0.5742574257425742,2.951055098496524
0.594059405940594,2.997949362917018
0.613861386138614,3.0431859664614227
0.6336633663366337,3.0866626150364675
0.6534653465346534,3.1282841252960067
0.6732673267326733,3.1679620532904362
0.6930693069306931,3.2056143656076577
0.7128712871287128,3.2411651489818074
0.7326732673267327,3.2745443545705792
0.7524752475247525,3.3056875733765345
0.7722772277227723,3.3345358395863065
0.7920792079207921,3.361035458907701
0.8118811881188118,3.3851378592864623
0.8316831683168316,3.4067994616752375
0.8514851485148516,3.4259815688031905
0.8712871287128713,3.44265027015399
0.891089108910891,3.4567763616015745
0.9108910891089109,3.4683352783790924
0.9306930693069307,3.4773070402662345
0.9504950495049505,3.4836762080770622
0.9702970297029703,3.487431850715428
0.99009900990099,3.4885675222402805
1.00990099009901,3.4870812485513465
1.0297029702970297,3.4829755234677537
1.0495049504950495,3.4762573141322624
1.0693069306930694,3.4669380758315924
1.0891089108910892,3.455033776483785
1.108910891089109,3.4405649312063837
1.1287128712871286,3.423556647548381
1.1485148514851484,3.4040386821455644
1.1683168316831685,3.382045509745854
1.188118811881188,3.3576164057496802
1.2079207920792079,3.330795543623726
1.227722772277228,3.301632108774165
1.2475247524752475,3.270180430710956
1.2673267326732673,3.236500135597048
1.2871287128712872,3.200656321555412
1.3069306930693068,3.162719759400983
1.3267326732673268,3.1227671217688076
1.3465346534653466,3.0808812439172844
1.3663366336633662,3.0371514197842684
1.3861386138613863,2.991673737145505
1.405940594059406,2.9445514559432815
1.4257425742574257,2.895895433979681
1.4455445544554455,2.8458246041493664
1.4653465346534653,2.7944665071465016
1.4851485148514851,2.7419578830173967
1.504950495049505,2.6884453239065755
1.5247524752475248,2.6340859886784216
1.5445544554455446,2.5790483775525925
1.5643564356435644,2.5235131611698707
1.5841584158415842,2.467674053235129
1.6039603960396038,2.4117387086236763
1.6237623762376237,2.35592961908587
1.6435643564356437,2.3004849659189555
1.6633663366336633,2.2456593727195817
1.683168316831683,2.19172448129067
1.7029702970297032,2.1389692500395077
1.7227722772277227,2.0876998475452937
1.7425742574257426,2.038238986255293
1.7623762376237624,1.9909245159121516
1.782178217821782,1.9461070787527366
1.801980198019802,1.904146626428309
1.8217821782178218,1.865407621610093
1.8415841584158414,1.8302528057421863
1.8613861386138615,1.7990355170067869
1.881188118811881,1.7720906922733748
1.900990099009901,1.7497248763356648
1.920792079207921,1.7322057696480753
1.9405940594059405,1.7197520357087397
1.9603960396039604,1.7125242148409496
1.98019801980198,1.7106176074358754
2.0,1.7140578687751977
2.01980198019802,1.72279980239476
2.0396039603960396,1.736729488832128
2.0594059405940595,1.7556695089085133
2.0792079207920793,1.779386691312144
2.099009900990099,1.8076015942609738
2.118811881188119,1.839998849743841
2.1386138613861387,1.8762375495969046
2.1584158415841586,1.9159610011275046
2.1782178217821784,1.9588053793283353
2.1980198019801978,2.004407008504153
2.217821782178218,2.05240818597917
2.237623762376238,2.102461597248657
2.257425742574257,2.1542334615497016
2.2772277227722775,2.207405594379554
2.297029702970297,2.2616765884320205
2.3168316831683167,2.3167623071106704
2.336633663366337,2.372395864369613
2.3564356435643563,2.428327238174394
2.376237623762376,2.484322637196949
2.3960396039603964,2.5401637143963827
2.4158415841584158,2.5956466984020583
2.4356435643564356,2.650581494654331
2.455445544554456,2.7047907930249058
2.4752475247524752,2.7581092067719366
2.495049504950495,2.810382458685781
2.514851485148515,2.861466623627892
2.5346534653465347,2.9112274318707816
2.5544554455445545,2.9595396342896336
2.5742574257425743,3.0062864281853257
2.594059405940594,3.0513589410533837
2.6138613861386135,3.094655768734693
2.633663366336634,3.1360825639224488
2.6534653465346536,3.1755516708301084
2.673267326732673,3.2129818018525427
2.6930693069306932,3.2482977522089524
2.712871287128713,3.2814301487924693
2.7326732673267324,3.3123152297326337
2.7524752475247527,3.3408946514792666
2.7722772277227725,3.367115320523806
2.792079207920792,3.3909292471759356
2.811881188118812,3.4122934191032472
2.8316831683168315,3.4311696926162396
2.8514851485148514,3.447524699938259
2.8712871287128716,3.46132977094041
2.891089108910891,3.4725608680449893
2.910891089108911,3.4811985332100184
2.9306930693069306,3.4872278461023796
2.9504950495049505,3.490638392751217
2.9702970297029703,3.491424244147639
2.99009900990099,3.4895839444240258
3.00990099009901,3.4851205084088672
3.0297029702970297,3.478041428512248
3.0495049504950495,3.468358691056417
3.0693069306930694,3.456088802326311
3.089108910891089,3.441252824779463
3.108910891089109,3.4238764240253383
3.128712871287129,3.403989927362955
3.148514851485148,3.3816283948548933
3.1683168316831685,3.3568317041177833
3.1881188118811883,3.329644650225339
3.2079207920792077,3.3001170623525864
3.227722772277228,3.2683039390394275
3.2475247524752473,3.234265604218896
3.267326732673267,3.1980678864402132
3.2871287128712874,3.1597823240159846
3.3069306930693068,3.1194863991330974
3.3267326732673266,3.077263804279221
3.346534653465347,3.0332047446401056
3.366336633663366,2.9874062803967356
3.386138613861386,2.9399727130689874
3.4059405940594063,2.891016020173505
3.4257425742574257,2.840656342430674
3.4455445544554455,2.7890225274920817
3.4653465346534653,2.7362527335573077
3.485148514851485,2.682495095165032
3.504950495049505,2.6279084516877713
3.5247524752475248,2.5726631363866113
3.5445544554455446,2.5169418199795777
3.564356435643564,2.46094039715978
3.5841584158415842,2.404868896909737
3.603960396039604,2.3489523872798768
3.6237623762376234,2.2934318319982046
3.6435643564356437,2.2385648393794937
3.6633663366336635,2.184626223230891
3.683168316831683,2.131908270950098
3.702970297029703,2.08072058666464
3.722772277227723,2.031389349109814
3.7425742574257423,1.9842557986821334
3.762376237623762,1.9396737515261802
3.7821782178217824,1.8980059387075838
3.801980198019802,1.859618995505649
3.8217821782178216,1.82487699018259
3.841584158415842,1.7941334916211569
3.8613861386138613,1.76772233303903
3.881188118811881,1.7459474255742093
3.9009900990099013,1.7290721870487973
3.9207920792079207,1.717309338830504
3.9405940594059405,1.710811939469237
3.96039603960396,1.7096665230725732
3.98019801980198,1.713889068117064
4.0,1.7234242466022887
4.01980198019802,1.7381480389521193
4.03960396039604,1.757873418272908
4.0594059405940595,1.7823584852700531
4.079207920792079,1.811316230864402
4.099009900990099,1.8444250418849029
4.118811881188119,1.8813391343879946
4.138613861386139,1.9216982611352065
4.158415841584159,1.9651362462089437
4.178217821782178,2.0112881067010435
4.198019801980198,2.059795698153997
4.217821782178218,2.110311951750941
4.237623762376238,2.162503854910958
4.257425742574258,2.2160543691167356
4.2772277227722775,2.2706634894933955
4.297029702970297,2.3260486403595944
4.316831683168317,2.381944578711962
4.336633663366336,2.438102950182671
4.356435643564357,2.494291613995639
4.376237623762377,2.550293827546229
4.3960396039603955,2.605907358779399
4.415841584158416,2.6609435759646605
4.435643564356436,2.7152265496403114
4.455445544554455,2.768592190016705
4.475247524752476,2.820887434467996
4.4950495049504955,2.8719694933743933
4.514851485148514,2.9217051580157514
4.534653465346535,2.9699701710454813
4.554455445544555,3.0166486579479845
4.574257425742574,3.061632616528473
4.594059405940594,3.1048214606890543
4.613861386138614,3.1461216143461974
4.633663366336633,3.1854461512204675
4.653465346534653,3.2227144762899154
4.673267326732674,3.2578520448784727
4.693069306930693,3.2907901156032535
4.712871287128713,3.3214655336967946
4.732673267326733,3.3498205415303013
4.752475247524752,3.3758026134753405
4.772277227722772,3.399364312546285
4.792079207920793,3.420463166556543
4.811881188118812,3.43906156179665
4.8316831683168315,3.4551266524993776
4.851485148514852,3.468630284596767
4.871287128712871,3.4795489324969346
4.891089108910891,3.487863647816714
4.910891089108912,3.4935600192006264
4.930693069306931,3.4966281425401613
4.9504950495049505,3.4970626010815447
4.97029702970297,3.494862455077576
4.99009900990099,3.490031240801498
5.00990099009901,3.4825769789012813
5.02970297029703,3.4725121922323616
5.0495049504950495,3.459853933469002
5.069306930693069,3.444623822960529
5.089108910891089,3.426848097471648
5.108910891089109,3.4065576706275253
5.128712871287129,3.3837882060768787
5.148514851485149,3.358580204592165
5.1683168316831685,3.3309791065467413
5.188118811881188,3.301035411446496
5.207920792079208,3.26880481644916
5.227722772277227,3.2343483760787426
5.247524752475248,3.197732685634699
5.267326732673268,3.1590300911032125
5.2871287128712865,3.1183189286969717
5.306930693069307,3.0756837974715383
5.326732673267327,3.031215868778428
5.346534653465346,2.985013236596895
5.366336633663367,2.93718131301019
5.3861386138613865,2.887833273214447
5.405940594059405,2.8370905544120095
5.425742574257426,2.7850834126626576
5.445544554455446,2.7319515411352793
5.465346534653465,2.677844752068061
5.485148514851486,2.6229237229090216
5.504950495049505,2.567360804312966
5.524752475247524,2.5113408835882165
5.544554455445545,2.455062291414286
5.564356435643565,2.398737731710373
5.584158415841584,2.342595203887319
5.603960396039604,2.2868788728069944
5.623762376237624,2.231849824118999
5.643564356435643,2.1777866209775287
5.663366336633663,2.1249855526513866
5.683168316831684,2.0737604372127114
5.702970297029703,2.024441811557969
5.7227722772277225,1.977375316468709
5.742574257425743,1.9329190684674793
5.762376237623762,1.8914398124656582
5.782178217821782,1.853307680154892
5.801980198019803,1.818889449646925
5.821782178217822,1.7885403202649677
5.841584158415841,1.7625943838256455
5.861386138613861,1.7413541793743177
5.881188118811881,1.7250799356034054
5.900990099009901,1.7139792922875305
5.920792079207921,1.7081983988836138
5.9405940594059405,1.7078152702438714
5.96039603960396,1.712836113852391
5.98019801980198,1.723195043473054
6.0,1.738757211668
6.01980198019802,1.7593250046210869
6.03960396039604,1.7846466254436135
6.0594059405940595,1.8144262030011769
6.079207920792079,1.8483345219458656
6.099009900990099,1.8860195588168949
6.118811881188119,1.927116186537978
6.138613861386139,1.9712546250782126
6.158415841584159,2.018067425665769
6.178217821782178,2.06719495058081
6.198019801980198,2.1182894370026255
6.217821782178218,2.1710178112241976
6.237623762376237,2.225063456203378
6.257425742574258,2.280127141587272
6.2772277227722775,2.335927311734032
6.297029702970296,2.392199902822043
6.316831683168317,2.4486978314693055
6.336633663366337,2.505190268705316
6.356435643564356,2.5614617871243044
6.376237623762377,2.6173114467567324
6.396039603960396,2.6725518669184547
6.415841584158415,2.727008316823161
6.435643564356436,2.780517846613164
6.455445544554456,2.8329284721266297
6.475247524752475,2.88409842063247
6.495049504950495,2.933895440438271
6.514851485148515,2.9821961742962415
6.534653465346534,3.028885594558848
6.554455445544554,3.0738564968014566
6.574257425742575,3.1170090479264223
6.594059405940594,3.158250384434928
6.6138613861386135,3.197494256481755
6.633663366336634,3.2346607134282404
6.653465346534653,3.269675826817815
6.673267326732673,3.302471446972149
6.693069306930694,3.332984989713593
6.712871287128713,3.361159250039969
6.732673267326732,3.386942239896932
6.752475247524753,3.41028704750269
6.772277227722772,3.4311517159741336
6.792079207920792,3.449499139280258
6.811881188118813,3.4652969738072166
6.8316831683168315,3.4785175640595503
6.851485148514851,3.4891378812456355
6.871287128712871,3.4971394737034145
6.891089108910891,3.502508428317259
6.910891089108911,3.5052353422602804
6.930693069306931,3.5053153045709897
6.9504950495049505,3.50274788724086
6.97029702970297,3.497537145652824
6.99009900990099,3.489691628371761
7.00990099009901,3.4792243964493386
7.02970297029703,3.466153052569495
7.0495049504950495,3.4504997805291278
7.069306930693069,3.4322913957244143
7.089108910891089,3.4115594074980273
7.108910891089109,3.3883400943993953
7.128712871287128,3.3626745936207874
7.148514851485149,3.3346090060986446
7.1683168316831685,3.3041945190141324
7.188118811881187,3.2714875476904623
7.207920792079208,3.236549899167823
7.227722772277228,3.199448960039426
7.247524752475247,3.1602579114515383
7.267326732673268,3.119055974502318
7.287128712871287,3.0759286896100573
7.306930693069306,3.0309682337481565
7.326732673267327,2.9842737797411996
7.346534653465347,2.9359519020539175
7.366336633663366,2.886117033639457
7.3861386138613865,2.8348919783831157
7.405940594059406,2.7824084833979916
7.425742574257425,2.728807874782445
7.445544554455446,2.674241759278346
7.465346534653466,2.618872792365264
7.485148514851485,2.5628755104175993
7.504950495049505,2.506437220294045
7.524752475247524,2.4497589336961587
7.544554455445544,2.39305632531878
7.564356435643565,2.3365606826511955
7.584158415841584,2.280519800688273
7.603960396039604,2.2251987562661
7.623762376237624,2.1708804739741265
7.643564356435643,2.11786596883625
7.663366336633663,2.0664741212789846
7.683168316831684,2.0170408097442922
7.702970297029703,1.9699171999785896
7.7227722772277225,1.9254669742348371
7.742574257425743,1.8840622875893291
7.762376237623762,1.846078273499668
7.782178217821782,1.8118859980290418
7.801980198019803,1.7818438901364133
7.821782178217822,1.7562878544642881
7.841584158415841,1.7355204903099999
7.861386138613862,1.7198000662674187
7.881188118811881,1.7093300888999792
7.900990099009901,1.7042504026711855
7.92079207920792,1.7046307217993955
7.9405940594059405,1.7104673030661168
7.96039603960396,1.7216831411065805
7.980198019801979,1.7381316627443528
8.0,1.7596034968631777
8.01980198019802,1.7858355819493796
8.03960396039604,1.8165216992007895
8.05940594059406,1.8513234994589232
8.07920792079208,1.889881203767675
8.099009900990099,1.9318233529057893
8.118811881188119,1.9767752079370033
8.138613861386139,2.024365617754546
8.158415841584159,2.074232343084562
8.178217821782178,2.1260259483664705
8.198019801980198,2.1794124448969403
8.217821782178218,2.2340748994694395
8.237623762376238,2.289714223977195
8.257425742574258,2.3460493440983434
8.277227722772277,2.402816918191892
8.297029702970297,2.4597707473045527
8.316831683168317,2.516680987798486
8.336633663366337,2.5733332518054715
8.356435643564357,2.6295276584571217
8.376237623762377,2.6850778807827687
8.396039603960396,2.739810218998006
8.415841584158416,2.7935627201038975
8.435643564356436,2.846184355693728
8.455445544554456,2.897534264058698
8.475247524752476,2.9474810585994238
8.495049504950495,2.9959022017704595
8.514851485148515,3.042683441975249
8.534653465346535,3.087718309724586
8.554455445544555,3.130907668771903
8.574257425742575,3.1721593176899074
8.594059405940595,3.2113876373437136
8.613861386138613,3.2485132798623733
8.633663366336634,3.283462894955218
8.653465346534654,3.3161688897196067
8.673267326732672,3.3465692184139506
8.693069306930694,3.3746071990046542
8.712871287128714,3.4002313536255198
8.732673267326732,3.4233952704049444
8.752475247524753,3.4440574844162892
8.772277227722773,3.4621813757871536
8.792079207920791,3.477735083264372
8.811881188118813,3.4906914317739397
8.831683168316832,3.5010278727393924
8.85148514851485,3.508726436131507
8.871287128712872,3.5137736934176402
8.891089108910892,3.516160730763293
8.91089108910891,3.515883132013713
8.930693069306932,3.512940971152292
8.950495049504951,3.5073388140967605
8.97029702970297,3.4990857298569944
8.990099009900991,3.4881953112413693
9.00990099009901,3.4746857054646303
9.029702970297029,3.4585796551816
9.04950495049505,3.4399045506504202
9.06930693069307,3.4186924939177246
9.089108910891088,3.3949803761206607
9.10891089108911,3.3688099692168363
9.12871287128713,3.340228033687604
9.148514851485148,3.3092864440128116
9.16831683168317,3.2760423339890283
9.188118811881187,3.2405582642582127
9.207920792079207,3.2029024147298877
9.227722772277229,3.163148804915243
9.247524752475247,3.1213775455410144
9.267326732673267,3.0776751251670693
9.287128712871288,3.032134735880286
9.306930693069306,2.9848566424581664
9.326732673267326,2.9359485996578862
9.346534653465348,2.8855263224450987
9.366336633663366,2.833714013968229
9.386138613861386,2.7806449558193216
9.405940594059407,2.7264621644795253
9.425742574257425,2.6713191166600305
9.445544554455445,2.6153805442986506
9.465346534653467,2.5588232969701825
9.485148514851485,2.501837265049126
9.504950495049505,2.444626350672809
9.524752475247526,2.38740946484901
9.544554455445544,2.3304215173242953
9.564356435643564,2.2739143504454966
9.584158415841586,2.218157548652921
9.603960396039604,2.1634390311406064
9.623762376237623,2.1100653068354736
9.643564356435645,2.0583612393489776
9.663366336633663,2.008669137567863
9.683168316831683,1.9613469597644986
9.702970297029704,1.9167654027959735
9.722772277227723,1.875303653143671
9.742574257425742,1.8373436153371228
9.762376237623764,1.803262517936095
9.782178217821782,1.7734239363329105
9.801980198019802,1.748167464871044
9.821782178217823,1.727797503157197
9.841584158415841,1.7125718595814539
9.861386138613861,1.7026910688478236
9.881188118811881,1.698289412613101
9.900990099009901,1.6994285761944743
9.92079207920792,1.7060946526350307
9.94059405940594,1.718198844089451
9.96039603960396,1.7355817767297723
9.98019801980198,1.7580209292501727
10.0,1.7852403609862497
10.01980198019802,1.8169217664237247
10.03960396039604,1.8527158871972422
10.05940594059406,1.8922534499891381
10.07920792079208,1.9351550158744821
10.099009900990099,1.981039367515672
10.118811881188119,2.029530280810081
10.138613861386139,2.0802617009436855
10.158415841584159,2.1328814605202964
10.178217821782178,2.187053743297118
10.198019801980198,2.2424605215954063
10.217821782178218,2.298802191177474
10.237623762376238,2.3557976057405865
10.257425742574258,2.4131836831580578
10.277227722772277,2.4707147234348423
10.297029702970297,2.5281615478694666
10.316831683168317,2.5853105421261655
10.336633663366337,2.641962663575191
10.356435643564357,2.6979324553440494
10.376237623762377,2.753047095617228
10.396039603960396,2.8071455002289274
10.415841584158416,2.8600774888814544
10.435643564356436,2.911703019804387
10.455445544554454,2.961891493838022
10.475247524752476,3.0105211263596967
10.495049504950495,3.057478383839218
10.514851485148514,3.1026574808495426
10.534653465346535,3.1459599328741557
10.554455445544555,3.1872941600949733
10.574257425742573,3.2265751374062384
10.594059405940595,3.2637240861019197
10.613861386138614,3.298668202971123
10.633663366336632,3.331340422868451
10.653465346534654,3.3616792111784624
10.673267326732674,3.3896283829464107
10.693069306930692,3.4151369457914353
10.712871287128714,3.4381589640456527
10.732673267326733,3.4586534418699624
