Frequency (Hz),Amplitude
0.0,2.989464814677535
0.01993355481727575,2.9897403198724666
0.0398671096345515,2.9905656505109
0.059800664451827246,2.9919372588807285
0.079734219269103,2.993849255801722
0.09966777408637874,2.996293445844691
0.11960132890365449,2.999259376063771
0.13953488372093023,3.002734397682871
0.159468438538206,3.0067037400393914
0.17940199335548174,3.0111505959655074
0.19933554817275748,3.016056217682075
0.21926910299003324,3.021400022193735
0.23920265780730898,3.027159705108024
0.25913621262458475,3.0333113617552088
0.27906976744186046,3.0398296144607437
0.29900332225913623,3.0466877448161616
0.318936877076412,3.053857829806995
0.3388704318936877,3.061310880685728
0.3588039867109635,3.0690169835217453
0.37873754152823924,3.0769454404171244
0.39867109634551495,3.0850649104439962
0.4186046511627907,3.093343549434376
0.4385382059800665,3.1017491478340347
0.4584717607973422,3.1102492659161416
0.47840531561461797,3.1188113657363012
0.49833887043189373,3.12740293929586
0.5182724252491695,3.1359916324639725
0.5382059800664452,3.144545364289043
0.5581395348837209,3.1530324414060478
0.5780730897009968,3.1614216673169713
0.5980066445182725,3.169682446386217
0.6179401993355482,3.177784882451633
0.637873754152824,3.185699872003741
0.6578073089700996,3.1933991919313742
0.6777408637873754,3.2008555818711586
0.6976744186046512,3.2080428212310927
0.717607973421927,3.2149358009855553
0.7375415282392027,3.2215105903604466
0.7574750830564785,3.2277444985434123
0.7774086378737541,3.233616131565568
0.7973421926910299,3.2391054445083327
0.8172757475083057,3.244193789192249
0.8372093023255814,3.248863957504718
0.8571428571428572,3.2531002205200514
0.877076411960133,3.256888363559927
0.8970099667774087,3.2602157173339146
0.9169435215946844,3.2630711852898746
0.9368770764119602,3.2654452672923537
0.9568106312292359,3.267330079734072
0.9767441860465116,3.2687193721713492
0.9966777408637875,3.2696085405592945
1.0166112956810631,3.2699946371465685
1.036544850498339,3.2698763770733894
1.0564784053156147,3.269254141699218
1.0764119601328903,3.268129978669852
1.0963455149501662,3.266507598716068
1.1162790697674418,3.2643923691588936
1.1362126245847177,3.261791304079488
1.1561461794019936,3.258713051094538
1.176079734219269,3.255167874661843
1.196013289036545,3.2511676358248787
1.2159468438538206,3.2467257682899113
1.2358803986710964,3.2418572507152508
1.255813953488372,3.236578575079298
1.275747508305648,3.2309077109825632
1.2956810631229239,3.2248640657292045
1.3156146179401993,3.218468440026114
1.3355481727574752,3.211742979132283
1.3554817275747508,3.204711119289175
1.3754152823920267,3.1973975292636183
1.3953488372093024,3.18982804683945
1.4152823920265782,3.1820296101032914
1.435215946843854,3.174030183382978
1.4551495016611296,3.1658586777162374
1.4750830564784054,3.1575448657511567
1.495016611295681,3.149119291010453
1.514950166112957,3.140613171488023
1.5348837209302328,3.1320582975895483
1.5548172757475083,3.1234869244790344
1.5747508305647842,3.11493165895012
1.5946843853820598,3.1064253410047185
1.6146179401993357,3.0980009203916516
1.6345514950166113,3.0896913284344256
1.6544850498338872,3.081529345558292
1.6744186046511629,3.073547465012748
1.6943521594684385,3.0657777533741606
1.7142857142857144,3.0582517085030876
1.73421926910299,3.0510001157210596
1.754152823920266,3.044052903058676
1.7740863787375416,3.0374389965099544
1.7940199335548175,3.031186176303778
1.8139534883720931,3.0253209352699058
1.8338870431893688,3.0198683404319313
1.8538205980066447,3.0148518989998476
1.8737541528239203,3.01029342995928
1.893687707641196,3.0062129424600936
1.9136212624584719,3.0026285221927904
1.9335548172757475,2.9995562269061997
1.9534883720930232,2.997009992162776
1.9734219269102993,2.9950015483499586
1.993355481727575,2.993540349866537
2.0132890365448506,2.9926335172849052
2.0332225913621262,2.992285793153859
2.0531561461794023,2.992499511956259
2.073089700996678,2.993274584573678
2.0930232558139537,2.9946084974399687
2.1129568106312293,2.9964963263915636
2.132890365448505,2.9989307650478927
2.1528239202657806,3.001902167385147
2.1727574750830567,3.005398604003983
2.1926910299003324,3.0094059314406536
2.212624584717608,3.0139078737347917
2.2325581395348837,3.018886115347568
2.25249169435216,3.0243204044243255
2.2724252491694354,3.0301886653162584
2.292358803986711,3.036467119218135
2.312292358803987,3.0431304117426654
2.332225913621263,3.050151746236793
2.352159468438538,3.0575030216499046
2.3720930232558137,3.0651549737866923
2.39202657807309,3.0730773188170804
2.4119601328903655,3.0812388979689285
2.431893687707641,3.0896078223950676
2.4518272425249172,3.09815161728083
2.471760797342193,3.106837364340296
2.4916943521594686,3.11563184193595
2.511627906976744,3.124501662145367
2.5315614617940203,3.1334134041877357
2.551495016611296,3.1423337437111907
2.5714285714285716,3.151229577526659
2.5913621262458477,3.160068143455097
2.611295681063123,3.168817135030511
2.6312292358803986,3.177444810871039
2.6511627906976742,3.1859200985938188
2.6710963455149503,3.1942126932060773
2.691029900332226,3.2022931499546954
2.7109634551495017,3.2101329716596467
2.7308970099667778,3.2177046905933464
2.7508305647840534,3.2249819449978254
2.770764119601329,3.2319395503561186
2.7906976744186047,3.2385535655527873
2.810631229235881,3.2448013540719187
2.8305647840531565,3.250661640389917
2.850498338870432,3.2561145617249307
2.870431893687708,3.261141715305784
2.8903654485049834,3.265726201320699
2.910299003322259,3.2698526617009867
2.9302325581395348,3.273507314886911
2.950166112956811,3.276677986712973
2.9700996677740865,3.2793541375382627
2.990033222591362,3.281526885733714
3.0099667774086383,3.283189027623948
3.029900332225914,3.284335053965198
3.0498338870431896,3.2849611630244
3.0697674418604657,3.2850652703071908
3.089700996677741,3.2846470149645786
3.1096345514950166,3.283707762889839
3.129568106312292,3.282250606498661
3.1495016611295683,3.280280361166767
3.169435215946844,3.2778035582807257
3.1893687707641196,3.274828434838891
3.2093023255813957,3.2713649195213383
3.2292358803986714,3.2674246151296056
3.249169435215947,3.2630207772799813
3.2691029900332227,3.2581682892176103
3.289036544850499,3.252883632603345
3.3089700996677744,3.2471848541111905
3.32890365448505,3.241091527662126
3.3488372093023258,3.2346247121091642
3.3687707641196014,3.2278069041811914
3.388704318936877,3.2206619864873014
3.4086378737541527,3.213215170381795
3.428571428571429,3.2054929334918167
3.4485049833887045,3.197522951715511
3.46843853820598,3.1893340255098894
3.4883720930232562,3.1809560003039197
3.508305647840532,3.172419680894591
3.5282392026578075,3.1637567397127975
3.548172757475083,3.1549996188819263
3.5681063122923593,3.146181426034948
3.588039867109635,3.137335823907432
3.60797342192691,3.1284969137824663
3.6279069767441863,3.1196991129306064
3.647840531561462,3.110977026262836
3.6677740863787376,3.1023653124963553
3.6877076411960132,3.093898545222207
3.7076411960132893,3.0856110693577836
3.727574750830565,3.077536853567046
3.7475083056478407,3.069709339332501
3.7674418604651168,3.062161287466644
3.787375415282392,3.0549246229515528
3.807308970099668,3.0480302790946325
3.8272425249169437,3.0415080420785547
3.8471760797342194,3.0353863970683115
3.867109634551495,3.0296923771061546
3.887043189368771,3.0244514160832763
3.9069767441860463,3.0196872071130527
3.9269102990033224,3.015421567649449
3.9468438538205985,3.0116743126892036
3.9667774086378738,3.0084631373683397
3.98671096345515,3.0058035102103253
4.0066445182724255,3.003708578205508
4.026578073089701,3.002189084798292
4.046511627906977,3.0012533017342045
4.0664451827242525,3.0009069755702558
4.086378737541528,3.001153289489239
4.106312292358805,3.0019928408771306
4.1262458471760795,3.0034236349334993
4.146179401993356,3.0054410943878103
4.166112956810632,3.008038085196231
4.186046511627907,3.011204957899309
4.205980066445183,3.0149296041330866
4.225913621262459,3.019197527611963
4.245847176079734,3.023991928742291
4.26578073089701,3.0292938018865203
4.2857142857142865,3.0350820441797013
4.305647840531561,3.041333574705996
4.325581395348838,3.0480234627734917
4.345514950166113,3.055125063980679
4.365448504983389,3.0626101627479825
4.385382059800665,3.070449119989779
4.40531561461794,3.0786110246273557
4.425249169435216,3.0870638476854677
4.445182724252492,3.095774597776108
4.465116279069767,3.1047094768456267
4.485049833887043,3.1138340351470144
4.50498338870432,3.123113324491024
4.524916943521594,3.132512048928569
4.544850498338871,3.141994712116841
4.5647840531561465,3.151525760723612
4.584717607973422,3.1610697233230036
4.604651162790698,3.170591344332469
4.624584717607974,3.1800557126318525
4.644518272425249,3.1894283845904416
4.664451827242526,3.198675501306457
4.6843853820598005,3.2077638999341525
4.704318936877076,3.21666121903687
4.724252491694353,3.2253359979598817
4.7441860465116275,3.233757770264074
4.764119601328904,3.2418971513019232
4.78405315614618,3.249725920049758
4.803986710963455,3.257217095336481
4.823920265780731,3.2643450066288056
4.8438538205980075,3.271085359546981
4.863787375415282,3.2774152962939485
4.883720930232559,3.283313451185165
4.9036544850498345,3.288760001466229
4.92358803986711,3.2937367136020965
4.943521594684386,3.298226985214845
4.963455149501661,3.302215882837693
4.983388704318937,3.3056901756409207
5.003322259136213,3.3086383652720204
5.023255813953488,3.3110507119365202
5.043189368770764,3.312919256829563
5.063122923588041,3.3142378410098745
5.083056478405315,3.3150021207892695
5.102990033222592,3.3152095796907033
5.122923588039868,3.3148595370078353
5.142857142857143,3.313953152978003
5.162790697674419,3.312493430559543
5.182724252491695,3.3104852137825866
5.20265780730897,3.3079351826213865
5.222591362126246,3.3048518443142054
5.242524916943522,3.301245521035793
5.262458471760797,3.297128333806031
5.282392026578074,3.2925141824980297
5.3023255813953485,3.2874187217889888
5.322259136212625,3.2818593328778563
5.342192691029901,3.275855090776762
5.362126245847176,3.2694267269664015
5.382059800664452,3.262596587191979
5.4019933554817285,3.255388584163955
5.421926910299003,3.247828144919818
5.44186046511628,3.239942152596832
5.4617940199335555,3.231758882365183
5.48172757475083,3.223307931273797
5.501661129568107,3.2146201417703435
5.5215946843853825,3.2057275186715266
5.541528239202658,3.196663139381852
5.561461794019934,3.187461057188195
5.5813953488372094,3.178156197495335
5.601328903654485,3.1687842469137704
5.621262458471762,3.1593815351673213
5.641196013289036,3.1499849098533077
5.661129568106313,3.140631604163713
5.681063122923589,3.131359097761088
5.700996677740864,3.122204971097686
5.72093023255814,3.113206753570285
5.740863787375416,3.1044017660146466
5.760797342192691,3.0958269581616737
5.780730897009967,3.0875187418002246
5.800664451827243,3.0795128205165367
5.820598006644518,3.0718440170054753
5.840531561461795,3.064546099070245
5.8604651162790695,3.057651605542725
5.880398671096346,3.0511916734615143
5.900332225913622,3.045195867936078
5.920265780730897,3.0396920161991763
5.940199335548173,3.0347060474024934
5.960132890365449,3.0302618397386905
5.980066445182724,3.026381076474545
6.0,3.023083112451802
6.0199335548172765,3.020384852553768
6.039867109634551,3.0183006435461865
6.059800664451828,3.0168421805803978
6.0797342192691035,3.016018429497772
6.099667774086379,3.015835565898417
6.119601328903655,3.0162969317386352
6.139534883720931,3.0174030100043674
6.159468438538206,3.0191514177775924
6.179401993355482,3.0215369177743923
6.1993355481727574,3.024551448194047
6.219269102990033,3.0281841704829136
6.23920265780731,3.0324215343923124
6.259136212624584,3.0372473595001326
6.279069767441861,3.0426429321774626
6.299003322259137,3.0485871168172953
6.318936877076412,3.0550564800060775
6.338870431893688,3.062025426211967
6.3588039867109645,3.0694663434877922
6.378737541528239,3.077349757641411
6.398671096345516,3.085644493310545
6.418604651162791,3.0943178403920713
6.438538205980066,3.103335724313779
6.458471760797343,3.1126628786973374
6.4784053156146175,3.1222630190416405
6.498338870431894,3.132099016150921
6.51827242524917,3.1421330681399384
6.538205980066445,3.1523268699646345
6.558139534883721,3.16264177954721
6.578073089700998,3.1730389796878806
6.598006644518272,3.1834796350768677
6.617940199335549,3.1939250438388767
6.6378737541528245,3.20433678315514
6.6578073089701,3.2146768486141997
6.677740863787376,3.2249077870402565
6.6976744186046515,3.23499282263691
6.717607973421927,3.2448959763631526
6.737541528239203,3.2545821785283313
6.7574750830564785,3.2640173746524557
6.777408637873754,3.2731686246890535
6.797342192691031,3.2820041957491024
6.8172757475083055,3.2904936484979097
6.837209302325582,3.2986079174220473
6.857142857142858,3.3063193851816197
6.877076411960133,3.313601951275027
6.897009966777409,3.3204310952491958
6.9169435215946855,3.3267839346893116
6.93687707641196,3.3326392782184238
6.956810631229236,3.337977673730079
6.9767441860465125,3.342781452066306
6.996677740863787,3.3470347663398816
7.016611295681064,3.3507236270840055
7.036544850498339,3.3538359333945538
7.056478405315615,3.356361500210721
7.076411960132891,3.358292081859011
7.096345514950166,3.3596213919634548
7.116279069767442,3.360345119802082
7.136212624584719,3.3604609431660286
7.156146179401993,3.3599685377532316
7.17607973421927,3.358869583103874
7.196013289036546,3.3571677650595544
7.21594684385382,3.354868774702502
7.235880398671097,3.351980303705417
7.2558139534883725,3.3485120359967895
7.275747508305648,3.3444756356204084
7.295681063122924,3.3398847306424515
7.3156146179402,3.334754892934074
7.335548172757475,3.329103613632633
7.355481727574752,3.322950274061109
7.3754152823920265,3.3163161118623
7.395348837209303,3.309224182083553
7.415282392026579,3.301699312928654
7.435215946843854,3.2937680558770617
7.45514950166113,3.2854586298574593
7.475083056478406,3.2768008591532753
7.495016611295681,3.2678261047130226
7.514950166112956,3.2585671885393253
7.5348837209302335,3.249058310837605
7.554817275747508,3.239334959620125
7.574750830564784,3.229433812484033
7.5946843853820605,3.21939263031458
7.614617940199336,3.2092501427072
7.634551495016611,3.1990459249561822
7.6544850498338874,3.188820266523742
7.674418604651163,3.1786140309814073
7.694352159468439,3.1684685075076886
7.714285714285715,3.158425254130045
7.73421926910299,3.1485259330166513
7.754152823920266,3.1388121382526943
7.774086378737542,3.1293252166758356
7.794019933554818,3.1201060824947815
7.813953488372093,3.111195026570369
7.83388704318937,3.102631521398315
7.853820598006645,3.0944540229925352
7.8737541528239205,3.0866997710239663
7.893687707641197,3.079404588717806
7.913621262458472,3.0726026841468452
7.9335548172757475,3.06632645467543
7.953488372093024,3.0606062964022445
7.9734219269103,3.0554704205163135
7.9933554817275745,3.050944678513873
8.013289036544851,3.047052398222058
8.033222591362128,3.0438142325338946
8.053156146179402,3.0412480226783543
8.073089700996679,3.0393686777265065
8.093023255813954,3.0381880718735106
8.11295681063123,3.037714960836554
8.132890365448505,3.0379549184765033
8.152823920265782,3.0389102944900044
8.172757475083056,3.04058019373626
8.192691029900331,3.042960477465365
8.21262458471761,3.0460437864114858
8.232558139534884,3.0498195854115875
8.252491694352159,3.0542742289181706
8.272425249169435,3.0593910464989045
8.292358803986712,3.06515044716538
8.312292358803987,3.0715300411521667
8.332225913621263,3.078504777581585
8.352159468438538,3.086047096301746
8.372093023255815,3.094127092077661
8.392026578073091,3.1027126892479036
8.411960132890366,3.1117698249312995
8.43189368770764,3.1212626388776696
8.451827242524917,3.131153668100407
8.471760797342194,3.1414040445024796
8.491694352159469,3.1519736938072036
8.511627906976745,3.1628215342256425
8.53156146179402,3.173905673429233
8.551495016611296,3.1851836025434603
8.571428571428573,3.1966123860328413
8.591362126245848,3.208148846503361
8.611295681063122,3.2197497436036047
8.6312292358804,3.2313719463553983
8.651162790697676,3.242972598387669
8.67109634551495,3.254509275680198
8.691029900332227,3.2659401365460776
8.710963455149502,3.2772240636919725
8.730897009966778,3.288320798292802
8.750830564784053,3.299191066102388
8.77076411960133,3.3097966956942955
8.790697674418604,3.3201007289869167
8.81063122923588,3.3300675242564424
8.830564784053157,3.339662851878868
8.850498338870432,3.34885398307136
8.870431893687707,3.3576097719224425
8.890365448504983,3.3659007310124918
8.91029900332226,3.373699100930796
8.930232558139535,3.3809789139941966
8.950166112956811,3.3877160524658865
8.970099667774086,3.3938883015621233
8.990033222591363,3.39947539751989
9.00996677740864,3.404459070981022
9.029900332225914,3.4088230859276325
9.049833887043189,3.412553274381803
9.069767441860467,3.4156375670577006
9.089700996677742,3.418066020129162
9.109634551495017,3.4198308382490437
9.129568106312293,3.4209263939285948
9.14950166112957,3.4213492433571524
9.169435215946844,3.421098138712904
9.189368770764121,3.420174036986138
9.209302325581396,3.4185801053058147
9.22923588039867,3.4163217227300176
9.249169435215949,3.413406478429521
9.269102990033224,3.409844166162466
9.289036544850498,3.405646774906625
9.308970099667773,3.400828475483654
9.328903654485051,3.39540560297841
9.348837209302326,3.3893966347245534
9.368770764119601,3.3828221635966367
9.388704318936878,3.375704866318462
9.408637873754152,3.368069466468533
9.428571428571429,3.35994269183549
9.448504983388705,3.351353225751533
9.46843853820598,3.342331652009115
9.488372093023255,3.3329103929478596
9.508305647840533,3.323123640284551
9.528239202657808,3.3130072782509083
9.548172757475083,3.302598798602628
9.56810631229236,3.2919372070700166
9.588039867109636,3.281062920836818
9.60797342192691,3.27001765666139
9.627906976744187,3.2588443092938055
9.647840531561462,3.2475868198959907
9.667774086378738,3.236290034240309
9.687707641196015,3.2249995505467326
9.70764119601329,3.2137615569202858
9.727574750830565,3.2026226584699926
9.747508305647841,3.1916296943273577
9.767441860465118,3.180829544937435
9.787375415282392,3.17026893016594
9.807308970099669,3.1599941989519413
9.827242524916944,3.1500511114329734
9.84717607973422,3.1404846146759766
9.867109634551497,3.131338613358658
9.887043189368772,3.122655736955527
9.906976744186046,3.114477105187633
9.926910299003321,3.106842093685408
9.9468438538206,3.099788101985553
9.966777408637874,3.0933503261272963
9.986710963455149,3.0875615382236425
10.006644518272426,3.0824518754532746
10.026578073089702,3.0780486409423973
10.046511627906977,3.074376118978434
10.066445182724253,3.0714554069160926
10.086378737541528,3.069304265999177
10.106312292358805,3.0679369931296177
10.126245847176081,3.067364315370738
10.146179401993356,3.067593308680003
10.16611295681063,3.0686273420338104
10.186046511627907,3.0704660477424346
10.205980066445184,3.073105318366236
10.225913621262459,3.076537330246489
10.245847176079735,3.0807505932668673
10.26578073089701,3.085730026075972
10.285714285714286,3.091457055638832
10.305647840531563,3.097909739655343
10.325581395348838,3.1050629100946794
10.345514950166113,3.112888335853497
10.36544850498339,3.1213549023568663
10.385382059800666,3.130428805786087
10.40531561461794,3.1400737595383785
10.425249169435217,3.150251210496955
10.445182724252492,3.1609205627142964
10.465116279069768,3.1720394061800383
10.485049833887045,3.1835637484542776
10.50498338870432,3.1954482470879695
10.524916943521594,3.207646440920566
10.544850498338871,3.22011097853077
10.564784053156147,3.2327938423161373
10.584717607973422,3.2456465668815095
10.604651162790697,3.2586204506219474
10.624584717607974,3.271666759586318
10.64451827242525,3.284736922899814
10.664451827242525,3.297782719203837
10.684385382059801,3.3107564537374907
10.704318936877076,3.3236111258349132
10.724252491694353,3.3363005867455255
10.74418604651163,3.348779687800231
10.764119601328904,3.361004419045106
10.784053156146179,3.372932038546196
10.803986710963457,3.3845211926357575
