Frequency (Hz),Amplitude
0.0,0.1614872392674851
0.019801980198019802,0.16804709226360148
0.039603960396039604,0.18632357780154635
0.0594059405940594,0.21326695236900098
0.07920792079207921,0.2459608550242841
0.09900990099009901,0.28231136008661967
0.1188118811881188,0.3209621527020401
0.13861386138613863,0.3610494456832312
0.15841584158415842,0.4020111364384613
0.1782178217821782,0.4434674958277449
0.19801980198019803,0.4851507456758491
0.21782178217821782,0.5268636407024729
0.2376237623762376,0.568454695065324
0.25742574257425743,0.6098030013965953
0.27722772277227725,0.6508086828048535
0.297029702970297,0.6913867332830542
0.31683168316831684,0.7314629487023199
0.33663366336633666,0.7709711801108484
0.3564356435643564,0.8098514433189787
0.37623762376237624,0.848048595279874
0.39603960396039606,0.8855113933089162
0.4158415841584158,0.922191817730592
0.43564356435643564,0.9580445788850617
0.45544554455445546,0.9930267551657519
0.4752475247524752,1.0270975254978154
0.495049504950495,1.0602179707502133
0.5148514851485149,1.092350926035217
0.5346534653465347,1.1234608709511467
0.5544554455445545,1.153513848364038
0.5742574257425742,1.182477404812944
0.594059405940594,1.2103205473968597
0.613861386138614,1.2370137132790675
0.6336633663366337,1.2625287488761268
0.6534653465346534,1.286838896484769
0.6732673267326733,1.3099187866103197
0.6930693069306931,1.3317444346437006
0.7128712871287128,1.3522932408241695
0.7326732673267327,1.3715439926475002
0.7524752475247525,1.3894768690497548
0.7722772277227723,1.4060734458305044
0.7920792079207921,1.4213167018828847
0.8118811881188118,1.4351910258803735
0.8316831683168316,1.4476822231358746
0.8514851485148516,1.4587775224008397
0.8712871287128713,1.4684655824151363
0.891089108910891,1.4767364980529494
0.9108910891089109,1.4835818059390495
0.9306930693069307,1.4889944894338123
0.9504950495049505,1.4929689829057848
0.9702970297029703,1.4955011752287057
0.99009900990099,1.4965884124548687
1.00990099009901,1.4962294996315313
1.0297029702970297,1.4944247017394594
1.0495049504950495,1.4911757437454247
1.0693069306930694,1.486485809772532
1.0891089108910892,1.4803595414042952
1.108910891089109,1.4728030351516053
1.1287128712871286,1.4638238391247633
1.1485148514851484,1.4534309489684556
1.1683168316831685,1.4416348031341242
1.188118811881188,1.4284472775839958
1.2079207920792079,1.4138816800434861
1.227722772277228,1.3979527439464712
1.2475247524752475,1.3806766222499587
1.2673267326732673,1.3620708813351672
1.2871287128712872,1.3421544952603468
1.3069306930693068,1.3209478406918156
1.3267326732673268,1.2984726929158257
1.3465346534653466,1.2747522234294584
1.3663366336633662,1.2498109997311375
1.3861386138613863,1.2236749880882118
1.405940594059406,1.1963715602609175
1.4257425742574257,1.1679295054265966
1.4455445544554455,1.1383790488947618
1.4653465346534653,1.1077518796636858
1.4851485148514851,1.0760811894853501
1.504950495049505,1.04340172693796
1.5247524752475248,1.0097498711422304
1.5445544554455446,0.9751637313264431
1.5643564356435644,0.9396832806372837
1.5841584158415842,0.9033505356906009
1.6039603960396038,0.8662097977942069
1.6237623762376237,0.8283079782205571
1.6435643564356437,0.7896950394129255
1.6633663366336633,0.7504245982541794
1.683168316831683,0.7105547592488276
1.7029702970297032,0.6701492792077102
1.7227722772277227,0.6292792184772837
1.7425742574257426,0.588025320238757
1.7623762376237624,0.5464815024580133
1.782178217821782,0.504760089171687
1.801980198019802,0.46299982697590036
1.8217821782178218,0.4213784738254219
1.8415841584158414,0.3801330790290853
1.8613861386138615,0.33959347369366427
1.881188118811881,0.30023869680479415
1.900990099009901,0.262792640720596
1.920792079207921,0.2283812978749793
1.9405940594059405,0.1987594129516954
1.9603960396039604,0.1765025540333687
1.98019801980198,0.1647303785479222
2.0,0.16574607352592696
2.01980198019802,0.17933423097968593
2.0396039603960396,0.20294516049112762
2.0594059405940595,0.23348738314083126
2.0792079207920793,0.2685134836945639
2.099009900990099,0.30638109430371635
2.118811881188119,0.34603883806384117
2.1386138613861387,0.38680849817526924
2.1584158415841586,0.4282386390215512
2.1782178217821784,0.4700163308706168
2.1980198019801978,0.5119151006009519
2.217821782178218,0.5537639610140475
2.237623762376238,0.5954285882805344
2.257425742574257,0.636799591994799
2.2772277227722775,0.6777850170147925
2.297029702970297,0.7183054329863788
2.3168316831683167,0.7582906459589043
2.336633663366337,0.7976774513726493
2.3564356435643563,0.8364080707568977
2.376237623762376,0.8744290467448376
2.3960396039603964,0.9116904512502227
2.4158415841584158,0.9481453114065248
2.4356435643564356,0.9837491893733941
2.455445544554456,1.0184598724566314
2.4752475247524752,1.0522371433649815
2.495049504950495,1.085042609375888
2.514851485148515,1.1168395752650746
2.5346534653465347,1.1475929490515004
2.5544554455445545,1.1772691725448954
2.5742574257425743,1.2058361707640266
2.594059405940594,1.2332633157864332
2.6138613861386135,1.259521401673447
2.633663366336634,1.2845826279092396
2.6534653465346536,1.3084205893808913
2.673267326732673,1.3310102713674858
2.6930693069306932,1.3523280483384115
2.712871287128713,1.372351685614617
2.7326732673267324,1.3910603431412445
2.7524752475247527,1.4084345807704828
2.7722772277227725,1.4244563645716142
2.792079207920792,1.4391090737774657
2.811881188118812,1.4523775080501438
2.8316831683168315,1.4642478948079094
2.8514851485148514,1.474707896402086
2.8712871287128716,1.4837466169721514
2.891089108910891,1.4913546088385732
2.910891089108911,1.4975238783197462
2.9306930693069306,1.5022478908818064
2.9504950495049505,1.5055215755493618
2.9702970297029703,1.507341328522077
2.99009900990099,1.5077050159570144
3.00990099009901,1.5066119758906482
3.0297029702970297,1.504063019287321
3.0495049504950495,1.500060430213576
3.0693069306930694,1.49460796515053
3.089108910891089,1.487710851469384
3.108910891089109,1.4793757851091005
3.128712871287129,1.469610927510432
3.148514851485148,1.4584259018774193
3.1683168316831685,1.4458317888568992
3.1881188118811883,1.4318411217491027
3.2079207920792077,1.4164678813891227
3.227722772277228,1.3997274908711197
3.2475247524752473,1.3816368103257641
3.267326732673267,1.3622141320091843
3.2871287128712874,1.3414791760202829
3.3069306930693068,1.3194530870368633
3.3267326732673266,1.296158432553099
3.346534653465347,1.2716192032180904
3.366336633663366,1.2458608160247144
3.386138613861386,1.218910121290661
3.4059405940594063,1.1907954146238096
3.4257425742574257,1.1615464553916384
3.4455445544554455,1.1311944936472675
3.4653465346534653,1.0997723080412949
3.485148514851485,1.0673142580244859
3.504950495049505,1.0338563547006665
3.5247524752475248,0.9994363561365677
3.5445544554455446,0.9640938949453817
3.564356435643564,0.9278706487848406
3.5841584158415842,0.8908105684292695
3.603960396039604,0.852960183871177
3.6237623762376234,0.8143690173892065
3.6435643564356437,0.7750901451231169
3.6633663366336635,0.7351809677383961
3.683168316831683,0.6947042800448306
3.702970297029703,0.6537297753167508
3.722772277227723,0.6123361934113859
3.7425742574257423,0.5706144415222144
3.762376237623762,0.5286722161626224
3.7821782178217824,0.4866409955235532
3.801980198019802,0.4446868637920992
3.8217821782178216,0.40302767622362695
3.841584158415842,0.3619609348653556
3.8613861386138613,0.3219099881738732
3.881188118811881,0.2835013559432844
3.9009900990099013,0.2476919442525294
3.9207920792079207,0.21596076012464824
3.9405940594059405,0.19051941215977378
3.96039603960396,0.17427398625378562
3.98019801980198,0.1699631899355668
4.0,0.17848138446804132
4.01980198019802,0.19816194390314995
4.03960396039604,0.2260534180709938
4.0594059405940595,0.2594403686797606
4.079207920792079,0.29637176671827975
4.099009900990099,0.3355660829376647
4.118811881188119,0.37619342468020023
4.138613861386139,0.4177053039715557
4.158415841584159,0.4597262644662286
4.178217821782178,0.5019886771589575
4.198019801980198,0.5442937243763747
4.217821782178218,0.5864877147831966
4.237623762376238,0.6284473859351666
4.257425742574258,0.6700705614539015
4.2772277227722775,0.7112700689370401
4.297029702970297,0.7519696908406512
4.316831683168317,0.79210141283001
4.336633663366336,0.8316035188899051
4.356435643564357,0.8704192507370871
4.376237623762377,0.9084958506647203
4.3960396039603955,0.9457838696176342
4.415841584158416,0.9822366617651526
4.435643564356436,1.0178100121865636
4.455445544554455,1.0524618608670047
4.475247524752476,1.0861520972392347
4.4950495049504955,1.1188424069730083
4.514851485148514,1.1504961578412638
4.534653465346535,1.1810783150634405
4.554455445544555,1.2105553790468617
4.574257425742574,1.2388953402479872
4.594059405940594,1.2660676471773682
4.613861386138614,1.292043184523698
4.633663366336633,1.3167942590749426
4.653465346534653,1.3402945916386235
4.673267326732674,1.3625193135575273
4.693069306930693,1.3834449667167465
4.712871287128713,1.403049506167178
4.732673267326733,1.4213123046677048
4.752475247524752,1.4382141585862795
4.772277227722772,1.4537372947080964
4.792079207920793,1.4678653775848205
4.811881188118812,1.4805835171270072
4.8316831683168315,1.4918782761967107
4.851485148514852,1.5017376780020026
4.871287128712871,1.5101512131316235
4.891089108910891,1.517109846098254
4.910891089108912,1.5226060212846746
4.930693069306931,1.5266336682085175
4.9504950495049505,1.5291882060405297
4.97029702970297,1.5302665473279018
4.99009900990099,1.5298671008895854
5.00990099009901,1.5279897738646055
5.02970297029703,1.524635972908278
5.0495049504950495,1.5198086045446604
5.069306930693069,1.513512074697526
5.089108910891089,1.5057522874367555
5.108910891089109,1.4965366429929623
5.128712871287129,1.4858740351107445
5.148514851485149,1.4737748478310626
5.1683168316831685,1.4602509518164475
5.188118811881188,1.445315700360069
5.207920792079208,1.428983925252427
5.227722772277227,1.4112719327187868
5.247524752475248,1.3921974996887059
5.267326732673268,1.3717798707183912
5.2871287128712865,1.3500397559604476
5.306930693069307,1.3269993306682266
5.326732673267327,1.302682236839005
5.346534653465346,1.277113587749293
5.366336633663367,1.2503199763268533
5.3861386138613865,1.2223294885517932
5.405940594059405,1.193171723401857
5.425742574257426,1.1628778212818593
5.445544554455446,1.1314805034409858
5.465346534653465,1.0990141256362425
5.485148514851486,1.0655147503208378
5.504950495049505,1.031020243029811
5.524752475247524,0.9955704005591716
5.544554455445545,0.9592071212210181
5.564356435643565,0.9219746312539961
5.584158415841584,0.883919786904336
5.603960396039604,0.8450924795833519
5.623762376237624,0.8055461831305504
5.643564356435643,0.7653386996033779
5.663366336633663,0.724533186475303
5.683168316831684,0.6831995891018782
5.702970297029703,0.6414166669695732
5.7227722772277225,0.5992749062662543
5.742574257425743,0.5568807820561779
5.762376237623762,0.5143631192024296
5.782178217821782,0.4718827885718826
5.801980198019803,0.429647817742583
5.821782178217822,0.38793745831485277
5.841584158415841,0.34714124434410254
5.861386138613861,0.3078230105673345
5.881188118811881,0.2708245638949926
5.900990099009901,0.2374227398685927
5.920792079207921,0.20951918718986406
5.9405940594059405,0.18970249078377205
5.96039603960396,0.1807564793291465
5.98019801980198,0.18432327187128084
6.0,0.19973648184068368
6.01980198019802,0.22453233123091873
6.03960396039604,0.255930583299437
6.0594059405940595,0.2917172326526133
6.079207920792079,0.3303629974621454
6.099009900990099,0.3708568858685416
6.118811881188119,0.41252789562669495
6.138613861386139,0.4549189660638974
6.158415841584159,0.497707578529082
6.178217821782178,0.5406572335345241
6.198019801980198,0.5835877255384081
6.217821782178218,0.6263566435672278
6.237623762376237,0.6688476156031822
6.257425742574258,0.7109626712090257
6.2772277227722775,0.7526171712146873
6.297029702970296,0.7937363726270855
6.316831683168317,0.834253057718075
6.336633663366337,0.8741058699761375
6.356435643564356,0.9132381286872665
6.376237623762377,0.9515969734409156
6.396039603960396,0.9891327398371905
6.415841584158415,1.0257984996848697
6.435643564356436,1.0615497198612511
6.455445544554456,1.096344007859481
6.475247524752475,1.1301409213914295
6.495049504950495,1.1629018258091472
6.514851485148515,1.1945897875482836
6.534653465346534,1.2251694949210519
6.554455445544554,1.2546071998116195
6.574257425742575,1.282870675431614
6.594059405940594,1.3099291864619624
6.6138613861386135,1.3357534687690003
6.633663366336634,1.3603157165224513
6.653465346534653,1.3835895750240093
6.673267326732673,1.405550137919211
6.693069306930694,1.4261739477433135
6.712871287128713,1.4454389989663299
6.732673267326732,1.463324742868472
6.752475247524753,1.4798120937077344
6.772277227722772,1.4948834357438645
6.792079207920792,1.5085226307647193
6.811881188118813,1.5207150258266422
6.8316831683168315,1.531447460973342
6.851485148514851,1.5407082767413287
6.871287128712871,1.548487321295613
6.891089108910891,1.5547759570694013
6.910891089108911,1.5595670668069592
6.930693069306931,1.5628550589308885
6.9504950495049505,1.5646358721742115
6.97029702970297,1.564906979435424
6.99009900990099,1.5636673908304202
7.00990099009901,1.5609176559311573
7.02970297029703,1.556659865195437
7.0495049504950495,1.5508976506080747
7.069306930693069,1.5436361855693674
7.089108910891089,1.5348821840843523
7.108910891089109,1.5246438993252005
7.128712871287128,1.5129311216607624
7.148514851485149,1.499755176272181
7.1683168316831685,1.4851289205025724
7.188118811881187,1.4690667411234377
7.207920792079208,1.4515845517423922
7.227722772277228,1.4326997906273795
7.247524752475247,1.4124314192852778
7.267326732673268,1.390799922210132
7.287128712871287,1.3678273083130679
7.306930693069306,1.3435371146680744
7.326732673267327,1.317954413362598
7.346534653465347,1.291105822440233
7.366336633663366,1.26301952217801
7.3861386138613865,1.2337252782731947
7.405940594059406,1.2032544739490088
7.425742574257425,1.1716401535636654
7.445544554455446,1.138917081072851
7.465346534653466,1.1051218177262263
7.485148514851485,1.07029282477837
7.504950495049505,1.034470598915815
7.524752475247524,0.9976978507677984
7.544554455445544,0.9600197406108951
7.564356435643565,0.9214841906960066
7.584158415841584,0.8821423012834538
7.603960396039604,0.8420489086503923
7.623762376237624,0.8012633398958189
7.643564356435643,0.7598504442881954
7.663366336633663,0.717882019019566
7.683168316831684,0.6754388065484147
7.702970297029703,0.632613334672861
7.7227722772277225,0.5895140219918876
7.742574257425743,0.5462712200009141
7.762376237623762,0.5030462771737252
7.782178217821782,0.46004540738093036
7.801980198019803,0.4175413178097533
7.821782178217822,0.3759074784894163
7.841584158415841,0.3356728310819618
7.861386138613862,0.2976080645545818
7.881188118811881,0.2628538650472542
7.900990099009901,0.23307902818822815
7.92079207920792,0.21056603631134563
7.9405940594059405,0.19793093574237824
7.96039603960396,0.19715636630633396
7.980198019801979,0.20839870093809784
8.0,0.22988216845189674
8.01980198019802,0.25901735546667515
8.03960396039604,0.29345459976030036
8.05940594059406,0.33144670890422856
8.07920792079208,0.37179252745257396
8.099009900990099,0.41368030716303905
8.118811881188119,0.45655417544218735
8.138613861386139,0.5000228914419147
8.158415841584159,0.5438017058461073
8.178217821782178,0.5876759252299932
8.198019801980198,0.6314779506601842
8.217821782178218,0.6750725878671446
8.237623762376238,0.7183474712588138
8.257425742574258,0.7612066976277307
8.277227722772277,0.8035665117907752
8.297029702970297,0.8453523296456974
8.316831683168317,0.8864966497992021
8.336633663366337,0.9269375665172426
8.356435643564357,0.9666176967326541
8.376237623762377,1.005483396821777
8.396039603960396,1.04348418523899
8.415841584158416,1.080572313436846
8.435643564356436,1.1167024449660472
8.455445544554456,1.1518314144162949
8.475247524752476,1.1859180459036036
8.495049504950495,1.2189230163875313
8.514851485148515,1.2508087530199004
8.534653465346535,1.2815393565134243
8.554455445544555,1.3110805445241984
8.574257425742575,1.3393996105007666
8.594059405940595,1.3664653945253138
8.613861386138613,1.392248263468536
8.633663366336634,1.4167200983766557
8.653465346534654,1.4398542874601803
8.673267326732672,1.461625723397845
8.693069306930694,1.4820108039339932
8.712871287128714,1.500987434952379
8.732673267326732,1.518535035369714
8.752475247524753,1.5346345433182749
8.772277227722773,1.5492684231870308
8.792079207920791,1.5624206731705965
8.811881188118813,1.5740768330404138
8.831683168316832,1.5842239919045868
8.85148514851485,1.5928507957667541
8.871287128712872,1.5999474547301487
8.891089108910892,1.6055057497237737
8.91089108910891,1.6095190386535396
8.930693069306932,1.611982261904734
8.950495049504951,1.6128919471421088
8.97029702970297,1.6122462133734317
8.990099009900991,1.6100447742596398
9.00990099009901,1.606288940672708
9.029702970297029,1.6009816225194375
9.04950495049505,1.594127329867899
9.06930693069307,1.5857321734325416
9.089108910891088,1.575803864495493
9.10891089108911,1.5643517143656358
9.12871287128713,1.551386633504507
9.148514851485148,1.5369211304806807
9.16831683168317,1.520969310952122
9.188118811881187,1.5035468769223879
9.207920792079207,1.4846711265719978
9.227722772277229,1.464360955034779
9.247524752475247,1.4426368565736163
9.267326732673267,1.4195209287151531
9.287128712871288,1.395036879035647
9.306930693069306,1.3692100354575059
9.326732673267326,1.342067361129878
9.346534653465348,1.3136374752410565
9.366336633663366,1.283950681466098
9.386138613861386,1.2530390062168852
9.405940594059407,1.2209362494722737
9.425742574257425,1.1876780517759007
9.445544554455445,1.1533019820736643
9.465346534653467,1.117847652528363
9.485148514851485,1.0813568684490893
9.504950495049505,1.0438738242310812
9.524752475247526,1.0054453600477715
9.544554455445544,0.9661212994613285
9.564356435643564,0.9259548958646049
9.584158415841586,0.8850034268742133
9.603960396039604,0.843328992229143
9.623762376237623,0.8009995952010838
9.643564356435645,0.7580906244488337
9.663366336633663,0.7146869098839426
9.683168316831683,0.6708856143442605
9.702970297029704,0.6268003624462053
9.722772277227723,0.5825672319138798
9.742574257425742,0.5383535959644772
9.762376237623764,0.4943713976099394
9.782178217821782,0.45089739484758334
9.801980198019802,0.4083044114612423
9.821782178217823,0.3671097294411038
9.841584158415841,0.3280488064143808
9.861386138613861,0.29218093818924973
9.881188118811881,0.26101600115697676
9.900990099009901,0.23658880208362465
9.92079207920792,0.22127788090867082
9.94059405940594,0.21711211831073404
9.96039603960396,0.2247547952441174
9.98019801980198,0.24309219900999043
10.0,0.2699136112375954
10.01980198019802,0.302904918809635
10.03960396039604,0.3401848928316683
10.05940594059406,0.3803870764360569
10.07920792079208,0.4225579789835271
10.099009900990099,0.46603362433597334
10.118811881188119,0.5103435573514545
10.138613861386139,0.5551454223336563
10.158415841584159,0.6001823196406825
10.178217821782178,0.6452552699806722
10.198019801980198,0.690205321488518
10.217821782178218,0.734901766141871
10.237623762376238,0.7792342523938488
10.257425742574258,0.823107415251114
10.277227722772277,0.8664371589673522
10.297029702970297,0.9091480430342707
10.316831683168317,0.9511714172213156
10.336633663366337,0.9924440734925386
10.356435643564357,1.0329072601435665
10.376237623762377,1.072505953487011
10.396039603960396,1.1111883151545567
10.415841584158416,1.1489052848590435
10.435643564356436,1.1856102731581906
10.455445544554454,1.2212589288245135
10.475247524752476,1.2558089624087447
10.495049504950495,1.2892200124912587
10.514851485148514,1.3214535446076152
10.534653465346535,1.3524727753456005
10.554455445544555,1.3822426159386294
10.574257425742573,1.4107296310228112
10.594059405940595,1.4379020092210875
10.613861386138614,1.4637295429641402
10.633663366336632,1.4881836155211454
