Time (s),Filtered Signal
0.0,-0.09168703235922776
0.03337004405286344,-0.01975999468403606
0.06674008810572687,0.021166258011611188
0.10011013215859031,0.011587133823519119
0.13348017621145375,-0.0475624864681021
0.16685022026431717,-0.13479112377925512
0.20022026431718062,-0.21542924660228718
0.23359030837004408,-0.2535885585382883
0.2669603524229075,-0.22432159001532087
0.3003303964757709,-0.12183704477949353
0.33370044052863435,0.03869667489839899
0.3670704845814978,0.22584885626192364
0.40044052863436125,0.40105373842594866
0.43381057268722467,0.5289174201312606
0.46718061674008815,0.5855667814439218
0.5005506607929515,0.5630576429657393
0.533920704845815,0.4694160607013775
0.5672907488986785,0.3251732986440895
0.6006607929515418,0.1578911178748182
0.6340308370044053,-0.0038249089795344155
0.6674008810572687,-0.1356738992860013
0.7007709251101322,-0.221595242506619
0.7341409691629956,-0.25576860724594835
0.767511013215859,-0.242364031892074
0.8008810572687225,-0.1930826223823166
0.834251101321586,-0.12310754654596046
0.8676211453744493,-0.04670261905903004
0.9009911894273128,0.026030642513494608
0.9343612334801763,0.09010792268264442
0.9677312775330397,0.14419517816539124
1.001101321585903,0.1877428495172624
1.0344713656387665,0.2184367848374066
1.06784140969163,0.2315046333608526
1.1012114537444935,0.22144051642962181
1.134581497797357,0.18542127236729875
1.1679515418502202,0.12668978410913964
1.2013215859030837,0.05591103082354556
1.2346916299559472,-0.010887594953951306
1.2680616740088106,-0.057826582922987854
1.3014317180616741,-0.0764561978357013
1.3348017621145374,-0.07170415169632882
1.3681718061674009,-0.0630367057052905
1.4015418502202643,-0.07870602980557842
1.4349118942731278,-0.14386627411663816
1.4682819383259913,-0.2667937187682454
1.5016519823788548,-0.4296969682492542
1.535022026431718,-0.5900115692191013
1.5683920704845815,-0.6941284799110309
1.601762114537445,-0.6994793400353917
1.6351321585903085,-0.5956198037156945
1.668502202643172,-0.41355094408047
1.7018722466960352,-0.21663953810200187
1.7352422907488987,-0.07492644564952924
1.7686123348017622,-0.03340216356560391
1.8019823788546256,-0.08919922047473436
1.8353524229074891,-0.18971368350051782
1.8687224669603526,-0.25429196021926553
1.9020925110132159,-0.2107029543189589
1.9354625550660793,-0.029871755957683186
1.9688325991189428,0.2576310401559978
2.002202643171806,0.5717385578007452
2.0355726872246698,0.8156020373189826
2.068942731277533,0.9160573880754974
2.1023127753303967,0.8533940549686854
2.13568281938326,0.6672569565914757
2.1690528634361232,0.4369693676746426
2.202422907488987,0.24640872014244236
2.23579295154185,0.1500573221380462
2.269162995594714,0.1551700405457028
2.302533039647577,0.22644397932196314
2.3359030837004404,0.3086438123598329
2.369273127753304,0.3546929166801539
2.4026431718061674,0.3453917849182158
2.436013215859031,0.2923679077688404
2.4693832599118943,0.22494901396966802
2.5027533039647576,0.16961749145223867
2.5361233480176213,0.13363803505938662
2.5694933920704845,0.10124722068409439
2.6028634361233483,0.04356671060786997
2.6362334801762115,-0.06381761378200698
2.6696035242290748,-0.22519314905069493
2.7029735682819385,-0.4189613185508194
2.7363436123348017,-0.6043924870344479
2.7697136563876654,-0.7374037851913636
2.8030837004405287,-0.7879964805196166
2.8364537444933924,-0.7517831539520986
2.8698237885462556,-0.6510551287696703
2.903193832599119,-0.5253906878879595
2.9365638766519826,-0.41592118458808164
2.969933920704846,-0.34961176019556556
3.0033039647577096,-0.32968844463485814
3.036674008810573,-0.33588578866212365
3.070044052863436,-0.33436237492012677
3.1034140969162998,-0.29323536924637195
3.136784140969163,-0.19719955882583945
3.1701541850220267,-0.0548189462598458
3.20352422907489,0.10490694744245457
3.2368942731277532,0.24526634590156646
3.270264317180617,0.33795917846837725
3.30363436123348,0.37496463573739663
3.337004405286344,0.37049424094068895
3.370374449339207,0.352238572625352
3.4037444933920704,0.34637100051978936
3.437114537444934,0.36374054333435096
3.4704845814977974,0.39397289712848266
3.503854625550661,0.41034093057961074
3.5372246696035243,0.38325599250100345
3.5705947136563876,0.2963631282827949
3.6039647577092513,0.15803088736766013
3.6373348017621145,0.0028163614082491605
3.6707048458149782,-0.11854421362604374
3.7040748898678415,-0.15742271687583234
3.737444933920705,-0.08707462901038303
3.7708149779735685,0.08398212418314747
3.8041850220264317,0.3108501460312883
3.8375550660792954,0.5247224677554312
3.8709251101321587,0.6549315698588778
3.9042951541850224,0.6526443001199539
3.9376651982378856,0.5074459610617181
3.971035242290749,0.2507302580855573
4.004405286343612,-0.05512342963063748
4.037775330396476,-0.33747072974959047
4.0711453744493395,-0.5362919603778327
4.104515418502203,-0.6212829680689819
4.137885462555066,-0.5979100836243846
4.171255506607929,-0.5014739310992491
4.2046255506607935,-0.3822734674464663
4.237995594713657,-0.287467549160318
4.27136563876652,-0.24572069320870085
4.304735682819383,-0.259382315090823
4.3381057268722465,-0.3063167733662058
4.371475770925111,-0.35028207395037203
4.404845814977974,-0.35582876276988545
4.438215859030837,-0.30204962538550256
4.4715859030837,-0.18994529179892902
4.504955947136564,-0.040775584286753035
4.538325991189428,0.11338678534559887
4.571696035242291,0.24232689216550934
4.605066079295154,0.32784054227823173
4.638436123348018,0.36728661179047645
4.671806167400881,0.3700329324717885
4.705176211453745,0.3497970412755417
4.738546255506608,0.3174422386010392
4.7719162995594715,0.2777420107507885
4.805286343612335,0.23083761772936004
4.838656387665198,0.1763356914127008
4.872026431718062,0.11677273666351023
4.905396475770925,0.05801897575215404
4.938766519823789,0.006418354243132447
4.972136563876652,-0.03531929698701559
5.005506607929515,-0.07053523257696845
5.038876651982379,-0.10731531283744394
5.072246696035243,-0.15367618968938473
5.105616740088106,-0.21178129137195736
5.138986784140969,-0.27470419954755326
5.172356828193832,-0.3281357657648717
5.2057268722466965,-0.3566467663410567
5.23909691629956,-0.3512174661745548
5.272466960352423,-0.313565893967185
5.305837004405286,-0.2543260495293831
5.3392070484581495,-0.18571172116378756
5.372577092511014,-0.1129138517261357
5.405947136563877,-0.029829936109084805
5.43931718061674,0.07729435207335685
5.4726872246696034,0.2192325716962709
5.506057268722468,0.39156848322188464
5.539427312775331,0.5681285806784194
5.572797356828194,0.705112398269955
5.606167400881057,0.7557726998112665
5.639537444933921,0.6898932704138694
5.672907488986785,0.5092370454462697
5.706277533039648,0.2512678468194509
5.739647577092511,-0.02162059179581191
5.7730176211453745,-0.24365033460379806
5.806387665198238,-0.3692203802011744
5.839757709251102,-0.38850183834051155
5.873127753303965,-0.3283649195684137
5.9064977973568284,-0.23834391032917512
5.939867841409692,-0.16800117050876273
5.973237885462555,-0.14585304644221467
6.006607929515419,-0.1691423238853754
6.039977973568282,-0.20856509516067737
6.073348017621146,-0.22504195821276515
6.106718061674009,-0.1901227396073602
6.140088105726872,-0.10024610981989433
6.173458149779736,0.021577080556892704
6.2068281938325995,0.13676166099262946
6.240198237885463,0.2088134689737828
6.273568281938326,0.21877175525019166
6.306938325991189,0.17124032400476114
6.3403083700440535,0.08904447921025224
6.373678414096917,0.00042167883817454543
6.40704845814978,-0.07394553887979251
6.440418502202643,-0.12744842655820407
6.4737885462555065,-0.16514440958327023
6.507158590308371,-0.1950353507520383
6.540528634361234,-0.21891764263875468
6.573898678414097,-0.22852532687681817
6.60726872246696,-0.20935210123360504
6.640638766519824,-0.1499420010583978
6.674008810572688,-0.05112673774409326
6.707378854625551,0.07047119134413676
6.740748898678414,0.18720145598247764
6.774118942731278,0.2712388693919668
6.807488986784141,0.3058230941193555
6.840859030837005,0.2909469894807072
6.874229074889868,0.24076364041864978
6.9075991189427315,0.1746981609133377
6.940969162995595,0.10766038111722384
6.974339207048458,0.04489545163393146
7.007709251101322,-0.016092838004241522
7.041079295154185,-0.07853561262027202
7.074449339207049,-0.13940034801674522
7.107819383259912,-0.18743001027307704
7.141189427312775,-0.2080471034433363
7.174559471365639,-0.1925043508438767
7.207929515418503,-0.1456786244665125
7.241299559471366,-0.08727244535906324
7.274669603524229,-0.04478097034769326
7.308039647577092,-0.04127943380187061
7.3414096916299565,-0.08409713485137764
7.37477973568282,-0.16007157003202438
7.408149779735683,-0.23968479323502595
7.441519823788546,-0.28799597239786373
7.47488986784141,-0.27725064737547306
7.508259911894274,-0.19576013849538032
7.541629955947137,-0.04997118948335054
7.575,0.13981895117998905
7.608370044052863,0.34679416272264435
7.641740088105728,0.5439533652344833
7.675110132158591,0.7070319691485936
7.708480176211454,0.8144895355767265
7.741850220264317,0.8473111807766257
7.775220264317181,0.7914581723448674
7.808590308370045,0.6435373295338714
7.841960352422908,0.41709189991305146
7.875330396475771,0.14506144713992933
7.9087004405286345,-0.12508333201644667
7.942070484581498,-0.3435279422217367
7.975440528634362,-0.47352833626853125
8.008810572687224,-0.50366823724755
8.042180616740088,-0.45146881924493054
8.075550660792953,-0.35651645747979044
8.108920704845815,-0.26581754463905855
8.142290748898679,-0.21730090715222994
8.175660792951541,-0.2278632768184399
8.209030837004406,-0.2900849520837779
8.24240088105727,-0.3779584053513211
8.275770925110132,-0.4584378598052263
8.309140969162996,-0.5037987165107788
8.342511013215859,-0.5002399107983365
8.375881057268723,-0.45034188646365164
8.409251101321587,-0.36966792836228257
8.44262114537445,-0.27972481856316594
8.475991189427313,-0.20009782000651546
8.509361233480176,-0.1421109359425129
8.54273127753304,-0.10553158130403568
8.576101321585904,-0.07909162393496498
8.609471365638766,-0.04483310547574719
8.64284140969163,0.014794964280902224
8.676211453744493,0.10942809985570191
8.709581497797357,0.2358985410614126
8.742951541850221,0.378315971254533
8.776321585903084,0.5133751878890094
8.809691629955948,0.6186576472716261
8.84306167400881,0.6802159810164272
8.876431718061674,0.6961273198618462
8.909801762114538,0.6747376909580847
8.9431718061674,0.6288803166928413
8.976541850220265,0.569133632028017
9.009911894273127,0.4993838572999655
9.043281938325991,0.4166010074331684
9.076651982378856,0.3145984926975354
9.110022026431718,0.189699867287151
9.143392070484582,0.04550258110648537
9.176762114537445,-0.10549454998506207
9.210132158590309,-0.24416491483663152
9.243502202643173,-0.3500553963135465
9.276872246696035,-0.40768942429065
9.3102422907489,-0.4115470012245482
9.343612334801762,-0.36798450946398265
9.376982378854626,-0.2935533157401658
9.41035242290749,-0.21046694493187254
9.443722466960352,-0.14080375078398125
9.477092511013216,-0.10114529467056682
9.510462555066079,-0.0989265205256742
9.543832599118943,-0.13126007172123436
9.577202643171807,-0.18664118970726595
9.61057268722467,-0.2495111317833155
9.643942731277534,-0.30671860326642164
9.677312775330396,-0.3534942245491046
9.71068281938326,-0.3955442522211498
9.744052863436124,-0.44461926992842693
9.777422907488987,-0.5080161104473839
9.81079295154185,-0.576757168623728
9.844162995594713,-0.6199417779101737
9.877533039647577,-0.5913749446085644
9.910903083700441,-0.4486594395012584
9.944273127753304,-0.17723820989501524
9.977643171806168,0.1929615398392792
10.01101321585903,0.5889613504434891
10.044383259911895,0.9167479969064202
10.077753303964759,1.0957795475473826
10.111123348017621,1.0907246462456397
10.144493392070485,0.9255893560924165
10.177863436123348,0.6733341971155139
10.211233480176212,0.42548056136066675
10.244603524229076,0.2553063547297169
10.277973568281938,0.190723828430883
10.311343612334802,0.2079727860258165
10.344713656387665,0.24756223496042687
10.378083700440529,0.244125847335915
10.411453744493393,0.15636709202793048
10.444823788546255,-0.015804518083987765
10.47819383259912,-0.2333337623673603
10.511563876651982,-0.4368104729047303
10.544933920704846,-0.5724215518913068
10.57830396475771,-0.6132056067806371
10.611674008810573,-0.5669494604033087
10.645044052863437,-0.468846538981124
10.678414096916299,-0.36397180071931917
10.711784140969163,-0.2884936508150287
10.745154185022027,-0.2578432265276478
10.77852422907489,-0.26561481437363876
10.811894273127754,-0.29135492825459736
10.845264317180618,-0.3115557781733032
10.87863436123348,-0.307878952218573
10.912004405286345,-0.26961581154821396
10.945374449339207,-0.1915576573872409
10.978744493392071,-0.07119662609644714
11.012114537444935,0.09106442269022454
11.045484581497798,0.2879067513103464
11.078854625550662,0.5000839764566078
11.112224669603524,0.6950737118990897
11.145594713656388,0.8328591757729509
11.178964757709252,0.87843956602952
11.212334801762115,0.8162292901798369
11.245704845814979,0.6591908942775219
11.279074889867841,0.44709722806230506
11.312444933920705,0.23331543767954976
11.34581497797357,0.06536349789879008
11.379185022026432,-0.03210788906026236
11.412555066079296,-0.0643068392136405
11.445925110132158,-0.06058820101912259
11.479295154185023,-0.05941725601358275
11.512665198237887,-0.09141441383429443
11.546035242290749,-0.16808058280992164
11.579405286343613,-0.2804609496806883
11.612775330396476,-0.4070214978449502
11.64614537444934,-0.5257720287373935
11.679515418502204,-0.6240213693482126
11.712885462555066,-0.7007732320361671
11.74625550660793,-0.7609195705228776
11.779625550660793,-0.8050746839974849
11.812995594713657,-0.8216515339742753
11.846365638766521,-0.7869084632249639
11.879735682819383,-0.6743662137750487
11.913105726872248,-0.4694541006103312
11.94647577092511,-0.18169069585073883
11.979845814977974,0.15260344122541106
12.013215859030838,0.4793265481250964
12.0465859030837,0.7435253381911475
12.079955947136565,0.9065121658388423
12.113325991189427,0.9558739533651389
12.146696035242291,0.9052166901831314
12.180066079295155,0.785574878894157
12.213436123348018,0.6335167194518705
12.246806167400882,0.4808829732164011
12.280176211453744,0.3487610347094797
12.313546255506608,0.245731925385881
12.346916299559473,0.16913950277684792
12.380286343612335,0.10825476265026986
12.413656387665199,0.048822498835080816
12.447026431718061,-0.021415795982762317
12.480396475770926,-0.10729520585305809
12.51376651982379,-0.20281623019134087
12.547136563876652,-0.29175790943635443
12.580506607929516,-0.3531005932042993
12.613876651982379,-0.36981764038445925
12.647246696035243,-0.33748376529418145
12.680616740088107,-0.2684772134979635
12.71398678414097,-0.18903467882748878
12.747356828193833,-0.12959582673746506
12.780726872246696,-0.11224535196879813
12.81409691629956,-0.1408569254007513
12.847466960352424,-0.1987117216194986
12.880837004405286,-0.2551504635250694
12.91420704845815,-0.27866037574978425
12.947577092511013,-0.2506448271985614
12.980947136563877,-0.17353072499805555
13.014317180616741,-0.06926943455749997
13.047687224669604,0.03128621954964174
13.081057268722468,0.10322474571159448
13.11442731277533,0.13951152603594227
13.147797356828194,0.154098627165581
13.181167400881058,0.17446480358386565
13.21453744493392,0.22697055685954046
13.247907488986785,0.3219564999367763
13.281277533039647,0.4457117151612082
13.314647577092511,0.5632125764987034
13.348017621145376,0.630521185135245
13.381387665198238,0.6114364588015949
13.414757709251102,0.49143139679787795
13.448127753303964,0.28356693836256275
13.481497797356829,0.024763412862812244
13.514867841409693,-0.2354432580175304
13.548237885462555,-0.4492992705223036
13.58160792951542,-0.5837407851097651
13.614977973568282,-0.6282887129074508
13.648348017621146,-0.5960927026691842
13.68171806167401,-0.5180271882802822
13.715088105726872,-0.43144397903120496
13.748458149779736,-0.3667973469018335
13.781828193832599,-0.3364970009855209
13.815198237885463,-0.3303231871771644
13.848568281938327,-0.32000107167724495
13.88193832599119,-0.27220507024668744
13.915308370044054,-0.165429541773153
13.948678414096916,-0.0035876393937387583
13.98204845814978,0.18048218321900972
14.015418502202644,0.3347258574588741
14.048788546255507,0.4080885074448394
14.08215859030837,0.37317638390851904
14.115528634361233,0.2412255979820183
14.148898678414097,0.061833466531873736
14.182268722466961,-0.09368498643207562
14.215638766519824,-0.15910926575683149
14.249008810572688,-0.09929189738763904
14.28237885462555,0.07562052218258339
14.315748898678414,0.3136868670755904
14.349118942731279,0.5407985746257268
14.382488986784141,0.6881319588198034
14.415859030837005,0.7162201448583401
14.449229074889868,0.6264476662937309
14.482599118942732,0.45649730940592953
14.515969162995596,0.26294465600565275
14.549339207048458,0.09890125284457266
14.582709251101322,-0.004330858613522181
14.616079295154185,-0.04515948261099
14.649449339207049,-0.04740254917234033
14.682819383259913,-0.04683096860989981
14.716189427312775,-0.0747123120018122
14.74955947136564,-0.144981687949031
14.782929515418502,-0.24960805255886204
14.816299559471366,-0.36317606482561055
14.84966960352423,-0.4541148467562565
14.883039647577093,-0.497668022567083
14.916409691629957,-0.48535272162154314
14.94977973568282,-0.4273198544674519
14.983149779735683,-0.34702861288136067
15.016519823788547,-0.27081559969686225
15.04988986784141,-0.21700719203978167
15.083259911894274,-0.18931809916286843
15.116629955947138,-0.17729661573779262
15.15,-0.16330263883080973
15.183370044052865,-0.13238890470194303
15.216740088105727,-0.08004169223734317
15.250110132158591,-0.013874395414570946
15.283480176211455,0.05138895524262687
15.316850220264318,0.10264165348642863
15.350220264317182,0.1358289113154647
15.383590308370044,0.15794030474155332
15.416960352422908,0.18264016483924217
15.450330396475772,0.22225645154920862
15.483700440528635,0.280690854229945
15.517070484581499,0.3508372588130978
15.550440528634361,0.4171334747689894
15.583810572687225,0.4609913913060648
15.61718061674009,0.4658901637503401
15.650550660792952,0.4202228925043744
15.683920704845816,0.3182860970289054
15.717290748898678,0.16122818329723518
15.750660792951543,-0.04075640918218708
15.784030837004407,-0.26575279530516727
15.817400881057269,-0.47969238830318844
15.850770925110133,-0.6410519580020816
15.884140969162996,-0.7113624676613219
15.91751101321586,-0.6686112661615138
15.950881057268724,-0.5177810758823432
15.984251101321586,-0.2927175515937156
16.01762114537445,-0.04685840898185499
16.050991189427315,0.16435325403258746
16.084361233480177,0.30217208586339933
16.11773127753304,0.35629745928483
16.151101321585905,0.3448411083447766
16.184471365638768,0.3032559653213384
16.21784140969163,0.26780018873802347
16.251211453744492,0.26086808402183365
16.284581497797358,0.2838032496220266
16.31795154185022,0.3190078768835638
16.351321585903083,0.33931391403059746
16.38469162995595,0.3202175532813901
16.41806167400881,0.2502013490247731
16.451431718061674,0.13561615459467147
16.48480176211454,-0.0012673238465113522
16.518171806167402,-0.1300994474050288
16.551541850220264,-0.2232794323896648
16.584911894273127,-0.2657519637719655
16.618281938325993,-0.2599512805385548
16.651651982378855,-0.22376094890681178
16.685022026431717,-0.18213367834215577
16.718392070484583,-0.15581493776024846
16.751762114537446,-0.15210605434929
16.785132158590308,-0.1618942110921741
16.818502202643174,-0.16441710723650602
16.851872246696036,-0.13767662193614172
16.8852422907489,-0.06982412690574061
16.91861233480176,0.03351232697356021
16.951982378854627,0.1490291247120625
16.98535242290749,0.2425953879962395
17.01872246696035,0.2803061405099205
17.052092511013218,0.23964958206655151
17.08546255506608,0.11713940262775671
17.118832599118942,-0.06969831842094883
17.152202643171808,-0.28626787160709305
17.18557268722467,-0.48950573572333594
17.218942731277533,-0.6387854674391487
17.2523127753304,-0.706181526618546
17.28568281938326,-0.6831514577362692
