Frequency (Hz),Amplitude
0.0,3.414940717689541
0.04,3.4136126110759695
0.08,3.409630395846166
0.12,3.403000390259522
0.16,3.393733139586761
0.19999999999999998,3.3818434386591316
0.24,3.367350364025556
0.27999999999999997,3.350277316318613
0.32,3.330652073619555
0.36,3.308506856815801
0.39999999999999997,3.2838784081646955
0.44,3.2568080845179774
0.48,3.22734196692647
0.52,3.1955309886369996
0.5599999999999999,3.1614310838177246
0.6,3.125103359706524
0.64,3.0866142952729816
0.6799999999999999,3.0460359699193305
0.72,3.003446326218742
0.76,2.958929471198097
0.7999999999999999,2.9125760212084635
0.84,2.8644834959759025
0.88,2.8147567679634573
0.9199999999999999,2.763508573663979
0.96,2.710860093823982
1.0,2.656941609784415
1.04,2.601893242989176
1.0799999999999998,2.5458657840778134
1.1199999999999999,2.4890216165959207
1.1600000000000001,2.431535737883893
1.2,2.3735968756845525
1.24,2.3154086928431616
1.28,2.257191063398759
1.3199999999999998,2.1991813904558395
1.3599999999999999,2.1416359184137472
1.4,2.084830968301879
1.44,2.0290639941531796
1.48,1.9746543200763838
1.52,1.9219433725701138
1.5599999999999998,1.871294173195997
1.5999999999999999,1.8230898085570428
1.64,1.7777305573840743
1.68,1.7356293432399832
1.72,1.6972052154986064
1.76,1.66287466267724
1.7999999999999998,1.633040749114642
1.8399999999999999,1.608080343477994
1.88,1.588330056183571
1.92,1.5740718698674125
1.9599999999999997,1.5655197480014067
2.0,1.5628086426885388
2.0399999999999996,1.5659872136494175
2.08,1.5750151935697683
2.12,1.5897657476995177
2.1599999999999997,1.6100325066353014
2.2,1.635540358540139
2.2399999999999998,1.6659587011615618
2.28,1.7009157349750472
2.3200000000000003,1.7400125062531797
2.36,1.782835704405671
2.4,1.8289685829001003
2.44,1.8779997222719493
2.48,1.9295296334602512
2.5199999999999996,1.9831753894896489
2.56,2.0385735777262632
2.6,2.0953819013859034
2.6399999999999997,2.1532797493746543
2.68,2.2119680175183696
2.7199999999999998,2.2711684167233743
2.76,2.330622454506844
2.8,2.3900902313196295
2.84,2.449349154782693
2.88,2.5081926440434144
2.92,2.5664288725013837
2.96,2.6238795792092517
2.9999999999999996,2.6803789662207347
3.04,2.7357726899742425
3.08,2.7899169485410025
3.1199999999999997,2.842677662469547
3.16,2.893929744423156
3.1999999999999997,2.943556451373516
3.2399999999999998,2.991448812439456
3.28,3.037505125292637
3.32,3.0816305142126854
3.36,3.1237365432349167
3.4,3.1637408783070824
3.44,3.201566992897325
3.4799999999999995,3.23714391203541
3.52,3.2704059902977307
3.5599999999999996,3.301292719749191
3.5999999999999996,3.3297485643235962
3.64,3.3557228175552023
3.6799999999999997,3.379169480967155
3.7199999999999998,3.400047160778892
3.76,3.4183189809172276
3.7999999999999994,3.4339525106073774
3.84,3.4469197050845986
3.88,3.4571968582079724
3.9199999999999995,3.464764565978484
3.96,3.469607700167888
4.0,3.471715391455928
4.04,3.4710810216548946
4.079999999999999,3.4677022247753606
4.12,3.4615808968584303
4.16,3.4527232146710998
4.199999999999999,3.441139663535827
4.24,3.4268450747460153
4.28,3.409858673209892
4.319999999999999,3.390204136169467
4.36,3.3679096640630224
4.4,3.3430080648434792
4.4399999999999995,3.3155368533353644
4.4799999999999995,3.285538367515496
4.5200000000000005,3.2530599039422348
4.56,3.2181538749416054
4.6,3.180877990591777
4.640000000000001,3.141295469037459
4.68,3.0994752792182414
4.72,3.0554924207167447
4.76,3.0094282461265176
4.8,2.9613708321080874
4.84,2.911415406140545
4.88,2.8596648368733293
4.92,2.8062301969155734
4.96,2.751231407824126
5.0,2.6947979778971276
5.039999999999999,2.637069844034449
5.08,2.578198329221085
5.12,2.51834722687042
5.159999999999999,2.4576940219650023
5.2,2.3964312561296053
5.24,2.3347680387384697
5.279999999999999,2.2729316979073286
5.319999999999999,2.2111695524527177
5.36,2.1497507669710587
5.3999999999999995,2.088968225135609
5.4399999999999995,2.0291403189859
5.48,1.970612502418511
5.52,1.9137583941651688
5.56,1.8589801401960406
5.6,1.806707662494447
5.64,1.7573963415320422
5.68,1.7115226233273761
5.72,1.6695770388449014
5.76,1.632054212722079
5.8,1.5994396605064514
5.84,1.5721935554121202
5.879999999999999,1.5507321768866096
5.92,1.5354083639035323
5.96,1.5264928474718609
5.999999999999999,1.524158646382188
6.04,1.528470612185158
6.08,1.5393816374719536
6.119999999999999,1.5567360859685453
6.16,1.5802798999178276
6.2,1.6096758851072803
6.239999999999999,1.6445221017978746
6.279999999999999,1.6843711897513216
6.32,1.7287487607758252
6.359999999999999,1.7771695379383914
6.3999999999999995,1.8291505252557687
6.44,1.8842210182421106
6.4799999999999995,1.9419296447992598
6.52,2.0018488474452467
6.56,2.063577308005354
6.6,2.126740814605005
6.64,2.190992016553672
6.68,2.256009435221683
6.72,2.3214960178463713
6.76,2.387177447287558
6.8,2.452800358870472
6.84,2.518130566592472
6.88,2.58295136408467
6.92,2.6470619389073606
6.959999999999999,2.710275919934412
7.0,2.77242006483059
7.04,2.8333330863374173
7.08,2.8928646109825733
7.119999999999999,2.950874260943826
7.16,3.0072308484142773
7.199999999999999,3.061811671414638
7.239999999999999,3.114501900216729
7.28,3.165194044129086
7.32,3.213787489180617
7.359999999999999,3.260188098110506
7.3999999999999995,3.304307864959871
7.4399999999999995,3.346064617420229
7.4799999999999995,3.385381760900129
7.52,3.422188059012481
7.5600000000000005,3.4564174458563306
7.599999999999999,3.4880088660690243
7.64,3.516906139161354
7.68,3.5430578451246824
7.719999999999999,3.5664172287211957
7.76,3.586942120242863
7.800000000000001,3.6045948708571887
7.839999999999999,3.6193423009546377
7.88,3.631155660179267
7.92,3.640010598065356
7.959999999999999,3.645887144424211
8.0,3.6487696988304688
8.040000000000001,3.6486470287511463
8.08,3.6455122760468925
8.12,3.639362971757528
8.159999999999998,3.630201059267216
8.2,3.618032926131821
8.24,3.602869445047553
8.28,3.5847260246489805
8.32,3.5636226710524466
8.36,3.539584061311899
8.399999999999999,3.5126396302358946
8.44,3.48282367233291
8.48,3.450175461016508
8.52,3.4147393876214434
8.56,3.3765651232676848
8.6,3.3357078071750905
8.639999999999999,3.292228265691338
8.68,3.2461932670683575
8.72,3.1976758179260507
8.76,3.1467555084003687
8.8,3.0935189142083988
8.84,3.0380600653024126
8.879999999999999,2.9804809924516795
8.92,2.92089236500668
8.959999999999999,2.8594142352770646
9.0,2.796176907386951
9.040000000000001,2.731321951122557
9.079999999999998,2.6650033840689655
9.12,2.5973890480710606
9.16,2.5286622084408514
9.2,2.459023405854725
9.24,2.3886925907141268
9.280000000000001,2.3179115665986507
9.32,2.246946761383578
9.36,2.1760923287847165
9.399999999999999,2.1056735555091213
9.44,2.036050504372455
9.48,1.9676217547277102
9.52,1.9008280002553486
9.559999999999999,1.8361551227871724
9.6,1.774136175011407
9.639999999999999,1.715351479659529
9.68,1.6604258119833952
9.72,1.6100214310552503
9.76,1.5648256609667746
9.8,1.5255319345534835
9.84,1.4928138526349926
9.879999999999999,1.4672929753814734
9.92,1.4495026738795131
9.959999999999999,1.4398520829610608
10.0,1.4385954020923204
10.04,1.4458118253327634
10.079999999999998,1.4613998944131332
10.12,1.4850873383777878
10.16,1.5164543720029233
10.2,1.5549660412089004
10.24,1.6000082293284015
10.280000000000001,1.650922416043111
10.319999999999999,1.707035713008484
10.36,1.767684411894703
10.4,1.8322307464515073
10.44,1.9000735458443891
10.48,1.9706539368032385
10.52,2.043457359261617
10.559999999999999,2.118013044637621
10.6,2.1938918915729233
10.639999999999999,2.270703441589776
10.68,2.3480924493316837
10.72,2.425735375126808
10.76,2.503337002866394
10.799999999999999,2.580627297986791
10.84,2.6573585608924617
10.879999999999999,2.7333028929393715
10.92,2.80824996884048
10.96,2.8820050962367514
11.0,2.9543875366874435
11.04,3.0252290600154126
11.08,3.0943727041298414
11.12,3.1616717140430115
11.16,3.2269886360949775
11.2,3.290194545964787
11.24,3.351168391619416
11.28,3.4097964347868976
11.319999999999999,3.4659717767656586
11.36,3.5195939563692873
11.4,3.5705686095530456
11.44,3.618807181788083
11.48,3.664226685560888
11.52,3.7067494965026655
11.559999999999999,3.7463031826184565
11.6,3.7828203619113157
11.64,3.8162385844025635
11.68,3.8465002351534325
11.72,3.873552455411363
11.759999999999998,3.897347079450512
11.799999999999999,3.91784058506169
11.84,3.9349940559831014
11.879999999999999,3.948773154857942
11.92,3.9591481055669737
11.96,3.966093684019269
11.999999999999998,3.9695892166996045
12.04,3.9696185864710336
12.08,3.966170245321857
12.12,3.95923723393181
12.16,3.948817208118056
12.200000000000001,3.9349124724120763
12.239999999999998,3.9175300212191773
12.28,3.8966815882285597
12.32,3.872383704980104
12.36,3.8446577697614437
12.4,3.8135301283139422
12.44,3.7790321681790107
12.479999999999999,3.7412004289289547
12.52,3.7000767310137705
12.559999999999999,3.655708326535513
12.6,3.608148075956624
12.64,3.5574546555862363
12.68,3.503692801702066
12.719999999999999,3.4469335983983536
12.76,3.38725481775412
12.799999999999999,3.3247413227566653
12.84,3.2594855456732694
12.88,3.1915880573395565
12.92,3.121158246248188
12.959999999999999,3.0483151305253537
12.999999999999998,2.9731883310518175
13.04,2.895919240327099
13.08,2.8166624294197957
13.12,2.735587344734142
13.16,2.6528803575663065
13.2,2.5687472426433957
13.239999999999998,2.4834161769283933
13.28,2.397141366373723
13.32,2.3102074245890747
13.36,2.2229346405849024
13.4,2.1356852772238226
13.44,2.0488710277009576
13.479999999999999,1.962961707197645
13.52,1.8784951431834263
13.559999999999999,1.7960880085466102
13.6,1.71644695768393
13.64,1.6403788047227887
13.68,1.5687975609565439
13.719999999999999,1.502724924523083
13.76,1.4432794615474622
13.799999999999999,1.3916487407004812
13.84,1.3490390532213576
13.88,1.3166003718088763
13.919999999999998,1.295330782612091
13.959999999999999,1.2859738995818455
14.0,1.2889309906222064
14.04,1.304211111251179
14.08,1.3314339858661612
14.120000000000001,1.3698844068184775
14.16,1.4186016701114326
14.2,1.4764805858675956
14.239999999999998,1.5423634667753512
14.28,1.6151110968454705
14.32,1.6936495743121094
14.36,1.776995871081574
14.399999999999999,1.864267474511582
14.44,1.9546815978063237
14.479999999999999,2.047548413323329
14.52,2.1422614554140615
14.56,2.2382871917681855
14.6,2.335154910565892
14.64,2.4324475021235994
14.68,2.5297933638502563
14.719999999999999,2.626859458197607
14.76,2.723345450312716
14.799999999999999,2.8189788067850396
14.84,2.913510724103253
14.879999999999999,3.006712759702303
14.919999999999998,3.09837405066889
14.959999999999999,3.1882990201695156
15.0,3.276305486767463
15.04,3.3622231057047887
15.079999999999998,3.445892083425995
15.120000000000001,3.527162117012578
15.159999999999998,3.6058915188875815
15.199999999999998,3.6819464943303477
15.24,3.755200545230831
15.28,3.8255339783209252
15.319999999999999,3.8928335000356
15.36,3.956991883341926
15.399999999999999,4.017907694465745
15.439999999999998,4.075485069556555
15.48,4.12963353305302
15.52,4.180267850919443
15.559999999999999,4.227307913077679
15.600000000000001,4.2706786403080725
15.639999999999999,4.310309911676564
15.679999999999998,4.346136509194353
15.72,4.378098076957349
15.76,4.406139092465678
15.799999999999999,4.4302088482052095
15.84,4.450261441897838
15.879999999999999,4.466255774105683
15.919999999999998,4.478155552116255
15.96,4.485929299248792
16.0,4.489550368913008
16.04,4.488996962926485
16.080000000000002,4.484252153761067
16.12,4.475303910546714
16.16,4.462145128818521
16.200000000000003,4.444773664153117
16.24,4.423192370010212
16.279999999999998,4.397409140278901
16.319999999999997,4.36743695723241
16.36,4.333293945827819
16.4,4.295003435556471
16.439999999999998,4.252594031368255
16.48,4.206099695572014
16.52,4.155559843071782
16.56,4.101019452856847
16.6,4.042529199350032
16.64,3.9801456080694684
16.68,3.913931241121541
16.72,3.8439549193776292
16.759999999999998,3.770291989875869
16.799999999999997,3.693024649138633
16.84,3.6122423358491034
16.88,3.5280422098782465
16.919999999999998,3.4405297392540635
16.96,3.34981942266823
17.0,3.2560356829977213
17.04,3.159313977732331
17.080000000000002,3.059802186039576
17.12,2.9576623507002275
17.16,2.8530728780129864
17.2,2.7462313323388394
17.24,2.6373580074433756
17.279999999999998,2.526700518538092
17.32,2.4145397426544637
17.36,2.3011975479603497
17.4,2.1870469032409363
17.44,2.072525154826439
17.48,1.9581515019894422
17.52,1.8445499775431111
17.56,1.732479486241214
17.6,1.6228725020171035
17.64,1.516883486195607
17.68,1.415946151460796
17.72,1.3218338775168963
17.759999999999998,1.236707704290953
17.799999999999997,1.1631196676137558
17.84,1.1039188575897392
17.88,1.061999826184557
17.919999999999998,1.0398716420675707
17.96,1.0391350606642122
18.0,1.0600817749592055
18.04,1.101633166423093
18.080000000000002,1.1616526467296755
18.12,1.237450707258554
18.159999999999997,1.326251212456783
18.2,1.4254936211894165
18.24,1.53296814670368
18.279999999999998,1.6468379310110557
18.32,1.7656039818420495
18.36,1.8880500314197566
18.4,2.0131866248239385
18.44,2.1402023360301046
18.48,2.268424111903708
18.52,2.39728619198602
18.560000000000002,2.5263062020925
18.6,2.655066924946209
18.64,2.7832024375116906
18.679999999999996,2.910387559906522
18.72,3.0363298007489075
18.759999999999998,3.1607631824834135
18.799999999999997,3.2834434852917944
18.84,3.40414456560865
18.88,3.5226554927865203
18.919999999999998,3.6387783122236694
18.96,3.7523262910866264
19.0,3.863122538093372
19.04,3.9709989150065232
19.080000000000002,4.075795176969224
19.119999999999997,4.177358293386857
19.159999999999997,4.2755419120137335
19.2,4.370205937190892
19.24,4.461216199485705
19.279999999999998,4.548444198810667
19.32,4.631766906815007
19.36,4.711066617222039
19.4,4.786230835028693
19.44,4.857152197242332
19.48,4.923728419215654
19.52,4.9858622617398405
19.560000000000002,5.0434615149315025
19.6,5.096438995651414
19.639999999999997,5.144712555758759
19.68,5.188205098963756
19.72,5.226844604415422
19.759999999999998,5.260564155468659
19.8,5.28930197232862
19.84,5.313001447481736
19.88,5.3316111830003425
19.919999999999998,5.345085028958901
19.96,5.353382122329142
20.0,5.35646692583485
20.04,5.35430926634727
20.08,5.346884372493516
20.119999999999997,5.334172911235136
20.159999999999997,5.316161023255487
20.2,5.29284035707492
20.24,5.264208101895122
20.279999999999998,5.230267019260841
20.32,5.191025473721985
20.36,5.146497462785267
20.4,5.096702646567364
20.44,5.041666377705
20.48,4.981419732250703
20.52,4.9159995424927825
20.560000000000002,4.845448432898381
20.599999999999998,4.769814860702825
20.639999999999997,4.689153163079076
20.68,4.603523613344703
20.72,4.5129924893385285
20.759999999999998,4.4176321579764135
20.8,4.317521181147457
20.84,4.212744449637343
20.88,4.103393353806774
20.92,3.989566002510671
20.96,3.8713675055100327
21.0,3.748910339828622
21.04,3.622314827773028
21.08,3.4917097646158237
21.119999999999997,3.3572332486859637
21.159999999999997,3.219033788062241
21.2,3.077271789763303
21.24,2.9321215849528146
21.279999999999998,2.7837742165334225
21.32,2.6324413291393696
21.36,2.478360682539236
21.4,2.3218041043541904
21.44,2.163089190259222
21.48,2.0025969031003776
21.52,1.8407987066567648
21.56,1.6782995554617683
21.599999999999998,1.515908050309894
21.639999999999997,1.3547545257268352
21.68,1.1964958524476448
21.72,1.0436788185587431
21.759999999999998,0.9003851451890972
21.8,0.7733059347696307
21.84,0.6731035824361578
21.88,0.6144270248454896
21.92,0.6105149987431273
21.96,0.6631714531501559
22.0,0.7612848719826122
22.04,0.8902553367401842
22.08,1.0387793946774426
22.119999999999997,1.1996068854715427
22.16,1.368291947191106
22.2,1.5420615257299757
22.24,1.7191124757487328
22.28,1.8982121119145037
22.32,2.0784731341193416
22.36,2.259224323416021
22.4,2.4399340991846312
22.44,2.6201639263353558
22.48,2.7995390691355184
22.519999999999996,2.9777297296493876
22.56,3.154438583962854
22.599999999999998,3.329392367353633
22.639999999999997,3.502336086259777
22.68,3.6730289735890715
22.72,3.841241625306751
22.759999999999998,4.006753952743847
22.8,4.169353707989472
22.84,4.3288354182693976
22.88,4.484999616390132
22.92,4.637652288287417
22.96,4.786604481635759
23.0,4.931672035185556
23.04,5.072675399420871
23.08,5.209439526834375
23.119999999999997,5.341793815615367
23.16,5.469572094520287
23.2,5.592612639596941
23.24,5.710758215575936
23.28,5.823856136339116
23.32,5.931758340075778
23.36,6.034321475648719
23.400000000000002,6.131406997389535
23.44,6.222881266080183
23.479999999999997,6.308615654296133
23.519999999999996,6.388486654613243
23.56,6.462375989438941
23.599999999999998,6.530170721432697
23.639999999999997,6.591763363645064
23.68,6.647051988635921
23.72,6.695940335939836
23.759999999999998,6.738337917333307
23.8,6.774160119430645
23.84,6.803328303194387
23.88,6.825769899995678
23.92,6.841418503901816
23.96,6.85021395990334
23.999999999999996,6.852102447823232
24.04,6.847036561677093
24.08,6.834975384275603
24.119999999999997,6.81588455688104
24.16,6.789736343747145
24.2,6.756509691388149
24.24,6.716190282437332
24.28,6.6687705839693825
24.32,6.614249890173661
24.36,6.552634359277977
24.400000000000002,6.4839370446344144
24.439999999999998,6.4081779198909254
24.479999999999997,6.325383898184478
24.52,6.235588845304213
24.56,6.138833586786472
24.599999999999998,6.035165908918314
24.64,5.924640553642566
24.68,5.807319207376282
24.72,5.6832704837773145
24.759999999999998,5.552569900520797
24.8,5.4152998501819924
24.84,5.271549565365966
24.88,5.121415078282674
24.92,4.964999175044309
24.959999999999997,4.802411345069121
24.999999999999996,4.633767726126927
25.04,4.459191045777788
25.08,4.278810560271404
25.119999999999997,4.092761992447063
25.16,3.9011874708945036
25.2,3.704235473761835
25.24,3.5020607823999144
25.28,3.2948244530022284
25.32,3.0826938194413533
25.36,2.865842549363876
25.4,2.6444507917975204
25.439999999999998,2.4187054854736965
25.479999999999997,2.1888009594050293
25.52,1.9549400908349552
25.56,1.7173365940734011
25.599999999999998,1.4762197942341573
25.64,1.2318454591288612
25.68,0.9845236203951288
25.72,0.7347045588640333
25.76,0.48333729503768513
25.8,0.23456316713505715
25.84,0.08857364757049674
25.880000000000003,0.30901321032412876
25.919999999999998,0.5664701847210216
25.959999999999997,0.8285537625416036
25.999999999999996,1.0928361287734674
26.04,1.3585691865386549
26.08,1.6253278040730967
26.119999999999997,1.892783346737227
26.16,2.1606433723926464
26.2,2.4286309001347397
26.24,2.6964760408997863
26.28,2.9639122473837207
26.32,3.2306745277841773
26.36,3.496498580594392
26.4,3.761120396336857
26.439999999999998,4.024276111554398
26.479999999999997,4.285702006525041
26.52,4.5451345886620125
26.56,4.802310729035175
26.599999999999998,5.056967832960295
26.64,5.308844033081295
26.68,5.5576783976681785
26.72,5.803211149405351
26.76,6.045183891505174
26.8,6.283339838960591
26.84,6.517424053379555
26.88,6.747183680256985
26.919999999999998,6.972368187816264
26.959999999999997,7.192729606741148
27.0,7.408022770249855
27.04,7.6180055540562455
27.08,7.8224391158296624
27.119999999999997,8.021088133814583
27.16,8.213721044308373
27.2,8.400110277724323
27.24,8.5800324929902
27.28,8.753268810051763
27.32,8.919605040267161
27.36,9.078831914493085
27.4,9.230745308677518
27.439999999999998,9.375146466787564
27.479999999999997,9.511842220914732
27.52,9.64064520841447
27.56,9.76137408595199
27.599999999999998,9.873853740343327
27.64,9.977915496098763
27.68,10.073397319596474
27.72,10.160144019837235
27.76,10.238007445757304
27.8,10.306846680106405
27.839999999999996,10.36652822993223
27.88,10.416926213752193
27.919999999999998,10.457922545539303
27.959999999999997,10.489407115702171
28.0,10.511277969301737
28.04,10.523441481820491
28.08,10.52581253288642
28.12,10.51831467845627
28.16,10.500880322084555
28.2,10.473450886050086
28.240000000000002,10.435976983286803
28.28,10.38841859127596
28.32,10.330745229312367
28.359999999999996,10.262936140867804
28.4,10.18498048315509
