Time (s),Filtered Signal
0.0,0.013567226899373196
0.0334075723830735,-0.48287112308066266
0.066815144766147,-0.8552254315962292
0.1002227171492205,-1.0136001531841508
0.133630289532294,-0.9263605686150822
0.1670378619153675,-0.6240998167992338
0.200445434298441,-0.18428650317846365
0.23385300668151449,0.29624172043228963
0.267260579064588,0.7298174317748718
0.3006681514476615,1.0574635774398937
0.334075723830735,1.2546569146351096
0.3674832962138085,1.3251491956033097
0.400890868596882,1.289047780496337
0.4342984409799555,1.1718332234015798
0.46770601336302897,0.9982169170212464
0.5011135857461025,0.7909130709346935
0.534521158129176,0.5716978433212241
0.5679287305122495,0.36162246174977
0.601336302895323,0.17867762675714183
0.6347438752783965,0.03344867306159865
0.66815144766147,-0.0749250219688655
0.7015590200445435,-0.15971842582162285
0.734966592427617,-0.24279050872121222
0.7683741648106905,-0.3463309725891598
0.801781737193764,-0.482868277554972
0.8351893095768375,-0.6476837598707458
0.868596881959911,-0.8174768120678604
0.9020044543429845,-0.9568091712734751
0.9354120267260579,-1.0303387970864368
0.9688195991091315,-1.015864711724558
1.002227171492205,-0.9124789193441842
1.0356347438752784,-0.7402574638457771
1.069042316258352,-0.5318737688178335
1.1024498886414256,-0.32019343622553037
1.135857461024499,-0.1274606584214556
1.1692650334075725,0.03947022082021259
1.202672605790646,0.18644749785623072
1.2360801781737194,0.3238189763688549
1.269487750556793,0.45684200838642347
1.3028953229398665,0.5791182985716791
1.33630289532294,0.6719768272209428
1.3697104677060135,0.7102395814928215
1.403118040089087,0.6722775611966262
1.4365256124721606,0.5505009019529787
1.469933184855234,0.35795198389868493
1.5033407572383075,0.12773194402377483
1.536748329621381,-0.09552448936822744
1.5701559020044544,-0.26966024503082375
1.603563474387528,-0.3692526513527322
1.6369710467706016,-0.3940263816407965
1.670378619153675,-0.36727741129960767
1.7037861915367485,-0.3244205433409873
1.737193763919822,-0.2964410645071084
1.7706013363028954,-0.29567576748222546
1.804008908685969,-0.31042667318247585
1.8374164810690425,-0.31077961770193346
1.8708240534521159,-0.2627835432271174
1.9042316258351895,-0.1444985735609956
1.937639198218263,0.042997558993425396
1.9710467706013366,0.2738802311870662
2.00445434298441,0.5051833791435247
2.0378619153674835,0.6901100309525182
2.071269487750557,0.7916589635327405
2.1046770601336307,0.7917951624797649
2.138084632516704,0.6938464560871463
2.1714922048997773,0.5188328830166721
2.204899777282851,0.2985434941004709
2.2383073496659245,0.06841005534205148
2.271714922048998,-0.1382187144991608
2.3051224944320716,-0.29461775712953436
2.338530066815145,-0.38491060397596366
2.3719376391982183,-0.40778702343830087
2.405345211581292,-0.377769331801596
2.4387527839643655,-0.32154891153722276
2.472160356347439,-0.2687919960328483
2.5055679287305126,-0.2403289394719946
2.538975501113586,-0.23932934983425422
2.5723830734966593,-0.250569787770349
2.605790645879733,-0.24892509213093764
2.6391982182628064,-0.21300478474690795
2.67260579064588,-0.1367359127342929
2.7060133630289536,-0.03274758034995949
2.739420935412027,0.0739509933340714
2.7728285077951007,0.15812561647678663
2.806236080178174,0.20550131441860606
2.8396436525612474,0.2172413203398049
2.873051224944321,0.20613182344890454
2.9064587973273945,0.18746772387972263
2.939866369710468,0.1700511694713773
2.9732739420935417,0.15192346567749285
3.006681514476615,0.12238515846881372
3.0400890868596884,0.06857997277517078
3.073496659242762,-0.016809660619786657
3.1069042316258355,-0.12994607201260994
3.140311804008909,-0.2541004928067425
3.1737193763919826,-0.36227279358791664
3.207126948775056,-0.4238247493409862
3.2405345211581293,-0.41399059779865527
3.273942093541203,-0.32380831150245143
3.3073496659242765,-0.16659529125599098
3.34075723830735,0.023008871218928337
3.3741648106904236,0.19902196162664976
3.407572383073497,0.3203246499353804
3.4409799554565703,0.36625835689274294
3.474387527839644,0.3438888839046597
3.5077951002227175,0.2826892218927999
3.541202672605791,0.21879740296515812
3.5746102449888646,0.17684228704077967
3.608017817371938,0.15910010122136256
3.6414253897550113,0.14807297438428835
3.674832962138085,0.12117560203688402
3.7082405345211584,0.06905988065000697
3.7416481069042318,0.0063165338414723
3.7750556792873056,-0.03319020219156622
3.808463251670379,-0.015721509265007746
3.8418708240534527,0.06780507377036497
3.875278396436526,0.18632969832981347
3.9086859688195994,0.2734823897969087
3.942093541202673,0.25428211706006737
3.9755011135857465,0.08321755704319615
4.00890868596882,-0.22472145782051217
4.042316258351893,-0.5874417614466519
4.075723830734967,-0.8805032798441988
4.109131403118041,-0.9850724220273888
4.142538975501114,-0.8387423506253694
4.1759465478841875,-0.4660165940797671
4.209354120267261,0.026455964942711907
4.242761692650334,0.48898513948975203
4.276169265033408,0.7855294292447905
4.309576837416482,0.8431646972009492
4.342984409799555,0.6733711129794541
4.3763919821826285,0.35796513277461467
4.409799554565702,0.009068849959758407
4.443207126948775,-0.2765955936929727
4.476614699331849,-0.44862084042658545
4.510022271714923,-0.5081859241747362
4.543429844097996,-0.49034696421463364
4.5768374164810695,-0.43625647789598165
4.610244988864143,-0.37065595150453123
4.643652561247216,-0.29460597567825897
4.67706013363029,-0.19403857855277387
4.710467706013364,-0.05651660465962903
4.743875278396437,0.1145607687560646
4.77728285077951,0.2962502296463587
4.810690423162584,0.45417628218090267
4.844097995545657,0.5572251631293625
4.877505567928731,0.5905290329626265
4.910913140311805,0.5601283967054114
4.944320712694878,0.48767661954866537
4.977728285077951,0.39881654863365185
5.011135857461025,0.3116775241870421
5.044543429844098,0.23122443091009678
5.077951002227172,0.15173235416970213
5.111358574610246,0.06538122812891393
5.144766146993319,-0.028128694195347217
5.178173719376392,-0.11661002419251802
5.211581291759466,-0.1784872558047278
5.244988864142539,-0.19317715232956648
5.278396436525613,-0.15372490433228458
5.311804008908687,-0.07466998543929217
5.34521158129176,0.01018760799381028
5.378619153674833,0.06050694688230858
5.412026726057907,0.04724646402762294
5.445434298440981,-0.03310246357266828
5.478841870824054,-0.15548987861566535
5.512249443207128,-0.276787627678775
5.545657015590201,-0.3552589369536038
5.579064587973274,-0.36977189898456275
5.612472160356348,-0.3294123535280956
5.645879732739422,-0.2687648793800672
5.679287305122495,-0.23108461399162228
5.712694877505569,-0.24739316526851676
5.746102449888642,-0.32140140605789674
5.779510022271715,-0.4272592495423933
5.812917594654789,-0.5208869734609867
5.846325167037863,-0.5590868923919631
5.879732739420936,-0.5170481222031926
5.91314031180401,-0.39614622671470906
5.946547884187083,-0.21946327711979496
5.979955456570156,-0.019112264699654904
6.01336302895323,0.17667134612049568
6.046770601336304,0.34988581226848053
6.080178173719377,0.4910308065693438
6.1135857461024505,0.5933848160560441
6.146993318485524,0.6495625426313347
6.180400890868597,0.654005528716833
6.213808463251671,0.6097060467974692
6.247216035634745,0.5333093063236019
6.280623608017818,0.4528858512296382
6.3140311804008915,0.3972828351398306
6.347438752783965,0.3820911800981982
6.380846325167038,0.4006667307837888
6.414253897550112,0.42659941318737454
6.447661469933186,0.4273457463509289
6.481069042316259,0.3815484219187011
6.5144766146993325,0.2897381743657196
6.547884187082406,0.17191326021517392
6.581291759465479,0.05374367284186578
6.614699331848553,-0.0495455143349795
6.648106904231627,-0.14114698611431212
6.6815144766147,-0.23750196338254156
6.7149220489977735,-0.3536206042582246
6.748329621380847,-0.4885774010727448
6.78173719376392,-0.6205778809022084
6.815144766146994,-0.714929772050558
6.848552338530068,-0.7405395944696176
6.881959910913141,-0.6858743709653626
6.915367483296214,-0.5659993793288826
6.948775055679288,-0.417314304165526
6.982182628062361,-0.28280399377664767
7.015590200445435,-0.19483206269175887
7.048997772828509,-0.163136150448493
7.082405345211582,-0.17298133029700186
7.115812917594655,-0.19383912946352058
7.149220489977729,-0.19434488661748256
7.182628062360802,-0.15643331247585188
7.216035634743876,-0.08179282918046948
7.24944320712695,0.012591510239928579
7.282850779510023,0.10733096646884537
7.316258351893096,0.19448695059396415
7.34966592427617,0.2836113541260872
7.383073496659243,0.39495260953153405
7.416481069042317,0.5421308709739976
7.449888641425391,0.7136110209468739
7.4832962138084635,0.8647961713577782
7.516703786191537,0.9284197738860153
7.550111358574611,0.8416427999221254
7.583518930957685,0.5785223936883348
7.616926503340758,0.17176301729106772
7.650334075723832,-0.2889202944373147
7.683741648106905,-0.6840186405282683
7.717149220489978,-0.9067976135546891
7.750556792873052,-0.9030738072119643
7.783964365256126,-0.6908438926817562
7.817371937639199,-0.35151600057515375
7.850779510022273,0.0027460612546946358
7.884187082405346,0.27092232961063295
7.917594654788419,0.3967142839437391
7.951002227171493,0.3812869117787283
7.984409799554567,0.2726653888225216
8.01781737193764,0.13927064820728907
8.051224944320714,0.04064747877960225
8.084632516703786,0.007617629611491964
8.118040089086861,0.037984292771418536
8.151447661469934,0.10595342298571388
8.184855233853007,0.177640672259615
8.218262806236082,0.22401911320865497
8.251670378619155,0.22635146862619332
8.285077951002227,0.1748976073963648
8.318485523385302,0.06587058551781144
8.351893095768375,-0.09823166863806738
8.385300668151448,-0.30355142374412775
8.418708240534523,-0.5187796393150398
8.452115812917596,-0.6947015105784957
8.485523385300668,-0.774438043609597
8.518930957683743,-0.7136083686779542
8.552338530066816,-0.5025942433490237
8.585746102449889,-0.17918065715309328
8.619153674832964,0.1777077221268725
8.652561247216036,0.4738202034318892
8.68596881959911,0.6349188850294419
8.719376391982184,0.6351356374176053
8.752783964365257,0.5040998327803403
8.78619153674833,0.3091779406008395
8.819599109131405,0.12235088698480948
8.853006681514477,-0.010740686460461269
8.88641425389755,-0.08409150999538419
8.919821826280625,-0.12224056216395138
8.953229398663698,-0.15685692550924618
8.98663697104677,-0.20416283121410966
9.020044543429846,-0.2559545272319397
9.053452115812918,-0.2873543940327806
9.086859688195991,-0.2740693391416245
9.120267260579066,-0.20721050350313944
9.153674832962139,-0.09695258907356875
9.187082405345212,0.035394360496206874
9.220489977728286,0.16978110540983565
9.25389755011136,0.29517194236627003
9.287305122494432,0.40788578659774244
9.320712694877507,0.5030148149485757
9.35412026726058,0.5665115326377704
9.387527839643653,0.5751588514170208
9.420935412026727,0.5062245126003373
9.4543429844098,0.3518323620346116
9.487750556792873,0.12935114813098367
9.521158129175948,-0.11927194305205778
9.55456570155902,-0.3403510066347495
9.587973273942094,-0.48785461888748427
9.621380846325168,-0.5400703944149241
9.654788418708241,-0.5056663509758187
9.688195991091314,-0.41686268269780447
9.721603563474389,-0.31399634479102784
9.755011135857462,-0.2296452885844801
9.788418708240535,-0.17967249730249102
9.82182628062361,-0.16384475016517858
9.855233853006682,-0.1730923345622471
9.888641425389755,-0.19732424223224695
9.92204899777283,-0.2286262320951901
9.955456570155903,-0.258740830472975
9.988864142538976,-0.27423791469096875
10.02227171492205,-0.25488179478535017
10.055679287305123,-0.17901535473761393
10.089086859688196,-0.03515625268197805
10.12249443207127,0.165911695462877
10.155902004454344,0.3863627444316934
10.189309576837417,0.5691821924085774
10.222717149220491,0.657705495205971
10.256124721603564,0.6191630746675
10.289532293986637,0.461268605341773
10.322939866369712,0.23325368299889265
10.356347438752785,0.009757431835080614
10.389755011135858,-0.13603153126041423
10.423162583518932,-0.15872484725396896
10.456570155902005,-0.05582934043980911
10.489977728285078,0.13389611337456422
10.523385300668153,0.347027640573363
10.556792873051226,0.5192066676042697
10.590200445434299,0.605925340091723
10.623608017817373,0.5925376057482933
10.657015590200446,0.49136406899305624
10.69042316258352,0.3300768612027206
10.723830734966594,0.13909641086974833
10.757238307349667,-0.055514529349191724
10.790645879732741,-0.23227700328271256
10.824053452115814,-0.3716223412912544
10.857461024498887,-0.45608491085909436
10.890868596881962,-0.4761105888194822
10.924276169265035,-0.4387489129605773
10.957683741648108,-0.3726620298941029
10.991091314031182,-0.3235452513153816
11.024498886414255,-0.3389267644282469
11.057906458797328,-0.44746619831806983
11.091314031180403,-0.6418074398630395
11.124721603563476,-0.8736860785720086
11.158129175946549,-1.0654682496296675
11.191536748329623,-1.1355154061859363
11.224944320712696,-1.0284980237281436
11.25835189309577,-0.7386937966267825
11.291759465478844,-0.31606516683817565
11.325167037861917,0.1486559176002382
11.35857461024499,0.554881492308802
11.391982182628064,0.8268229233202693
11.425389755011137,0.9375200300325295
11.45879732739421,0.9123830212108462
11.492204899777285,0.8116864005773523
11.525612472160358,0.701061499468341
11.55902004454343,0.6240994883768219
11.592427616926505,0.5891927258018811
11.625835189309578,0.5749650292399644
11.659242761692651,0.5493020557735212
11.692650334075726,0.4908599460933743
11.726057906458799,0.4017823471392736
11.759465478841872,0.30576745918673004
11.792873051224946,0.23350074339784171
11.82628062360802,0.2037959554016968
11.859688195991092,0.21064416801770836
11.893095768374167,0.22319011582139092
11.92650334075724,0.19922594524787585
11.959910913140313,0.10616717811086039
11.993318485523387,-0.06044700549347259
12.02672605790646,-0.2703888779108818
12.060133630289533,-0.4685966018251934
12.093541202672608,-0.5982346200916875
12.12694877505568,-0.6266603221406158
12.160356347438753,-0.5613481502177704
12.193763919821828,-0.4468831447272321
12.227171492204901,-0.3436374382649936
12.260579064587974,-0.29874027427092376
12.293986636971049,-0.3244481332196694
12.327394209354122,-0.3949603420282819
12.360801781737194,-0.4623706320394598
12.39420935412027,-0.4820851602913829
12.427616926503342,-0.4337937803983235
12.461024498886415,-0.32790453098693
12.49443207126949,-0.19612490084922915
12.527839643652563,-0.0730370511760679
12.561247216035635,0.02110296407968538
12.59465478841871,0.08817345422791384
12.628062360801783,0.1477648474803203
12.661469933184856,0.22340396716254107
12.69487750556793,0.326331030447616
12.728285077951004,0.44494133989140056
12.761692650334076,0.5458096900201298
12.795100222717151,0.5869348137920612
12.828507795100224,0.5374681973617971
12.861915367483297,0.394155182901112
12.895322939866372,0.1858535696470922
12.928730512249444,-0.036344151583728446
12.962138084632517,-0.21823373233028215
12.995545657015592,-0.32129406138037464
13.028953229398665,-0.33285951612575887
13.062360801781738,-0.2650438658202139
13.095768374164813,-0.14588909726277205
13.129175946547885,-0.00901275968724781
13.162583518930958,0.11356818348306712
13.195991091314033,0.1948339378013859
13.229398663697106,0.2150209085009551
13.262806236080179,0.1654517738951132
13.296213808463254,0.0536978544742595
13.329621380846326,-0.09361826593914967
13.3630289532294,-0.23494755896015465
13.396436525612474,-0.3263322307863777
13.429844097995547,-0.33823083221792893
13.46325167037862,-0.26828311860831744
13.496659242761694,-0.142104520819353
13.530066815144767,-4.459894853313651e-05
13.56347438752784,0.12396895570258683
13.596881959910915,0.21991789740633838
13.630289532293988,0.3050289656091999
13.66369710467706,0.4100562512237217
13.697104677060135,0.555479662189447
13.730512249443208,0.7309409259669608
13.763919821826281,0.8902439376146979
13.797327394209356,0.9663514962134943
13.830734966592429,0.9003257948017847
13.864142538975502,0.6706261467587876
13.897550111358576,0.30835145035688366
13.93095768374165,-0.10980888476442241
13.964365256124722,-0.48893886813350634
13.997772828507797,-0.7520261280180005
14.03118040089087,-0.8687682512676828
14.064587973273943,-0.8637845749268066
14.097995545657017,-0.8003028754479117
14.13140311804009,-0.747199073277212
14.164810690423163,-0.745721765329164
14.198218262806238,-0.7925379930668451
14.23162583518931,-0.8470757226545115
14.265033407572384,-0.8578284377974138
14.298440979955458,-0.7918502232318253
14.331848552338531,-0.6504664576540419
14.365256124721604,-0.46322724981442814
14.398663697104679,-0.2658403228987998
14.432071269487752,-0.0775410753737553
14.465478841870825,0.10709761398696024
14.4988864142539,0.30704260403081063
14.532293986636972,0.5324816461675334
14.565701559020045,0.7668071667849261
14.59910913140312,0.9656445211337208
14.632516703786193,1.074886003628433
14.665924276169266,1.0578831185910165
14.69933184855234,0.9163031061022483
14.732739420935413,0.6927151780769493
14.766146993318486,0.4532250054686513
14.79955456570156,0.25930022549031784
14.832962138084634,0.14333477796859276
14.866369710467707,0.09988178951923507
14.899777282850781,0.09571963618992156
14.933184855233854,0.09199106747308046
14.966592427616927,0.065833547301933
15.0,0.020017676426292555
