Time (s),Filtered Signal
0.0,0.018790791088516452
0.03337004405286344,-0.3980591062627053
0.06674008810572687,-0.682479696685537
0.10011013215859031,-0.7406490897126562
0.13348017621145375,-0.544019894867027
0.16685022026431717,-0.13490058586601925
0.20022026431718062,0.3886652082465236
0.23359030837004408,0.9025091037187447
0.2669603524229075,1.2910457924604402
0.3003303964757709,1.477414536675281
0.33370044052863435,1.440965749354216
0.3670704845814978,1.2171507310088217
0.40044052863436125,0.8799595347934815
0.43381057268722467,0.5133814950327396
0.46718061674008815,0.18320395821984875
0.5005506607929515,-0.07944514981801312
0.533920704845815,-0.27701213728476165
0.5672907488986785,-0.4297037809943486
0.6006607929515418,-0.5546763087439402
0.6340308370044053,-0.6515792158055833
0.6674008810572687,-0.7016587348734239
0.7007709251101322,-0.6801767437522757
0.7341409691629956,-0.5749207524120802
0.767511013215859,-0.4003672810728986
0.8008810572687225,-0.19915434308706476
0.834251101321586,-0.029006350071939684
0.8676211453744493,0.05909322107813477
0.9009911894273128,0.04102994742836098
0.9343612334801763,-0.07144162647926285
0.9677312775330397,-0.23627766114781634
1.001101321585903,-0.39760183157257384
1.0344713656387665,-0.505137892508697
1.06784140969163,-0.5290897172623171
1.1012114537444935,-0.46636600430078645
1.134581497797357,-0.3377343446169979
1.1679515418502202,-0.17777122804246184
1.2013215859030837,-0.02062242182852497
1.2346916299559472,0.11432377615621951
1.2680616740088106,0.23154085334810598
1.3014317180616741,0.3579110934675364
1.3348017621145374,0.5282587420590783
1.3681718061674009,0.7614696630495167
1.4015418502202643,1.0376325015990637
1.4349118942731278,1.289798762244808
1.4682819383259913,1.419654249247002
1.5016519823788548,1.3348564525250728
1.535022026431718,0.9926274314225056
1.5683920704845815,0.4277119243031717
1.601762114537445,-0.25155062515437987
1.6351321585903085,-0.8994570643212795
1.668502202643172,-1.3847302652456088
1.7018722466960352,-1.632974812733246
1.7352422907488987,-1.6407831895237919
1.7686123348017622,-1.4587136754833836
1.8019823788546256,-1.157002669822472
1.8353524229074891,-0.7951137855450613
1.8687224669603526,-0.41051068083288667
1.9020925110132159,-0.027910659785709734
1.9354625550660793,0.3229591137176267
1.9688325991189428,0.5973957839493612
2.002202643171806,0.7433371086882706
2.0355726872246698,0.7239576184733459
2.068942731277533,0.5424164578164057
2.1023127753303967,0.2537187534111063
2.13568281938326,-0.04513618711129521
2.1690528634361232,-0.24511118569951867
2.202422907488987,-0.2642633371945204
2.23579295154185,-0.08052832741712078
2.269162995594714,0.2559211423964739
2.302533039647577,0.637653857866745
2.3359030837004404,0.938241819743625
2.369273127753304,1.0590501592465564
2.4026431718061674,0.9647714566364606
2.436013215859031,0.6923049415854555
2.4693832599118943,0.3301611114452054
2.5027533039647576,-0.02017522727662715
2.5361233480176213,-0.28168959695232365
2.5694933920704845,-0.4218480871194113
2.6028634361233483,-0.45024156049034386
2.6362334801762115,-0.40103926794532335
2.6696035242290748,-0.3131168228637054
2.7029735682819385,-0.21790438750418178
2.7363436123348017,-0.13731505805585834
2.7697136563876654,-0.08737458406104463
2.8030837004405287,-0.08110491467130128
2.8364537444933924,-0.12678533501486194
2.8698237885462556,-0.22234142387093822
2.903193832599119,-0.3502434158646882
2.9365638766519826,-0.4778665685840613
2.969933920704846,-0.5654286281279339
3.0033039647577096,-0.5789820382869667
3.036674008810573,-0.5024437440168333
3.070044052863436,-0.34281862639188837
3.1034140969162998,-0.12675225824316244
3.136784140969163,0.10837771784105607
3.1701541850220267,0.3231665463600596
3.20352422907489,0.48097842815970093
3.2368942731277532,0.5498210571437302
3.270264317180617,0.5057313790236382
3.30363436123348,0.34110761754725477
3.337004405286344,0.07619064360981977
3.370374449339207,-0.23379571678633518
3.4037444933920704,-0.5046864122501111
3.437114537444934,-0.6461600924685685
3.4704845814977974,-0.5952073377081857
3.503854625550661,-0.34604420171662237
3.5372246696035243,0.03893925482989986
3.5705947136563876,0.4452455118492763
3.6039647577092513,0.7451503492654072
3.6373348017621145,0.8444982604319372
3.6707048458149782,0.7185977219095759
3.7040748898678415,0.42259938672579245
3.737444933920705,0.07166309971832063
3.7708149779735685,-0.2021927344905777
3.8041850220264317,-0.3003995581448582
3.8375550660792954,-0.19550918553972527
3.8709251101321587,0.05947319796462916
3.9042951541850224,0.3544624184720783
3.9376651982378856,0.5684211471646893
3.971035242290749,0.6178272843017818
4.004405286343612,0.48623021991775073
4.037775330396476,0.22330735836827298
4.0711453744493395,-0.08305413888193022
4.104515418502203,-0.34577295128274416
4.137885462555066,-0.5097178861796997
4.171255506607929,-0.5630441014147299
4.2046255506607935,-0.5288033430126744
4.237995594713657,-0.44634689623544244
4.27136563876652,-0.353948345952814
4.304735682819383,-0.27906381883605136
4.3381057268722465,-0.23570081144619873
4.371475770925111,-0.22470346436011746
4.404845814977974,-0.23406084507522915
4.438215859030837,-0.24008058569145735
4.4715859030837,-0.21236199841589487
4.504955947136564,-0.12386846490097575
4.538325991189428,0.03655266438182921
4.571696035242291,0.2548079221406522
4.605066079295154,0.4906052185667921
4.638436123348018,0.6867708189632689
4.671806167400881,0.7863516371701824
4.705176211453745,0.7518135529044977
4.738546255506608,0.5795785279720739
4.7719162995594715,0.30424988364202976
4.805286343612335,-0.01016253952975207
4.838656387665198,-0.2903541681461268
4.872026431718062,-0.4787409096297803
4.905396475770925,-0.5535944074523896
4.938766519823789,-0.534868218757152
4.972136563876652,-0.4715866544019762
5.005506607929515,-0.4154662628982589
5.038876651982379,-0.39341317298088085
5.072246696035243,-0.39362901830271224
5.105616740088106,-0.3738598679038737
5.138986784140969,-0.28833314250342484
5.172356828193832,-0.11874455538831771
5.2057268722466965,0.10875679758709413
5.23909691629956,0.3314380341862883
5.272466960352423,0.47933302132370165
5.305837004405286,0.5098052773490173
5.3392070484581495,0.4276202286219624
5.372577092511014,0.2793739306932939
5.405947136563877,0.12652272188880248
5.43931718061674,0.013764192136702689
5.4726872246696034,-0.04878227292339324
5.506057268722468,-0.08096537016055481
5.539427312775331,-0.11134284638626156
5.572797356828194,-0.15445271631932117
5.606167400881057,-0.2006071688931335
5.639537444933921,-0.22241891997502586
5.672907488986785,-0.1913856531035348
5.706277533039648,-0.09312436249031031
5.739647577092511,0.06670740789962426
5.7730176211453745,0.2660536631652422
5.806387665198238,0.47415167621309023
5.839757709251102,0.6575880618278382
5.873127753303965,0.7832120663144044
5.9064977973568284,0.8205618023028307
5.939867841409692,0.7470644702492579
5.973237885462555,0.5562581088371101
6.006607929515419,0.26551797779563147
6.039977973568282,-0.08168403840280626
6.073348017621146,-0.42216532608990065
6.106718061674009,-0.6875591184287392
6.140088105726872,-0.8230083913102018
6.173458149779736,-0.8041198918500366
6.2068281938325995,-0.6461540165300713
6.240198237885463,-0.4010883198273125
6.273568281938326,-0.141732485799009
6.306938325991189,0.06282068566195538
6.3403083700440535,0.17114401991974887
6.373678414096917,0.18177785480441838
6.40704845814978,0.12688326851741893
6.440418502202643,0.04961638256429875
6.4737885462555065,-0.0224696172752996
6.507158590308371,-0.09192298144484067
6.540528634361234,-0.18402970107298197
6.573898678414097,-0.3215069156370418
6.60726872246696,-0.49768566044200824
6.640638766519824,-0.6670930466812136
6.674008810572688,-0.762117241741816
6.707378854625551,-0.7275545091947935
6.740748898678414,-0.5523636102283523
6.774118942731278,-0.2785065303339726
6.807488986784141,0.019501547260404106
6.840859030837005,0.27242013984313457
6.874229074889868,0.44859843301427904
6.9075991189427315,0.561464703316323
6.940969162995595,0.648804212813726
6.974339207048458,0.7384478835831295
7.007709251101322,0.8234563311845009
7.041079295154185,0.8633823244670966
7.074449339207049,0.811010622875682
7.107819383259912,0.6472553106651651
7.141189427312775,0.40137663952629665
7.174559471365639,0.14272773621154428
7.207929515418503,-0.05217797328167917
7.241299559471366,-0.1385854131608707
7.274669603524229,-0.12641507180488126
7.308039647577092,-0.0747024821441695
7.3414096916299565,-0.060909318579754096
7.37477973568282,-0.1412555812032432
7.408149779735683,-0.3216051175857824
7.441519823788546,-0.5519645571974032
7.47488986784141,-0.7458991789671084
7.508259911894274,-0.8153380476272043
7.541629955947137,-0.7058717231468259
7.575,-0.4189824005876288
7.608370044052863,-0.013923767760860982
7.641740088105728,0.41011394029986736
7.675110132158591,0.7444900386495193
7.708480176211454,0.9040304537284194
7.741850220264317,0.8524219492480597
7.775220264317181,0.6128989151140044
7.808590308370045,0.2612189070153521
7.841960352422908,-0.09725466861195717
7.875330396475771,-0.35982257280152474
7.9087004405286345,-0.4581637790926387
7.942070484581498,-0.37915723462497636
7.975440528634362,-0.16783471185717563
8.008810572687224,0.08828863665448655
8.042180616740088,0.2877513779656866
8.075550660792953,0.3468403899350603
8.108920704845815,0.22472252415811356
8.142290748898679,-0.06452622118259296
8.175660792951541,-0.4552194853541841
8.209030837004406,-0.8472028035693596
8.24240088105727,-1.1326866591214284
8.275770925110132,-1.226540501728821
8.309140969162996,-1.0921974160953756
8.342511013215859,-0.7550434525463585
8.375881057268723,-0.29757457621632294
8.409251101321587,0.1639503189223825
8.44262114537445,0.5147995413940011
8.475991189427313,0.6773528676040723
8.509361233480176,0.6347034672534273
8.54273127753304,0.43431992217937637
8.576101321585904,0.17105305522906727
8.609471365638766,-0.044236017342861055
8.64284140969163,-0.1199649523749904
8.676211453744493,-0.01217683306320505
8.709581497797357,0.2620353448782231
8.742951541850221,0.6292325137075858
8.776321585903084,0.9805953908651839
8.809691629955948,1.2032070078477979
8.84306167400881,1.213331824008367
8.876431718061674,0.9828556559891611
8.909801762114538,0.5512781702070682
8.9431718061674,0.0185579444531958
8.976541850220265,-0.4812736577906211
9.009911894273127,-0.8198420740517686
9.043281938325991,-0.9157521984235534
9.076651982378856,-0.7627222890706395
9.110022026431718,-0.43231533751862355
9.143392070484582,-0.047870082218658475
9.176762114537445,0.26161763154765927
9.210132158590309,0.4091165514981539
9.243502202643173,0.3782172985068208
9.276872246696035,0.22032366789740027
9.3102422907489,0.02257096080020013
9.343612334801762,-0.1370597655670528
9.376982378854626,-0.22466151385776426
9.41035242290749,-0.2580657036087236
9.443722466960352,-0.2848332695217674
9.477092511013216,-0.3446293379649128
9.510462555066079,-0.43887897261036785
9.543832599118943,-0.5263597961202678
9.577202643171807,-0.547995785438135
9.61057268722467,-0.4663333833255806
9.643942731277534,-0.29564238873707005
9.677312775330396,-0.10324438000593929
9.71068281938326,0.021059675276609936
9.744052863436124,0.012262808650033015
9.777422907488987,-0.1309555886567831
9.81079295154185,-0.337049136544435
9.844162995594713,-0.4886748151715127
9.877533039647577,-0.47474425766657924
9.910903083700441,-0.2439883302602238
9.944273127753304,0.1647977457731129
9.977643171806168,0.6309452709059529
10.01101321585903,0.9970516930706073
10.044383259911895,1.1330255874426498
10.077753303964759,0.9916994130800081
10.111123348017621,0.6312020048921477
10.144493392070485,0.1931536395708286
10.177863436123348,-0.15490036909534508
10.211233480176212,-0.28835195804921826
10.244603524229076,-0.1759917163203412
10.277973568281938,0.10949898031756923
10.311343612334802,0.42481061070954296
10.344713656387665,0.617586806296885
10.378083700440529,0.5890727989098484
10.411453744493393,0.33142299073781123
10.444823788546255,-0.07412217861099646
10.47819383259912,-0.49411109423542104
10.511563876651982,-0.7963275172560254
10.544933920704846,-0.8967157163061958
10.57830396475771,-0.7827133199268079
10.611674008810573,-0.5081677398718437
10.645044052863437,-0.16689073216027778
10.678414096916299,0.14164239256509684
10.711784140969163,0.34133710033562836
10.745154185022027,0.395448593713684
10.77852422907489,0.30835414389519167
10.811894273127754,0.117036654637294
10.845264317180618,-0.12196012209196737
10.87863436123348,-0.34545382331117935
10.912004405286345,-0.4944232202286769
10.945374449339207,-0.5230765848596376
10.978744493392071,-0.40736798416735476
11.012114537444935,-0.1529991175813219
11.045484581497798,0.19935295826457602
11.078854625550662,0.5757474939058459
11.112224669603524,0.8815868692241833
11.145594713656388,1.0257024497504748
11.178964757709252,0.9505871550508959
11.212334801762115,0.6577384960791206
11.245704845814979,0.21551570993880806
11.279074889867841,-0.257886884909998
11.312444933920705,-0.6329982445642222
11.34581497797357,-0.8147769473605689
11.379185022026432,-0.7761914129279986
11.412555066079296,-0.5649928303754079
11.445925110132158,-0.2810012986411843
11.479295154185023,-0.0344413922708596
11.512665198237887,0.09627076045585006
11.546035242290749,0.08980805508863493
11.579405286343613,-0.01852670030057984
11.612775330396476,-0.15992095154535876
11.64614537444934,-0.26531973522473823
11.679515418502204,-0.2934523687022307
11.712885462555066,-0.24260102486830237
11.74625550660793,-0.14381712633377794
11.779625550660793,-0.0416711400797348
11.812995594713657,0.027182025062033977
11.846365638766521,0.04843129410810508
11.879735682819383,0.03304682126847153
11.913105726872248,0.009595860719994598
11.94647577092511,0.010393345071194998
11.979845814977974,0.057003804685345154
12.013215859030838,0.14990095891818322
12.0465859030837,0.26574929170984346
12.079955947136565,0.36414354595050263
12.113325991189427,0.4031497068741329
12.146696035242291,0.3592728261140024
12.180066079295155,0.24369264250661032
12.213436123348018,0.10541579364027642
12.246806167400882,0.015785725830098716
12.280176211453744,0.037361132178215156
12.313546255506608,0.1897325916778762
12.346916299559473,0.4296290844898
12.380286343612335,0.6585350045088985
12.413656387665199,0.7587250100085264
12.447026431718061,0.6440403712162367
12.480396475770926,0.30277269382192906
12.51376651982379,-0.18810338346625982
12.547136563876652,-0.6859267992576865
12.580506607929516,-1.0345244742953816
12.613876651982379,-1.1243157567700388
12.647246696035243,-0.9352739300484868
12.680616740088107,-0.5446808021134852
12.71398678414097,-0.09623569967556801
12.747356828193833,0.2568585055339465
12.780726872246696,0.41127154133541627
12.81409691629956,0.35055211517640955
12.847466960352424,0.1442447646593691
12.880837004405286,-0.08985178147814137
12.91420704845815,-0.2424078639732795
12.947577092511013,-0.26133111746688553
12.980947136563877,-0.16959170478981672
13.014317180616741,-0.044865530658388705
13.047687224669604,0.026659310897259866
13.081057268722468,-0.002828205466851404
13.11442731277533,-0.11936481389611066
13.147797356828194,-0.2577525750485085
13.181167400881058,-0.33806968106341734
13.21453744493392,-0.30731784455464567
13.247907488986785,-0.16445627212794484
13.281277533039647,0.04242877484626134
13.314647577092511,0.24268149341716355
13.348017621145376,0.3774340958930778
13.381387665198238,0.4234760946233898
13.414757709251102,0.39580308872211273
13.448127753303964,0.3305216698350351
13.481497797356829,0.2603104555152065
13.514867841409693,0.19762175756526987
13.548237885462555,0.13494868960311263
13.58160792951542,0.06031251613481381
13.614977973568282,-0.02379339864256915
13.648348017621146,-0.09236063260810555
13.68171806167401,-0.10837330165278279
13.715088105726872,-0.047197934930516015
13.748458149779736,0.08019097279584124
13.781828193832599,0.22169745186033435
13.815198237885463,0.3036246498100832
13.848568281938327,0.2674708346186121
13.88193832599119,0.10440843112949653
13.915308370044054,-0.13290416437502164
13.948678414096916,-0.349935094965546
13.98204845814978,-0.4527415722506502
14.015418502202644,-0.3920670400314348
14.048788546255507,-0.1872424343556908
14.08215859030837,0.0809487250918655
14.115528634361233,0.3038590617473055
14.148898678414097,0.3890835478363399
14.182268722466961,0.2964543283600052
14.215638766519824,0.05254443171445714
14.249008810572688,-0.2603291352804602
14.28237885462555,-0.5351188350496727
14.315748898678414,-0.678800049045314
14.349118942731279,-0.6442653884106644
14.382488986784141,-0.44374695022945004
14.415859030837005,-0.13973989875425968
14.449229074889868,0.18125666025281323
14.482599118942732,0.4400172555530206
14.515969162995596,0.5878075614256918
14.549339207048458,0.6138417052371423
14.582709251101322,0.5377591803276311
14.616079295154185,0.3946394786421962
14.649449339207049,0.22157475338219926
14.682819383259913,0.050993225274161086
14.716189427312775,-0.09011703925482066
14.74955947136564,-0.18003399462643066
14.782929515418502,-0.20572291415550906
14.816299559471366,-0.17003448629904544
14.84966960352423,-0.09775871886663234
14.883039647577093,-0.033623705215325615
14.916409691629957,-0.028435872742320317
14.94977973568282,-0.11646969279415968
14.983149779735683,-0.29397521580811925
15.016519823788547,-0.5109412729754917
15.04988986784141,-0.6838373637113134
15.083259911894274,-0.7273351528739654
15.116629955947138,-0.5925722083254311
15.15,-0.29407387347817115
15.183370044052865,0.08923183353897676
15.216740088105727,0.4420263266519493
15.250110132158591,0.6585317545146734
15.283480176211455,0.6857620019293451
15.316850220264318,0.5441910471361932
15.350220264317182,0.31677104138471224
15.383590308370044,0.11240851707182334
15.416960352422908,0.021357863606015545
15.450330396475772,0.0818768822027683
15.483700440528635,0.270006887566493
15.517070484581499,0.5127609767073862
15.550440528634361,0.7159580599832197
15.583810572687225,0.7951431340772322
15.61718061674009,0.7005883171879868
15.650550660792952,0.4315622330682
15.683920704845816,0.03785906592073449
15.717290748898678,-0.3921124265117483
15.750660792951543,-0.7554729060117404
15.784030837004407,-0.9660652897115766
15.817400881057269,-0.9828417751442059
15.850770925110133,-0.8238974647398931
15.884140969162996,-0.5587835149782437
15.91751101321586,-0.2809581762888284
15.950881057268724,-0.07181820839068528
15.984251101321586,0.02787456290655265
16.01762114537445,0.026921901269105243
16.050991189427315,-0.029593101306725208
16.084361233480177,-0.08768175519559489
16.11773127753304,-0.11155542240448478
16.151101321585905,-0.09724123867848777
16.184471365638768,-0.06717544317662912
16.21784140969163,-0.050400100218707757
16.251211453744492,-0.060398722337691294
16.284581497797358,-0.08350189121068188
16.31795154185022,-0.08473205911571541
16.351321585903083,-0.028066329806688516
16.38469162995595,0.10037567804765797
16.41806167400881,0.2799555125192698
16.451431718061674,0.4619775403294626
16.48480176211454,0.5921276614874331
16.518171806167402,0.6362260205799265
16.551541850220264,0.5941604511133721
16.584911894273127,0.4938384474179235
16.618281938325993,0.3695138917286287
16.651651982378855,0.2390818469651511
16.685022026431717,0.09605573652148175
16.718392070484583,-0.07732746679590727
16.751762114537446,-0.28368517488162953
16.785132158590308,-0.48887559667731856
16.818502202643174,-0.6226873626204041
16.851872246696036,-0.6071190909811478
16.8852422907489,-0.4002734538833136
16.91861233480176,-0.031818678580107916
16.951982378854627,0.3928653259432416
16.98535242290749,0.7276303282025074
17.01872246696035,0.8460596503365005
17.052092511013218,0.6985958127022067
17.08546255506608,0.33717315309513307
17.118832599118942,-0.10607437580351431
17.152202643171808,-0.47634342500782884
17.18557268722467,-0.6622523510229016
17.218942731277533,-0.6392926835286745
17.2523127753304,-0.4715753796013732
17.28568281938326,-0.2736752747563131
17.319052863436124,-0.15321216072654043
