Frequency (Hz),Amplitude
0.0,5.993325146238906
0.01978021978021978,5.991955114530952
0.03956043956043956,5.98784852281362
0.05934065934065934,5.981015884179618
0.07912087912087912,5.971474730003523
0.0989010989010989,5.959249624186952
0.11868131868131868,5.944372182926479
0.13846153846153844,5.926881099815905
0.15824175824175823,5.906822176021884
0.17802197802197803,5.884248355184323
0.1978021978021978,5.859219762587353
0.21758241758241756,5.831803748017883
0.23736263736263735,5.80207493157321
0.2571428571428572,5.770115251491649
0.2769230769230769,5.7360140128552395
0.2967032967032967,5.699867935746532
0.31648351648351647,5.661781201125703
0.3362637362637363,5.621865492324738
0.35604395604395606,5.58024002962643
0.3758241758241758,5.53703159490224
0.3956043956043956,5.492374542721219
0.4153846153846154,5.4464107937091875
0.4351648351648351,5.39928980523411
0.45494505494505494,5.351168513722905
0.4747252747252747,5.302211242085761
0.4945054945054945,5.252589564850357
0.5142857142857143,5.202482122712788
0.5340659340659341,5.152074377326241
0.5538461538461538,5.101558296315885
0.5736263736263736,5.051131957785395
0.5934065934065934,5.000999063038121
0.6131868131868132,4.9513683459592395
0.6329670329670329,4.902452867594836
0.6527472527472528,4.854469185030739
0.6725274725274726,4.80763638483727
0.6923076923076923,4.7621749732239325
0.7120879120879121,4.718305617747479
0.7318681318681318,4.6762477390204324
0.7516483516483516,4.636217955414702
0.7714285714285715,4.598428389226649
0.7912087912087912,4.563084849067036
0.810989010989011,4.530384910167146
0.8307692307692308,4.500515921554255
0.8505494505494506,4.473652976242836
0.8703296703296702,4.44995688722145
0.8901098901098901,4.429572217536561
0.9098901098901099,4.412625416616798
0.9296703296703297,4.399223116620009
0.9494505494505494,4.389450641606449
0.9692307692307692,4.38337077850301
0.989010989010989,4.381022852109265
1.0087912087912088,4.382422137044134
1.0285714285714287,4.387559628034069
1.0483516483516484,4.396402177007752
1.0681318681318681,4.4088929919496085
1.087912087912088,4.424952479296087
1.1076923076923075,4.444479399719781
1.1274725274725275,4.467352297192434
1.1472527472527472,4.493431153799192
1.1670329670329669,4.522559218197891
1.1868131868131868,4.55456495392524
1.2065934065934065,4.589264054758105
1.2263736263736265,4.626461477666164
1.2461538461538462,4.665953449040057
1.2659340659340659,4.707529406283709
1.2857142857142858,4.750973843960775
1.3054945054945055,4.796068040971929
1.3252747252747252,4.842591652285777
1.3450549450549452,4.890324155226716
1.3648351648351649,4.939046146018167
1.3846153846153846,4.988540487067666
1.4043956043956045,5.038593309322519
1.4241758241758242,5.088994876948344
1.443956043956044,5.139540323660265
1.4637362637362636,5.190030271370961
1.4835164835164834,5.240271342527076
1.5032967032967033,5.290076577705366
1.523076923076923,5.339265769846787
1.542857142857143,5.387665726022712
1.5626373626373626,5.435110466943252
1.5824175824175823,5.4814413736066445
1.6021978021978023,5.526507289611762
1.621978021978022,5.570164586759019
1.6417582417582417,5.612277200682908
1.6615384615384616,5.652716642417152
1.6813186813186813,5.691361991006525
1.7010989010989013,5.72809987155808
1.720879120879121,5.762824422473529
1.7406593406593405,5.795437255024033
1.7604395604395604,5.825847407917836
1.7802197802197801,5.85397129906573
1.7999999999999998,5.879732676364804
1.8197802197802198,5.903062568991567
1.8395604395604395,5.92389924041633
1.8593406593406594,5.942188144114885
1.879120879120879,5.957881882756668
1.8989010989010988,5.970940171484587
1.9186813186813187,5.981329805766038
1.9384615384615385,5.9890246341826305
1.9582417582417584,5.994005536433698
1.978021978021978,5.996260406751529
1.9978021978021978,5.995784142861417
2.0175824175824175,5.99257864056287
2.0373626373626372,5.986652793957477
2.0571428571428574,5.978022501299651
2.076923076923077,5.966710676397019
2.096703296703297,5.952747265433413
2.1164835164835165,5.936169269026835
2.1362637362637362,5.917020769263957
2.1560439560439564,5.895352961367943
2.175824175824176,5.871224189554485
2.195604395604396,5.844699986507393
2.215384615384615,5.815853115756055
2.2351648351648348,5.784763616057595
2.254945054945055,5.7515188466718525
2.2747252747252746,5.716213532162151
2.2945054945054943,5.678949805053727
2.314285714285714,5.639837244329267
2.3340659340659338,5.5989929073319225
2.353846153846154,5.556541352175591
2.3736263736263736,5.512614647226521
2.3934065934065933,5.467352363616828
2.413186813186813,5.420901546079152
2.4329670329670328,5.373416656656179
2.452747252747253,5.325059485045423
2.4725274725274726,5.275999018502956
2.4923076923076923,5.226411263369028
2.512087912087912,5.1764790094239235
2.5318681318681318,5.126391527473133
2.5516483516483515,5.076344189850169
2.5714285714285716,5.026538002977823
2.5912087912087913,4.977179040825202
2.610989010989011,4.928477768131132
2.6307692307692307,4.880648242739799
2.6505494505494505,4.833907187424759
2.6703296703296706,4.7884729232747665
2.6901098901098903,4.744564159185358
2.70989010989011,4.702398635325512
2.7296703296703297,4.662191622675771
2.7494505494505495,4.6241542858548055
2.769230769230769,4.588491922385177
2.7890109890109893,4.555402098128885
2.808791208791209,4.525072705583925
2.8285714285714287,4.497679978709916
2.8483516483516484,4.473386504490605
2.8681318681318677,4.452339277026318
2.887912087912088,4.434667844037706
2.9076923076923076,4.420482597741139
2.9274725274725273,4.409873261701379
2.947252747252747,4.402907622207542
2.9670329670329667,4.399630546885438
2.986813186813187,4.400063324822118
3.0065934065934066,4.40420335184939
3.0263736263736263,4.412024172441689
3.046153846153846,4.423475876721374
3.0659340659340657,4.4384858382033325
3.085714285714286,4.456959766013385
3.1054945054945056,4.478783035140655
3.1252747252747253,4.50382225041812
3.145054945054945,4.531926994723391
3.1648351648351647,4.562931709469158
3.184615384615385,4.596657655687958
3.2043956043956046,4.632914906599962
3.2241758241758243,4.671504327033309
3.243956043956044,4.712219500920565
3.2637362637362637,4.754848574780768
3.2835164835164834,4.799175992108876
3.3032967032967036,4.844984100497569
3.3230769230769233,4.892054619769512
3.342857142857143,4.940169965157879
3.3626373626373627,4.989114424493463
3.3824175824175824,5.038675192376311
3.4021978021978025,5.088643267433421
3.4219780219780223,5.138814221049206
3.441758241758242,5.188988847489908
3.4615384615384617,5.238973706235723
3.481318681318681,5.288581567698176
3.501098901098901,5.337631773447083
3.520879120879121,5.385950521703621
3.5406593406593405,5.433371088263839
3.5604395604395602,5.479733992277818
3.58021978021978,5.524887115485185
3.5999999999999996,5.568685782647784
3.61978021978022,5.61099281006226
3.6395604395604395,5.651678528206081
3.659340659340659,5.690620783789086
3.679120879120879,5.727704925760159
3.6989010989010986,5.762823779162231
3.718681318681319,5.795877610139794
3.7384615384615385,5.8267740848817775
3.758241758241758,5.855428224825445
3.7780219780219784,5.881762360050255
3.7978021978021976,5.905706082449103
3.8175824175824173,5.927196199973143
3.8373626373626375,5.946176692999274
3.8571428571428568,5.962598673661701
3.876923076923077,5.976420348815207
3.896703296703296,5.98760698715271
3.916483516483517,5.996130890879811
3.936263736263736,6.001971372248427
3.956043956043956,6.005114735168369
3.9758241758241755,6.005554262044309
3.9956043956043956,6.003290205924106
4.015384615384615,5.998329787988405
4.035164835164835,5.990687200358986
4.054945054945055,5.980383614150295
4.0747252747252745,5.967447192632647
4.094505494505494,5.951913109313617
4.114285714285715,5.9338235706726215
4.134065934065934,5.913227843199583
4.153846153846154,5.890182284288508
4.173626373626373,5.8647503764163895
4.193406593406594,5.837002763893959
4.213186813186813,5.807017291302049
4.232967032967033,5.774879042522381
4.252747252747253,5.7406803790282055
4.2725274725274724,5.704520975814732
4.292307692307692,5.666507853016085
4.312087912087913,5.626755400869646
4.331868131868132,5.5853853952465125
4.351648351648352,5.542527000464475
4.371428571428571,5.4983167555356935
4.391208791208792,5.452898539375307
4.410989010989011,5.406423509812556
4.43076923076923,5.35905001050998
4.450549450549451,5.3109434391210915
4.4703296703296695,5.262276069221262
4.49010989010989,5.213226817758223
4.50989010989011,5.163980949023041
4.52967032967033,5.114729705488309
4.549450549450549,5.065669855356762
4.569230769230769,5.017003146383007
4.589010989010989,4.968935655558301
4.608791208791209,4.921677024677926
4.628571428571428,4.875439572744722
4.648351648351649,4.830437277703321
4.6681318681318675,4.7868846222430665
4.687912087912088,4.744995301430064
4.707692307692308,4.70498079377538
4.7274725274725276,4.6670488020144445
4.747252747252747,4.6314015752961755
4.767032967032967,4.59823413051748
4.786813186813187,4.5677323969587995
4.806593406593407,4.540071314861576
4.826373626373626,4.515412924737048
4.846153846153847,4.493904489546477
4.8659340659340655,4.4756766959539105
4.885714285714286,4.46084198315179
4.905494505494506,4.449493047892186
4.9252747252747255,4.441701572046594
4.945054945054945,4.437517214160295
4.964835164835165,4.436966899169472
4.984615384615385,4.44005443103499
5.004395604395604,4.44676044204277
5.024175824175824,4.457042680614583
5.043956043956045,4.470836627444245
5.0637362637362635,4.4880564184151375
5.083516483516483,4.508596042789059
5.103296703296703,4.532330777165725
5.123076923076923,4.559118810086931
5.142857142857143,4.588803009071455
5.162637362637362,4.621212781274757
5.182417582417583,4.656165980642825
5.2021978021978015,4.693470818001268
5.221978021978022,4.732927735531161
5.241758241758242,4.774331213041847
5.2615384615384615,4.817471479881564
5.281318681318681,4.862136112808247
5.301098901098901,4.908111506328398
5.320879120879121,4.955184207645556
5.340659340659341,5.003142113271398
5.36043956043956,5.051775528456041
5.380219780219781,5.100878093867292
5.3999999999999995,5.150247586424724
5.41978021978022,5.199686602941911
5.43956043956044,5.249003136339197
5.4593406593406595,5.298011054762696
5.479120879120879,5.3465304940846705
5.498901098901099,5.394388174063955
5.518681318681319,5.441417648000975
5.538461538461538,5.487459495105817
5.558241758241758,5.532361464073676
5.578021978021979,5.575978575581249
5.5978021978021975,5.618173190619482
5.617582417582418,5.658815050793211
5.637362637362637,5.6977812959671
5.6571428571428575,5.7349564639343855
5.676923076923077,5.770232476139176
5.696703296703297,5.803508612897972
5.716483516483517,5.834691481043376
5.736263736263735,5.863694976450672
5.756043956043956,5.890440243503409
5.775824175824176,5.914855633203233
5.795604395604395,5.936876661327147
5.815384615384615,5.956445967777154
5.835164835164835,5.973513278048564
5.854945054945055,5.988035367557688
5.874725274725275,5.999976029414534
5.894505494505494,6.009306046095181
5.914285714285715,6.016003165358716
5.934065934065933,6.020052080661004
5.953846153846154,6.021444416237679
5.973626373626374,6.02017871695955
5.993406593406593,6.016260443000664
6.013186813186813,6.009701969300295
6.032967032967033,6.0005225897417676
6.052747252747253,5.988748525910374
6.072527472527473,5.974412940226936
6.092307692307692,5.957555953179596
6.112087912087913,5.9382246642907575
6.131868131868131,5.9164731763561855
6.151648351648352,5.892362622374792
6.171428571428572,5.865961194447309
6.191208791208791,5.837344173756162
6.210989010989011,5.806593960542442
6.230769230769231,5.773800102766037
6.2505494505494505,5.739059321865822
6.270329670329671,5.702475533725543
6.29010989010989,5.66415986259253
6.309890109890111,5.6242306452877155
6.329670329670329,5.5828134225845
6.349450549450549,5.540040914118142
6.36923076923077,5.496052972619347
6.3890109890109885,5.450996512647506
6.408791208791209,5.405025408338497
6.428571428571428,5.3583003539910505
6.4483516483516485,5.310988680611361
6.468131868131868,5.263264120843672
6.487912087912088,5.215306514067114
6.507692307692308,5.167301442879094
6.527472527472527,5.1194397917661325
6.547252747252747,5.07191721854705
6.567032967032967,5.024933529235193
6.5868131868131865,4.978691947387675
6.606593406593407,4.93339826987754
6.626373626373626,4.889259902428655
6.6461538461538465,4.8464847702717835
6.665934065934065,4.805280101981477
6.685714285714286,4.765851087972248
6.705494505494506,4.72839941926885
6.725274725274725,4.6931217169623896
6.745054945054945,4.660207868102375
6.764835164835165,4.629839289460762
6.7846153846153845,4.6021871463698245
6.804395604395605,4.577410559341531
6.824175824175824,4.555654836031212
6.8439560439560445,4.537049769890871
6.863736263736263,4.521708049157883
6.883516483516484,4.509723820284039
6.903296703296704,4.5011714482680345
6.923076923076923,4.496104512493414
6.942857142857143,4.494555070645
6.962637362637362,4.4965332153184665
6.9824175824175825,4.502026938463331
7.002197802197802,4.511002308369068
7.021978021978022,4.5234039531723305
7.041758241758242,4.539155834513593
7.061538461538461,4.558162285652141
7.081318681318681,4.580309280602379
7.101098901098901,4.605465895076927
7.1208791208791204,4.6334859164286195
7.140659340659341,4.664209558404522
7.16043956043956,4.69746523722342
7.1802197802197805,4.733071367989842
7.199999999999999,4.770838144394972
7.21978021978022,4.810569269614015
7.23956043956044,4.8520636118713725
7.259340659340659,4.895116763922353
7.279120879120879,4.9395224913618065
7.298901098901099,4.985074059956509
7.318681318681318,5.031565436924705
7.338461538461539,5.078792365141233
7.358241758241758,5.12655331258162
7.3780219780219785,5.174650301936442
7.397802197802197,5.222889627270253
7.417582417582418,5.27108246593445
7.437362637362638,5.319045394753588
7.457142857142857,5.366600819877606
7.476923076923077,5.413577329715965
7.496703296703297,5.45980998012451
7.516483516483516,5.505140520574855
7.536263736263736,5.54941756946157
7.556043956043957,5.592496746045954
7.575824175824176,5.634240765837858
7.595604395604395,5.6745195055116415
7.615384615384615,5.713210042761713
7.635164835164835,5.750196675845282
7.654945054945055,5.785370926944978
7.674725274725275,5.818631532919544
7.694505494505494,5.849884426499446
7.7142857142857135,5.879042710526534
7.734065934065935,5.906026627431752
7.753846153846154,5.930763525789229
7.7736263736263735,5.953187825475624
7.793406593406592,5.973240982695979
7.813186813186814,5.990871455907757
7.832967032967034,6.006034673478155
7.852747252747252,6.018693003742453
7.872527472527472,6.028815727988864
7.892307692307693,6.036379016774004
7.912087912087912,6.041365909868967
7.931868131868132,6.043766300046278
7.951648351648351,6.043576920837973
7.971428571428572,6.040801338323474
7.991208791208791,6.035449946938077
8.010989010989011,6.027539969226967
8.03076923076923,6.017095459402506
8.05054945054945,6.004147310491011
8.07032967032967,5.988733264777095
8.09010989010989,5.970897927165216
8.10989010989011,5.950692780977024
8.129670329670331,5.928176205585613
8.149450549450549,5.90341349515118
8.169230769230769,5.87647687756286
8.189010989010988,5.847445532505676
8.20879120879121,5.816405607355625
8.22857142857143,5.783450229356417
8.248351648351647,5.748679512245417
8.268131868131867,5.712200555169787
8.287912087912087,5.674127431365794
8.307692307692308,5.63458116366149
8.327472527472528,5.593689683406712
8.347252747252746,5.5515877689355495
8.367032967032966,5.5084169591292245
8.386813186813187,5.464325437079425
8.406593406593407,5.419467878264619
8.426373626373627,5.3740052570614125
8.446153846153845,5.328104604841824
8.465934065934066,5.281938712384585
8.485714285714286,5.235685768891796
8.505494505494505,5.1895289295956335
8.525274725274725,5.143655803817911
8.545054945054945,5.098257855468686
8.564835164835165,5.053529708406398
8.584615384615384,5.009668349902128
8.604395604395604,4.966872226724828
8.624175824175826,4.925340230156047
8.643956043956043,4.885270568602079
8.663736263736263,4.84685952942541
8.683516483516483,4.810300135160359
8.703296703296704,4.775780703361963
8.723076923076924,4.74348332386277
8.742857142857142,4.713582272022516
8.762637362637362,4.686242381433923
8.782417582417583,4.661617404222765
8.802197802197803,4.639848391236566
8.821978021978023,4.621062127716784
8.84175824175824,4.605369662159202
8.86153846153846,4.59286496669131
8.881318681318682,4.583623766209864
8.901098901098901,4.577702570609316
8.920879120879121,4.575137939707282
8.940659340659339,4.575946004095028
8.96043956043956,4.580122257411521
8.98021978021978,4.587641626882159
9.0,4.598458819889599
9.01978021978022,4.612508935404622
9.03956043956044,4.629708320838038
9.05934065934066,4.649955647754266
9.079120879120879,4.67313317428259
9.098901098901099,4.699108158206132
9.11868131868132,4.727734382691296
9.138461538461538,4.758853756388259
9.158241758241758,4.792297951015498
9.178021978021977,4.827890042273307
9.197802197802199,4.865446123695489
9.217582417582419,4.904776867503829
9.237362637362637,4.945689011347172
9.257142857142856,4.9879867546895635
9.276923076923078,5.031473053313737
9.296703296703297,5.075950804739548
9.316483516483517,5.121223921192498
9.336263736263735,5.167098290022183
9.356043956043957,5.213382624137522
9.375824175824176,5.259889207106868
9.395604395604396,5.306434539105972
9.415384615384616,5.352839890942535
9.435164835164835,5.398931774010879
9.454945054945055,5.444542334305373
9.474725274725275,5.489509678615828
9.494505494505495,5.53367814080795
9.514285714285714,5.5768984957135395
9.534065934065934,5.619028127669197
9.553846153846154,5.659931160189282
9.573626373626373,5.699478552672287
9.593406593406593,5.737548169445356
9.613186813186815,5.774024825868964
9.632967032967032,5.808800315666215
9.652747252747252,5.84177342311883
9.672527472527472,5.872849923289587
9.692307692307693,5.901942572992254
9.712087912087913,5.9289710948351795
9.731868131868131,5.953862156312844
9.75164835164835,5.976549345608853
9.771428571428572,5.996973145501269
9.791208791208792,6.015080906523257
9.810989010989012,6.030826820325961
9.83076923076923,6.044171894011714
9.850549450549451,6.055083926051574
9.87032967032967,6.063537484267453
9.89010989010989,6.069513886242883
9.90989010989011,6.073001182424294
9.92967032967033,6.07399414208351
9.94945054945055,6.072494242229284
9.96923076923077,6.068509659477686
9.989010989010989,6.062055264816182
10.008791208791209,6.053152621120517
10.028571428571428,6.041829983205704
10.048351648351648,6.028122300108372
10.068131868131868,6.012071219206256
10.08791208791209,5.993725091677917
10.107692307692307,5.973138978689731
10.127472527472527,5.9503746575646055
10.147252747252747,5.925500627035411
10.167032967032966,5.8985921105121175
10.186813186813188,5.869731056093364
10.206593406593406,5.8390061318269195
10.226373626373626,5.806512714467742
10.246153846153845,5.77235286969448
10.265934065934067,5.736635321424335
10.285714285714286,5.699475407511642
10.305494505494504,5.660995018728382
10.325274725274724,5.621322517507087
10.345054945054946,5.580592632484043
10.364835164835165,5.538946324419514
10.384615384615385,5.496530618603714
10.404395604395603,5.453498398397046
10.424175824175824,5.410008154120046
10.443956043956044,5.366223681127953
10.463736263736264,5.322313720607377
10.483516483516484,5.2784515364545666
10.503296703296703,5.234814421580033
10.523076923076923,5.1915831271791655
10.542857142857143,5.148941208965852
10.562637362637362,5.1070742851388
10.582417582417584,5.066169201988843
10.602197802197802,5.026413104606774
10.621978021978022,4.987992412146933
10.641758241758241,4.951091699558251
10.661538461538463,4.915892490601518
10.681318681318682,4.882571970287395
10.7010989010989,4.85130162851404
10.72087912087912,4.822245850534651
10.740659340659342,4.795560473777788
10.760439560439561,4.771391334273352
10.780219780219781,4.749872829268012
10.799999999999999,4.731126525292777
10.819780219780219,4.715259842722451
10.83956043956044,4.702364848514824
10.85934065934066,4.692517188162509
