Frequency (Hz),Amplitude
0.0,0.7670524985755711
0.019823788546255508,0.7704695160122008
0.039647577092511016,0.7806173751820131
0.059471365638766524,0.7971996184876723
0.07929515418502203,0.819762095996602
0.09911894273127755,0.8477414673639888
0.11894273127753305,0.880515633128794
0.13876651982378857,0.9174475242532093
0.15859030837004406,0.9579178558309103
0.17841409691629956,1.0013462311084222
0.1982378854625551,1.0472023169260296
0.2180616740088106,1.0950097002568215
0.2378854625550661,1.1443449682888482
0.25770925110132165,1.1948340486655729
0.27753303964757714,1.2461472499797843
0.29735682819383263,1.2979939256132338
0.31718061674008813,1.3501172986425631
0.3370044052863437,1.402289725021943
0.3568281938325991,1.4543085091168189
0.37665198237885467,1.505992290690428
0.3964757709251102,1.557177971814531
0.41629955947136565,1.6077181287495805
0.4361233480176212,1.657478846186199
0.4559471365638767,1.7063379121419806
0.4757709251101322,1.7541833169025371
0.49559471365638774,1.8009120061677009
0.5154185022026433,1.8464288456301576
0.5352422907488987,1.8906457608737792
0.5550660792951543,1.9334810224247458
0.5748898678414097,1.9748586509245654
0.5947136563876653,2.014707921743003
0.6145374449339208,2.052962951980296
0.6343612334801763,2.0895623558158674
0.6541850220264318,2.1244489566385196
0.6740088105726874,2.1575695464258704
0.6938325991189428,2.188874684508991
0.7136563876651982,2.2183185292238616
0.7334801762114539,2.2458586970720806
0.7533039647577093,2.2714561449330604
0.7731277533039648,2.2950750716277026
0.7929515418502204,2.3166828357579967
0.8127753303964759,2.3362498872650588
0.8325991189427313,2.3537497105781373
0.8524229074889869,2.369158777586765
0.8722466960352424,2.382456508970577
0.8920704845814978,2.3936252426768196
0.9118942731277534,2.4026502085541783
0.931718061674009,2.4095195083396708
0.9515418502202644,2.414224100359852
0.9713656387665199,2.416757788453389
0.9911894273127755,2.417117214753914
1.0110132158590308,2.4153018560931416
1.0308370044052866,2.411314023899286
1.0506607929515421,2.4051588675768616
1.0704845814977975,2.396844381464646
1.090308370044053,2.3863814155822975
1.1101321585903086,2.373783690495275
1.1299559471365639,2.3590678167567813
1.1497797356828194,2.3422533195267223
1.1696035242290752,2.3233626691275586
1.1894273127753305,2.302421318477939
1.209251101321586,2.2794577485554215
1.2290748898678416,2.2545035232847135
1.248898678414097,2.227593355537098
1.2687224669603525,2.1987651862702147
1.288546255506608,2.1680602792480004
1.3083700440528636,2.135523334273334
1.3281938325991192,2.101202622460796
1.3480176211453747,2.0651501477963903
1.36784140969163,2.0274218401052244
1.3876651982378856,1.9880777856108116
1.4074889867841411,1.947182502565559
1.4273127753303965,1.9048052710122096
1.4471365638766522,1.861020527663613
1.4669603524229078,1.8159083392362092
1.4867841409691631,1.7695549704254596
1.5066079295154187,1.7220535661603298
1.5264317180616742,1.673504971911663
1.5462555066079295,1.6240187207341465
1.5660792951541853,1.5737142214296325
1.5859030837004409,1.5227221886726434
1.6057268722466962,1.4711863628956132
1.6255506607929517,1.4192655746129805
1.6453744493392073,1.3671362135030682
1.6651982378854626,1.3149951648038396
1.6850220264317182,1.2630632706332778
1.7048458149779737,1.211589355394283
1.7246696035242293,1.1608548123490814
1.7444933920704848,1.1111786673544388
1.7643171806167404,1.0629228937750668
1.7841409691629957,1.0164975218649388
1.8039647577092512,0.9723647376305123
1.8237885462555068,0.9310406856702486
1.8436123348017623,0.8930931092768817
1.863436123348018,0.8591324106110102
1.8832599118942732,0.829793488094026
1.9030837004405288,0.8057062832627847
1.9229074889867843,0.7874548709709228
1.9427312775330399,0.7755283408783239
1.9625550660792954,0.7702709256789412
1.982378854625551,0.7718419521208759
2.002202643171806,0.7801959224380697
2.0220264317180616,0.7950883859288274
2.041850220264317,0.8161058904398598
2.061674008810573,0.8427117780231428
2.0814977973568287,0.8742968651871157
2.1013215859030843,0.9102255406367487
2.1211453744493394,0.949871709717788
2.140969162995595,0.9926430313349747
2.1607929515418505,1.0379946513884726
2.180616740088106,1.085434889223569
2.2004405286343616,1.1345254832220435
2.220264317180617,1.1848785828386397
2.2400881057268722,1.2361520856253863
2.2599118942731278,1.2880443734065936
2.2797356828193833,1.340289080644629
2.299559471365639,1.392650235730168
2.319383259911895,1.4449179287104794
2.3392070484581504,1.496904547387657
2.3590308370044055,1.5484415623663201
2.378854625550661,1.5993768116469314
2.3986784140969166,1.649572223908292
2.418502202643172,1.6989019184613234
2.4383259911894277,1.747250623938259
2.4581497797356833,1.79451236414774
2.4779735682819384,1.8405893665224526
2.497797356828194,1.8853911553476705
2.5176211453744495,1.9288337980821921
2.537444933920705,1.9708392784211648
2.5572687224669606,2.011334974296528
2.577092511013216,2.050253222822873
2.5969162995594717,2.0875309573622567
2.6167400881057272,2.123109404493894
2.6365638766519828,2.156933830821706
2.6563876651982383,2.1889533313144094
2.676211453744494,2.2191206523167715
2.6960352422907494,2.2473920435551835
2.715859030837005,2.27372713443295
2.73568281938326,2.2980888307111518
2.7555066079295156,2.3204432283305287
2.775330396475771,2.340759541676136
2.7951541850220267,2.35901004404022
2.8149779735682823,2.375170018417132
2.834801762114538,2.389217717082196
2.854625550660793,2.401134328674515
2.874449339207049,2.41090395173264
2.8942731277533045,2.418513573828572
2.91409691629956,2.423953055616803
2.9339207048458156,2.4272151192662745
2.953744493392071,2.4282953408790693
2.9735682819383262,2.427192146624382
2.993392070484582,2.4239068124330156
3.0132158590308373,2.4184434672106923
3.033039647577093,2.4108090996396094
3.0528634361233484,2.401013568751342
3.072687224669604,2.389069618572472
3.092511013215859,2.374992897271649
3.1123348017621146,2.3588019813753736
3.1321585903083706,2.340518405775917
3.151982378854626,2.3201667004311015
3.1718061674008817,2.2977744348590337
3.1916299559471373,2.2733722717683067
3.2114537444933924,2.24699403144281
3.231277533039648,2.218676768830473
3.2511013215859035,2.188460865679679
3.270925110132159,2.1563901405390764
3.2907488986784146,2.1225119800055516
3.31057268722467,2.086877495292622
3.3303964757709252,2.049541709024676
3.350220264317181,2.0105637781754773
3.3700440528634363,1.970007260301825
3.389867841409692,1.927940431725027
3.4096916299559474,1.8844366681431572
3.4295154185022034,1.8395749003842028
3.4493392070484585,1.7934401607152288
3.469162995594714,1.7461242383919273
3.4889867841409696,1.6977264670566985
3.508810572687225,1.6483546712501165
3.5286343612334807,1.5981263047334295
3.5484581497797363,1.5471698194910077
3.5682819383259914,1.495626310994163
3.588105726872247,1.4436514920714123
3.6079295154185025,1.3914180535372849
3.627753303964758,1.3391184727049146
3.6475770925110136,1.2869683277378867
3.667400881057269,1.2352101609258612
3.6872246696035247,1.1841178984420033
3.7070484581497802,1.1340017642246716
3.726872246696036,1.085213501541159
3.7466960352422913,1.0381515116740219
3.7665198237885464,0.9932652066887477
3.7863436123348024,0.9510574334050709
3.8061674008810575,0.9120832754687683
3.8259911894273135,0.8769429795537904
3.8458149779735686,0.8462664233756921
3.8656387665198246,0.8206868691514116
3.8854625550660797,0.8008032457235604
3.905286343612335,0.7871331828707607
3.925110132158591,0.780063051747369
3.9449339207048464,0.779804795110925
3.964757709251102,0.7863701100262656
3.9845814977973575,0.7995691129634419
4.004405286343612,0.8190338614679386
4.024229074889869,0.8442601696118621
4.044052863436123,0.8746573071027005
4.06387665198238,0.9095955675392473
4.083700440528634,0.9484450462565251
4.103524229074891,0.9906030323063285
4.123348017621146,1.0355105367364934
4.143171806167401,1.082660118827193
4.162995594713657,1.1315975921173544
4.182819383259912,1.1819199085505527
4.2026431718061685,1.2332709691905923
4.222466960352423,1.2853365536522985
4.242290748898679,1.3378391088004642
4.262114537444934,1.390532813188704
4.28193832599119,1.4431991203310854
4.301762114537445,1.4956428531993837
4.321585903083701,1.547688848029926
4.3414096916299565,1.5991791072380095
4.361233480176212,1.6499704047153554
4.381057268722468,1.699932282681242
4.400881057268723,1.7489453817354503
4.420704845814979,1.7969000513364077
4.440528634361234,1.8436951946082223
4.46035242290749,1.8892373080906097
4.4801762114537445,1.9334396832549738
4.500000000000001,1.9762217420970352
4.5198237885462555,2.017508483831986
4.539647577092512,2.057230023697352
4.559471365638767,2.095321208189184
4.579295154185023,2.131721293805147
4.599118942731278,2.16637367863334
4.618942731277533,2.199225677986412
4.63876651982379,2.230228336808784
4.658590308370044,2.2593362728384587
4.678414096916301,2.286507545535392
4.6982378854625555,2.3117035466362017
4.718061674008811,2.334888908894256
4.737885462555067,2.356031430142919
4.757709251101322,2.3751020102999765
4.777533039647578,2.3920745993320964
4.797356828193833,2.4069261545340193
4.817180616740089,2.419636605760534
4.837004405286344,2.4301888274904355
4.856828193832599,2.4385686168084417
4.876651982378855,2.4447646765704945
4.896475770925111,2.448768603176049
4.9162995594713665,2.4505748785123416
4.936123348017622,2.4501808657645943
4.955947136563877,2.447586808906618
4.975770925110133,2.442795835801605
4.995594713656388,2.435813964956005
5.015418502202644,2.4266501160839424
5.035242290748899,2.4153161247585233
5.055066079295155,2.401826761552589
5.07488986784141,2.386199756209717
5.094713656387666,2.368455827539136
5.114537444933921,2.3486187199018485
5.134361233480177,2.326715247354106
5.154185022026432,2.302775346745364
5.174008810572688,2.276832141338774
5.193832599118943,2.2489220168423687
5.213656387665199,2.219084712120119
5.2334801762114544,2.1873634273077385
5.25330396475771,2.1538049526056025
5.2731277533039655,2.118459821681963
5.292951541850221,2.0813824944186816
5.312775330396477,2.0426315747010033
5.332599118942731,2.0022700701307072
5.352422907488988,1.9603657019741996
5.372246696035242,1.916991275398649
5.392070484581499,1.8722251221666362
5.4118942731277535,1.8261516305246128
5.43171806167401,1.7788618801174068
5.451541850220265,1.7304544034721796
5.47136563876652,1.6810360999950489
5.491189427312777,1.6307233335555098
5.511013215859031,1.579643250567238
5.530837004405288,1.5279353618372853
5.550660792951542,1.475753437915282
5.570484581497798,1.4232677733375871
5.5903083700440535,1.370667878360594
5.610132158590309,1.3181656545791034
5.6299559471365646,1.265999098297144
5.64977973568282,1.2144365447118748
5.669603524229076,1.1637814046606838
5.689427312775331,1.1143772361458846
5.709251101321586,1.066612811591176
5.729074889867842,1.0209265621458556
5.748898678414098,0.9778093818974635
5.768722466960353,0.9378042652188363
5.788546255506609,0.9015007052961627
5.808370044052864,0.869521399939573
5.82819383259912,0.8424989558853286
5.848017621145375,0.8210414389214562
5.867841409691631,0.8056881516043705
5.887665198237886,0.796860726054962
5.907488986784142,0.794818283150289
5.927312775330397,0.7996269796386895
5.9471365638766525,0.811152026971852
5.966960352422908,0.8290744214196538
5.986784140969164,0.8529277077148842
6.00660792951542,0.8821453954051025
6.026431718061675,0.9161089145258976
6.04625550660793,0.9541885853651405
6.066079295154186,0.995773958738288
6.085903083700441,1.0402932352384655
6.105726872246697,1.0872234793898234
6.125550660792952,1.1360940727543734
6.145374449339208,1.1864857508689457
6.1651982378854635,1.2380270961934414
6.185022026431718,1.290389813913355
6.204845814977975,1.3432836460739193
6.224669603524229,1.3964514269344683
6.244493392070486,1.4496645424694001
6.264317180616741,1.5027189052937697
6.284140969162996,1.5554314669564515
6.303964757709252,1.6076372411384916
6.323788546255507,1.6591867882798397
6.3436123348017635,1.7099441040642507
6.363436123348018,1.7597848543306878
6.3832599118942746,1.808594903262247
6.403083700440529,1.85626908773371
6.422907488986785,1.90271019713985
6.44273127753304,1.94782812418312
6.462555066079296,1.9915391576486372
6.482378854625551,2.0337653930274184
6.502202643171807,2.0744342409659198
6.5220264317180625,2.1134780169782204
6.541850220264318,2.1508335987352285
6.561674008810574,2.1864421396259255
6.581497797356829,2.220248829248344
6.601321585903085,2.252202693102606
6.62114537444934,2.2822564250859747
6.640969162995596,2.3103662474823863
6.6607929515418505,2.336491794038771
6.680616740088107,2.3605960124630005
6.700440528634362,2.38264508329322
6.720264317180618,2.4026083525987048
6.740088105726873,2.420458276398105
6.759911894273129,2.4361703750376864
6.779735682819384,2.449723196072771
6.799559471365639,2.461098284451282
6.819383259911895,2.470280159016941
6.83920704845815,2.4772562945391554
6.859030837004407,2.4820171086433276
6.8788546255506615,2.4845559531631487
6.898678414096917,2.484869109571793
6.918502202643173,2.482955788273453
6.938325991189428,2.478818131656242
6.958149779735684,2.4724612209233388
6.977973568281939,2.4638930868360376
6.997797356828195,2.4531247246230707
7.01762114537445,2.4401701134372664
7.037444933920705,2.4250462408791926
7.0572687224669615,2.407773133259616
7.077092511013216,2.3883738924448465
7.096916299559473,2.366874740324938
7.116740088105728,2.3433050721722943
7.136563876651983,2.3176975204237946
7.156387665198239,2.2900880307323206
7.176211453744494,2.2605159525050724
7.19603524229075,2.2290241465892713
7.215859030837005,2.195659113296649
7.235682819383261,2.160471144597742
7.255506607929516,2.123514505087881
7.275330396475772,2.0848476472600357
7.295154185022027,2.044533467750815
7.314977973568283,2.002639612597063
7.334801762114538,1.9592388412044976
7.354625550660794,1.9144094607454474
7.374449339207049,1.8682358451392886
7.394273127753305,1.8208090556999623
7.4140969162995605,1.7722275840376012
7.433920704845816,1.722598241939291
7.453744493392072,1.6720372277644417
7.473568281938327,1.6206714043397772
7.493392070484583,1.568639829262937
7.513215859030838,1.5160955845191317
7.533039647577093,1.4632079575610226
7.552863436123348,1.410165028978638
7.572687224669605,1.3571767199416473
7.59251101321586,1.304478341295881
7.612334801762115,1.252334658433857
7.6321585903083715,1.2010444309372503
7.651982378854627,1.1509452877360116
7.671806167400882,1.102418636145445
7.691629955947137,1.0558940524589056
7.711453744493394,1.011852243039689
7.731277533039649,0.9708252007783327
7.751101321585904,0.9333916710364878
7.7709251101321595,0.9001656464615461
7.790748898678416,0.8717756397718877
7.81057268722467,0.8488333695966436
7.830396475770926,0.8318926144936697
7.850220264317182,0.8214022882561566
7.870044052863436,0.8176613537753917
7.889867841409693,0.8207852540355872
7.909691629955948,0.8306923370305304
7.929515418502204,0.8471139703805797
7.9493392070484585,0.8696255439371497
7.969162995594715,0.8976903765589699
7.9889867841409705,0.9307068041677102
8.008810572687224,0.968050409969939
8.02863436123348,1.0091068220765333
8.048458149779737,1.053293910389669
8.068281938325994,1.100074516461859
8.088105726872246,1.1489618923777494
8.107929515418503,1.1995201498929406
8.12775330396476,1.2513616671397048
8.147577092511014,1.3041428958562622
8.167400881057269,1.3575595382230663
8.187224669603525,1.4113416891863604
8.207048458149782,1.4652492759401576
8.226872246696036,1.5190679532354077
8.246696035242293,1.5726055073634044
8.266519823788547,1.6256887614868472
8.286343612334802,1.6781609440194127
8.306167400881058,1.7298794685049133
8.325991189427315,1.7807140703718474
8.345814977973568,1.8305452482988935
8.365638766519824,1.8792629628670705
8.38546255506608,1.9267655510438515
8.405286343612337,1.9729588209454392
8.42511013215859,2.0177552968016035
8.444933920704846,2.061073588910369
8.464757709251103,2.1028378675699426
8.484581497797357,2.1429774235381003
8.504405286343614,2.1814263005566943
8.524229074889869,2.2181229879648594
8.544052863436125,2.2530101634834354
8.56387665198238,2.286034477953194
8.583700440528636,2.317146375211642
8.60352422907489,2.346299941449707
8.623348017621145,2.373452779343873
8.643171806167402,2.398565903048339
8.662995594713658,2.42160365078583
8.682819383259913,2.442533612318526
8.702643171806168,2.461326569034437
8.722466960352424,2.4779564447642284
8.74229074889868,2.492400265763939
8.762114537444935,2.5046381285708446
8.78193832599119,2.5146531746725445
8.801762114537446,2.522431571130452
8.821585903083701,2.527962496475302
8.841409691629957,2.531238131348886
8.861233480176212,2.5322536535080835
8.881057268722468,2.531007236938416
8.900881057268723,2.5275000549485593
8.92070484581498,2.521736287237454
8.940528634361234,2.5137231310464916
8.960352422907489,2.5034708166318165
8.980176211453745,2.490992627422071
9.000000000000002,2.476304925366171
9.019823788546258,2.4594271821296783
9.039647577092511,2.4403820169701933
9.059471365638768,2.419195242318794
9.079295154185024,2.395895918319831
9.099118942731279,2.3705164178447755
9.118942731277533,2.343092503804985
9.13876651982379,2.313663420953409
9.158590308370046,2.2822720048004097
9.1784140969163,2.2489648107883426
9.198237885462555,2.213792267492814
9.218061674008812,2.1768088583687275
9.237885462555067,2.1380733374634584
9.257709251101323,2.097648985611835
9.27753303964758,2.055603914947857
9.297356828193834,2.0120114311632844
9.317180616740089,1.9669504648682576
9.337004405286345,1.9205060857254659
9.356828193832602,1.8727701158029109
9.376651982378855,1.8238418618862113
9.396475770925111,1.7738289903628925
9.416299559471367,1.722848572759464
9.436123348017622,1.671028335031883
9.455947136563877,1.6185081491080886
9.475770925110133,1.5654418105587016
9.49559471365639,1.5119991508414328
9.515418502202644,1.4583685348972746
9.5352422907489,1.4047597925153184
9.555066079295155,1.3514076207737915
9.57488986784141,1.2985754685836197
9.594713656387666,1.2465598631581705
9.614537444933923,1.195695048127835
9.634361233480178,1.1463576555371955
9.654185022026432,1.0989709079216825
9.674008810572689,1.0540075245863076
9.693832599118945,1.011990089410415
9.713656387665198,0.9734871740036156
9.733480176211454,0.9391031349816498
9.75330396475771,0.9094594769883173
9.773127753303967,0.8851663665125608
9.792951541850222,0.8667846478169572
9.812775330396477,0.8547815780094046
9.832599118942733,0.8494867903900242
9.852422907488988,0.8510572517818448
9.872246696035244,0.8594595567750205
9.892070484581499,0.8744741764437584
9.911894273127754,0.8957205001694113
9.93171806167401,0.9226962654448626
9.951541850220266,0.9548224894924299
9.971365638766521,0.9914857895814773
9.991189427312776,1.0320728373452237
10.011013215859032,1.0759949441967256
10.030837004405289,1.122703241164584
10.050660792951543,1.1716962341191515
10.070484581497798,1.2225218824584272
10.090308370044054,1.2747761510116205
10.11013215859031,1.3280995556645578
10.129955947136565,1.382172770560349
10.14977973568282,1.4367119844866483
10.169603524229077,1.4914644119362321
10.189427312775331,1.5462041719970008
10.209251101321588,1.6007286257670572
10.229074889867842,1.6548551900018347
10.248898678414099,1.708418604510139
10.268722466960353,1.76126861124683
10.28854625550661,1.8132679958022277
10.308370044052865,1.8642909416869946
10.32819383259912,1.9142216511108527
10.348017621145376,1.9629531908578812
10.367841409691632,2.010386527225581
10.387665198237887,2.056429719207177
10.407488986784141,2.10099724385683
10.427312775330398,2.144009431969506
10.447136563876654,2.185391995814382
10.466960352422909,2.225075633718449
10.486784140969164,2.262995698862704
10.50660792951542,2.2990919217928827
10.526431718061675,2.333308177923115
10.546255506607931,2.3655922927824786
10.566079295154186,2.3958958789730764
10.585903083700442,2.4241741998165938
10.605726872246697,2.4503860555024883
10.625550660792953,2.4744936882449466
10.645374449339208,2.4964627035338967
10.665198237885463,2.516262005048206
10.685022026431719,2.5338637412042515
