Time (s),Filtered Signal
0.0,0.023288071254442582
0.03337028824833703,-0.1251171766733392
0.06674057649667406,-0.2686545986430491
0.10011086474501109,-0.40579766260873246
0.13348115299334812,-0.5380865642784058
0.16685144124168516,-0.665636234029184
0.20022172949002218,-0.7809901608109948
0.2335920177383592,-0.8657565613766507
0.26696230598669624,-0.8933403536665009
0.3003325942350333,-0.8377400585590444
0.3337028824833703,-0.6848904581127865
0.3670731707317073,-0.4414234910045481
0.40044345898004435,-0.13674394224770095
0.4338137472283814,0.18278440623594042
0.4671840354767184,0.46554174040169227
0.5005543237250555,0.6681467763558662
0.5339246119733925,0.7663093245363649
0.5672949002217295,0.759858345190878
0.6006651884700666,0.6708853178094022
0.6340354767184035,0.5360761451371608
0.6674057649667406,0.3957894849197741
0.7007760532150776,0.28300081062647064
0.7341463414634146,0.21496009937239802
0.7675166297117517,0.1895837384290325
0.8008869179600887,0.18747190364903743
0.8342572062084257,0.17914136574161368
0.8676274944567628,0.13567315443510586
0.9009977827050998,0.03972038658929423
0.9343680709534368,-0.10681545287177992
0.9677383592017739,-0.2815773243461468
1.001108647450111,-0.4481664041232519
1.0344789356984478,-0.5684003448658388
1.067849223946785,-0.6159718658850812
1.101219512195122,-0.5860331795448889
1.134589800443459,-0.4966037949092645
1.167960088691796,-0.38108070661410415
1.2013303769401331,-0.27502702420549224
1.23470066518847,-0.2029312703731601
1.268070953436807,-0.17047773805073999
1.3014412416851442,-0.1651274629549814
1.3348115299334813,-0.16392575199434864
1.3681818181818182,-0.14442235277768936
1.4015521064301553,-0.09381848738284641
1.4349223946784924,-0.01301193726524743
1.4682926829268292,0.08506094914432125
1.5016629711751663,0.18105589574715167
1.5350332594235034,0.2561696080007524
1.5684035476718403,0.29819748544525565
1.6017738359201774,0.30546402056328315
1.6351441241685145,0.28802008615986363
1.6685144124168514,0.2655972019702982
1.7018847006651885,0.26195549691657705
1.7352549889135256,0.29620275988209277
1.7686252771618625,0.37344766409210417
1.8019955654101996,0.47878348556728306
1.8353658536585367,0.5785750189167878
1.8687361419068735,0.6304927152028657
1.9021064301552106,0.599463217727173
1.9354767184035477,0.47295657405372205
1.9688470066518848,0.26829243748496057
2.002217294900222,0.02788894866238565
2.035587583148559,-0.19585562328352069
2.0689578713968957,-0.35923842992091726
2.102328159645233,-0.4411293186812685
2.13569844789357,-0.44652650273851086
2.1690687361419068,-0.39968663599971793
2.202439024390244,-0.33158598790752447
2.235809312638581,-0.26825823162264656
2.269179600886918,-0.2247586588512485
2.302549889135255,-0.20562541506439924
2.335920177383592,-0.20915765846212517
2.369290465631929,-0.23150615562722876
2.4026607538802662,-0.26788878374575803
2.436031042128603,-0.31105698344917715
2.46940133037694,-0.34952223616111505
2.5027716186252773,-0.3684583804239299
2.536141906873614,-0.3543610916221454
2.569512195121951,-0.3016362219893587
2.6028824833702884,-0.21722321770028832
2.6362527716186253,-0.11966149416288663
2.6696230598669626,-0.03181203886341485
2.7029933481152995,0.02972892439615865
2.7363636363636363,0.06297909627306335
2.7697339246119737,0.08172222758837892
2.8031042128603105,0.10817335290970236
2.8364745011086474,0.16064389736840823
2.8698447893569847,0.24274362982795386
2.9032150776053216,0.3400606548444187
2.9365853658536585,0.4262661300540287
2.969955654101996,0.4754840960188109
3.0033259423503327,0.4744515114114045
3.0366962305986696,0.4282405225557366
3.070066518847007,0.35682465704898486
3.1034368070953438,0.28452639173740185
3.1368070953436806,0.22789915357102095
3.170177383592018,0.18821359778362903
3.203547671840355,0.15229048437782036
3.2369179600886917,0.10121919509498682
3.270288248337029,0.022535646633982234
3.303658536585366,-0.08042358556175776
3.337028824833703,-0.18708691911156214
3.37039911308204,-0.2674398247773567
3.403769401330377,-0.29568378237127574
3.437139689578714,-0.26316919537076805
3.470509977827051,-0.18398802764589692
3.503880266075388,-0.09003080257773706
3.537250554323725,-0.017549827918805834
3.5706208425720622,0.00839622130531101
3.603991130820399,-0.01584947426015156
3.637361419068736,-0.07239972129154729
3.6707317073170733,-0.1313937811314485
3.70410199556541,-0.16525653223071848
3.737472283813747,-0.16072020450019725
3.7708425720620844,-0.12329435302837333
3.8042128603104213,-0.07288182035078619
3.8375831485587586,-0.033457699134079935
3.8709534368070955,-0.022112038614066902
3.9043237250554323,-0.042397424953576825
3.9376940133037697,-0.08433771466164991
3.9710643015521065,-0.1301460197090324
4.004434589800444,-0.1623017108306151
4.037804878048781,-0.170125123094307
4.071175166297118,-0.15232757595962643
4.1045454545454545,-0.11530819752125673
4.137915742793791,-0.06898009276352823
4.171286031042128,-0.02266838428976909
4.204656319290466,0.017112173193349657
4.238026607538803,0.04683797322006033
4.27139689578714,0.06541850554068038
4.304767184035477,0.07450637486321887
4.3381374722838135,0.08016555116984828
4.371507760532151,0.09454583146270773
4.404878048780488,0.13496406869916613
4.438248337028825,0.21830964210677312
4.471618625277162,0.3511871848845795
4.504988913525499,0.5195975345316366
4.538359201773836,0.6842407063198251
4.571729490022173,0.7868107222304301
4.60509977827051,0.7683500391930153
4.638470066518847,0.594296396277221
4.671840354767184,0.2755158921196652
4.705210643015521,-0.12611097319339765
4.738580931263858,-0.5134645310896275
4.771951219512196,-0.7873026872834051
4.8053215077605325,-0.8833023924278702
4.838691796008869,-0.7962443119880022
4.872062084257206,-0.5798180474430393
4.905432372505543,-0.32211232915592014
4.93880266075388,-0.1086382465602589
4.972172949002218,0.009685292334349187
5.005543237250555,0.029648523632947506
5.0389135254988915,-0.013653262822189649
5.072283813747228,-0.071122916435463
5.105654101995565,-0.10503719944759238
5.139024390243902,-0.10322599018461928
5.17239467849224,-0.07736221920190195
5.205764966740577,-0.049491535280136584
5.239135254988914,-0.03618216823178184
5.2725055432372505,-0.03915423712337907
5.305875831485587,-0.04619432670257896
5.339246119733925,-0.0400347635867831
5.372616407982262,-0.009094884503296586
5.405986696230599,0.04591894236541323
5.439356984478936,0.11238436418490685
5.472727272727273,0.17194289633886967
5.5060975609756095,0.20872028695982786
5.539467849223947,0.2155931936258893
5.572838137472284,0.19619373905268597
5.606208425720621,0.16261955662003064
5.639578713968958,0.13044925116404965
5.672949002217295,0.11315458356979882
5.706319290465632,0.11762662818606295
5.7396895787139695,0.14188762480472839
5.773059866962306,0.17552620616913853
5.806430155210643,0.20292718913992658
5.83980044345898,0.20870245530094536
5.873170731707317,0.18379236687491088
5.906541019955654,0.12987820087912813
5.939911308203992,0.059724702862733466
5.9732815964523285,-0.007624265699711745
6.006651884700665,-0.055455259180161504
6.040022172949002,-0.07802794114279035
6.073392461197339,-0.08456491268684102
6.106762749445676,-0.0955146261997086
6.140133037694014,-0.13179605503719108
6.173503325942351,-0.20186331190854964
6.2068736141906875,-0.2934883239924011
6.240243902439024,-0.37557233416829655
6.273614190687361,-0.4104465357245304
6.306984478935698,-0.37140466936868893
6.340354767184036,-0.25683324962904713
6.373725055432373,-0.09342354958184951
6.40709534368071,0.07375064343491013
6.4404656319290465,0.19980074443386836
6.473835920177383,0.25831679457605
6.507206208425721,0.2507140617388223
6.540576496674058,0.20262982377828168
6.573946784922395,0.14980969603689076
6.607317073170732,0.12074281866172383
6.640687361419069,0.12426441649672929
6.674057649667406,0.14738243335239976
6.707427937915743,0.16352747161963813
6.74079822616408,0.14678456964552278
6.774168514412417,0.08536973395406174
6.807538802660754,-0.01167604539688275
6.840909090909091,-0.11746012320760092
6.874279379157428,-0.19854747733168457
6.9076496674057655,-0.22962758566090175
6.941019955654102,-0.2049574845568058
6.974390243902439,-0.14125630844886922
7.007760532150776,-0.07051803042404159
7.041130820399113,-0.02593513540299158
7.07450110864745,-0.02748551940967807
7.107871396895788,-0.07391539127508638
7.1412416851441245,-0.1446512035667399
7.174611973392461,-0.2102444862155759
7.207982261640798,-0.2458932654726936
7.241352549889135,-0.24145080735759442
7.274722838137472,-0.20353445083850621
7.30809312638581,-0.14954634374210704
7.341463414634147,-0.09738340614454105
7.3748337028824835,-0.05642653765067901
7.40820399113082,-0.024338793554148114
7.441574279379157,0.009045352488748793
7.474944567627494,0.053239697445180666
7.508314855875832,0.10901965807956714
7.541685144124169,0.16568148795207088
7.575055432372506,0.20596637183248265
7.6084257206208425,0.21686753203058529
7.641796008869179,0.2008980719717968
7.675166297117517,0.1811305539216361
7.708536585365854,0.19542067196257365
7.741906873614191,0.28016151509163495
7.775277161862528,0.449626823827456
7.808647450110865,0.6806268064075732
7.842017738359202,0.9115166216243431
7.875388026607539,1.0590979116565957
7.908758314855876,1.0486451012565625
7.942128603104213,0.8450816531780813
7.97549889135255,0.47123774157763454
8.008869179600888,0.00394489780983989
8.042239467849225,-0.4514059593072084
8.075609756097561,-0.7972518152662864
8.108980044345898,-0.9758431830771962
8.142350332594235,-0.9843216936840962
8.175720620842572,-0.868827482728496
8.209090909090909,-0.7027154804723134
8.242461197339246,-0.5592228183015175
8.275831485587583,-0.4886792554675553
8.30920177383592,-0.5062221682902385
8.342572062084257,-0.5911267271733512
8.375942350332595,-0.6956962603107861
8.409312638580932,-0.7605818567524245
8.442682926829269,-0.7332183130493486
8.476053215077606,-0.5854774098349587
8.509423503325943,-0.32560654320625737
8.54279379157428,0.0005917520338206331
8.576164079822616,0.3219986430619059
8.609534368070953,0.5654707780322388
8.64290465631929,0.6821921348418564
8.676274944567627,0.6661507190966879
8.709645232815964,0.5559636018136446
8.743015521064303,0.41822524862378574
8.77638580931264,0.31908384809744283
8.809756097560976,0.2964751241833737
8.843126385809313,0.3453427425463213
8.87649667405765,0.42226996257864924
8.909866962305987,0.4671580377670756
8.943237250554324,0.4320611755944118
8.97660753880266,0.3043460555120777
9.009977827050998,0.11409953819199309
9.043348115299334,-0.07721958074366493
9.076718403547671,-0.20168790289392238
9.110088691796008,-0.21248625296216264
9.143458980044347,-0.102496592948649
9.176829268292684,0.09333610933105624
9.21019955654102,0.31188406473606073
9.243569844789358,0.48523385120318757
9.276940133037694,0.5635773746913435
9.310310421286031,0.5288516986136385
9.343680709534368,0.39527565442053514
9.377050997782705,0.19892417702069454
9.410421286031042,-0.017316319201855307
9.443791574279379,-0.2165123408495748
9.477161862527716,-0.37417534557946086
9.510532150776053,-0.4787398555815542
9.543902439024391,-0.5291668679508903
9.577272727272728,-0.5327917254325054
9.610643015521065,-0.5042212401936464
9.644013303769402,-0.4636437612892401
9.677383592017739,-0.43241726272250586
9.710753880266076,-0.4257220247891097
9.744124168514412,-0.4450086182453108
9.77749445676275,-0.4746830434046657
9.810864745011086,-0.4863798723691741
9.844235033259423,-0.4504854931794266
9.87760532150776,-0.35027015899296887
9.910975609756099,-0.19172447305456441
9.944345898004435,-0.0036555028588176465
9.977716186252772,0.17270775365804206
10.01108647450111,0.2999588413052857
10.044456762749446,0.3589624826482086
10.077827050997783,0.3549282879598352
10.11119733924612,0.31293129777411943
10.144567627494457,0.26584816470849487
10.177937915742794,0.240815817004582
10.21130820399113,0.2501158345760805
10.244678492239467,0.28945739995555964
10.278048780487804,0.3428687699920001
10.311419068736143,0.3907537321555173
10.34478935698448,0.41713711280042187
10.378159645232817,0.41351224205806714
10.411529933481154,0.3789475694190714
10.44490022172949,0.31792556565936814
10.478270509977827,0.23791625680424205
10.511640798226164,0.14789657366363965
10.545011086474501,0.057673390128654564
10.578381374722838,-0.02299571527005059
10.611751662971175,-0.08623283672853396
10.645121951219512,-0.12843905227035785
10.67849223946785,-0.15183259957217096
10.711862527716187,-0.16367794321272552
10.745232815964524,-0.17296484311158095
10.778603104212861,-0.1859855496059083
10.811973392461198,-0.20325847107553707
10.845343680709535,-0.21977488685283916
10.878713968957872,-0.2287427530671746
10.912084257206208,-0.22686525037666772
10.945454545454545,-0.21799619012824709
10.978824833702882,-0.21258242401613275
11.012195121951219,-0.2225022492974844
11.045565410199556,-0.25363837802742234
11.078935698447895,-0.3002491953116362
11.112305986696231,-0.3447903775488685
11.145676274944568,-0.36425620382214224
11.179046563192905,-0.3405668331631618
11.212416851441242,-0.2699384607074095
11.245787139689579,-0.16613300039807896
11.279157427937916,-0.05528790627673787
11.312527716186253,0.03565222089910725
11.34589800443459,0.09134718238905991
11.379268292682926,0.11500672206740022
11.412638580931263,0.12611789001279256
11.4460088691796,0.14983035440751108
11.479379157427939,0.20322138836252032
11.512749445676276,0.28546900218194415
11.546119733924613,0.37721118449513086
11.57949002217295,0.4498224036584539
11.612860310421286,0.48021778841786394
11.646230598669623,0.46371081846023543
11.67960088691796,0.4180636807223548
11.712971175166297,0.3759966213957853
11.746341463414634,0.36909083522638775
11.77971175166297,0.41046430235641057
11.813082039911308,0.48464696294932325
11.846452328159646,0.5501714824831034
11.879822616407983,0.5547861866003644
11.91319290465632,0.4573595734312911
11.946563192904657,0.24711869806425707
11.979933481152994,-0.04845294913539979
12.01330376940133,-0.37100721197703784
12.046674057649668,-0.6512249878994251
12.080044345898004,-0.8328815392651754
12.113414634146341,-0.891150733918567
12.146784922394678,-0.838247659020973
12.180155210643015,-0.7154045615860531
12.213525498891352,-0.5758258817432406
12.24689578713969,-0.46608211066733823
12.280266075388028,-0.412609263428582
12.313636363636364,-0.41669704041549205
12.347006651884701,-0.4576179215674079
12.380376940133038,-0.5010984164686422
12.413747228381375,-0.5097611727438284
12.447117516629712,-0.45293010098098785
12.480487804878049,-0.31426581799124526
12.513858093126386,-0.09637311971644152
12.547228381374723,0.17825225078293352
12.58059866962306,0.4704095616663213
12.613968957871396,0.7315197736971663
12.647339246119735,0.9142232677285794
12.680709534368072,0.9842336703226706
12.714079822616409,0.9303879799403871
12.747450110864746,0.7694546418775984
12.780820399113082,0.5431294160847158
12.81419068736142,0.30695296583370774
12.847560975609756,0.1140278759488669
12.880931263858093,-0.0009771185105422657
12.91430155210643,-0.03149922313302379
12.947671840354767,0.00139250243025958
12.981042128603104,0.05924742515536184
13.014412416851442,0.1017323266004366
13.04778270509978,0.10085372571195729
13.081152993348116,0.048518366094148856
13.114523281596453,-0.044408092687614364
13.14789356984479,-0.1554171308799587
13.181263858093127,-0.25959992559158535
13.214634146341464,-0.33667896187241025
13.2480044345898,-0.3740423403676044
13.281374722838137,-0.3666741874737094
13.314745011086474,-0.3161845684097019
13.348115299334811,-0.23048446450201382
13.381485587583148,-0.12385085275905208
13.414855875831487,-0.01577164315789173
13.448226164079824,0.0727815130810657
13.48159645232816,0.1252410423905304
13.514966740576497,0.13510168905819595
13.548337028824834,0.10827790813061033
13.581707317073171,0.06035974154824244
13.615077605321508,0.009556015448032171
13.648447893569845,-0.031460428226917685
13.681818181818182,-0.060749948579126654
13.715188470066519,-0.08658951630531547
13.748558758314855,-0.12131900369780077
13.781929046563192,-0.17255317421378075
13.815299334811531,-0.2362674138014534
13.848669623059868,-0.2955437183919619
13.882039911308205,-0.3261140239159725
13.915410199556542,-0.3065097889649452
13.948780487804878,-0.22822962997336216
13.982150776053215,-0.10108723758426442
14.015521064301552,0.0489862007585361
14.048891352549889,0.18890491320349592
14.082261640798226,0.2902108670961216
14.115631929046563,0.33851203541058694
14.1490022172949,0.3367233657713797
14.182372505543238,0.301315998832709
14.215742793791575,0.25393646319097424
14.249113082039912,0.21246515839533206
14.282483370288249,0.18522247395216418
14.315853658536586,0.17009714962116704
14.349223946784923,0.158025328315017
14.38259423503326,0.1386018473940459
14.415964523281596,0.10519933794752724
14.449334811529933,0.05768072478764479
14.48270509977827,0.0020760289187809083
14.516075388026607,-0.052152023513284435
14.549445676274944,-0.09583985276525633
14.582815964523283,-0.12329271627198989
14.61618625277162,-0.13377444350262369
14.649556541019956,-0.1309922108122965
14.682926829268293,-0.12105976653213107
14.71629711751663,-0.10993568165889671
14.749667405764967,-0.10139074053307856
14.783037694013304,-0.09620503121261047
14.81640798226164,-0.09272819168458211
14.849778270509978,-0.08839211094773665
14.883148558758315,-0.08142238010499157
14.916518847006651,-0.07193860723442104
14.949889135254988,-0.061874296791814457
14.983259423503327,-0.053638193481332724
15.016629711751664,-0.04806256413942076
15.05,-0.042715813979044316
15.083370288248338,-0.03179157882231505
15.116740576496674,-0.008279284109032932
15.150110864745011,0.03199781425859539
15.183481152993348,0.08618657478271058
15.216851441241685,0.1424989064449972
15.250221729490022,0.18256926057212058
15.283592017738359,0.18822516677763185
15.316962305986696,0.15033325168705308
15.350332594235034,0.07553416479087938
15.383702882483371,-0.013239167903813766
15.417073170731708,-0.08410809657039196
15.450443458980045,-0.1091826009506909
15.483813747228382,-0.07742929689058087
15.517184035476719,-0.0010659366190153255
15.550554323725056,0.08823747769791558
15.583924611973393,0.15210959285700304
15.61729490022173,0.16135048371618074
15.650665188470066,0.10747087006801588
15.684035476718403,0.004729019806283968
15.71740576496674,-0.11758373030083805
15.750776053215079,-0.22804125057862873
15.784146341463416,-0.30447079917820236
15.817516629711752,-0.33868271565603086
15.85088691796009,-0.33351594291276254
15.884257206208426,-0.2954382782675695
15.917627494456763,-0.22800883043599607
15.9509977827051,-0.1304120149304149
15.984368070953437,-0.0018231110320819945
16.017738359201775,0.1513987956451004
16.05110864745011,0.31067090557269494
16.08447893569845,0.44639761369424347
16.117849223946784,0.5262504612166783
16.151219512195123,0.5273708578945359
16.184589800443458,0.4467937280399635
16.217960088691797,0.3046816089796751
16.251330376940132,0.1381205872548458
16.28470066518847,-0.012237545940347727
16.31807095343681,-0.11682775484329583
16.351441241685144,-0.16656735757787391
16.384811529933483,-0.1730445635687104
16.418181818181818,-0.16006729690004037
16.451552106430157,-0.1511821724146363
16.48492239467849,-0.159290135177399
16.51829268292683,-0.1828720259585075
16.551662971175165,-0.2096686920902178
16.585033259423504,-0.22498087288963578
16.61840354767184,-0.21990698185468213
16.651773835920178,-0.19552163290145336
16.685144124168513,-0.16154443897227908
16.71851441241685,-0.1309324796258499
16.75188470066519,-0.11355726788807982
16.785254988913525,-0.1120019744993328
16.818625277161864,-0.12091457037280097
16.8519955654102,-0.12939853037640292
16.885365853658538,-0.12474639586512572
16.918736141906873,-0.09588519258738741
16.95210643015521,-0.03581310112294129
16.985476718403547,0.05678718812140027
17.018847006651885,0.17633331744894673
17.05221729490022,0.3095837622971823
17.08558758314856,0.43609778264318344
17.118957871396898,0.5309457742787018
17.152328159645233,0.570124833446165
17.18569844789357,0.5378129802476007
17.219068736141907,0.43313775229644
