Frequency (Hz),Amplitude
0.0,0.05053717334645036
0.01978021978021978,0.07732016044007979
0.03956043956043956,0.12742829676781225
0.05934065934065934,0.18246048867095965
0.07912087912087912,0.2388975804705507
0.0989010989010989,0.29577680580700577
0.11868131868131868,0.35271275007301556
0.13846153846153844,0.40950222784237655
0.15824175824175823,0.466013804930503
0.17802197802197803,0.5221489944124595
0.1978021978021978,0.5778262947718924
0.21758241758241756,0.6329738266789194
0.23736263736263735,0.6875256317239866
0.2571428571428572,0.7414196863165402
0.2769230769230769,0.7945967819827541
0.2967032967032967,0.8469998710458633
0.31648351648351647,0.8985736753109812
0.3362637362637363,0.9492644498339721
0.35604395604395606,0.9990198414652403
0.3758241758241758,1.0477888070775787
0.3956043956043956,1.0955215703284868
0.4153846153846154,1.1421696038078788
0.4351648351648351,1.1876856281658434
0.45494505494505494,1.2320236227120775
0.4747252747252747,1.2751388437932254
0.4945054945054945,1.3169878484196382
0.5142857142857143,1.3575285213756032
0.5340659340659341,1.3967201045576145
0.5538461538461538,1.4345232276321924
0.5736263736263736,1.4708999393446038
0.5934065934065934,1.5058137389786574
0.6131868131868132,1.5392296075879215
0.6329670329670329,1.5711140387054845
0.6527472527472528,1.601435068303299
0.6725274725274726,1.6301623038190536
0.6923076923076923,1.6572669521044352
0.7120879120879121,1.6827218461755185
0.7318681318681318,1.7065014706670079
0.7516483516483516,1.7285819859083487
0.7714285714285715,1.7489412505529982
0.7912087912087912,1.7675588427022593
0.810989010989011,1.7844160794741006
0.8307692307692308,1.7994960349740947
0.8505494505494506,1.8127835566321537
0.8703296703296702,1.8242652798734276
0.8901098901098901,1.833929641096827
0.9098901098901099,1.8417668889382368
0.9296703296703297,1.8477690937995388
0.9494505494505494,1.8519301556277024
0.9692307692307692,1.8542458099315433
0.989010989010989,1.8547136320266246
1.0087912087912088,1.8533330395017824
1.0285714285714287,1.8501052929035258
1.0483516483516484,1.845033494637201
1.0681318681318681,1.838122586086984
1.087912087912088,1.829379342958903
1.1076923076923075,1.8188123688546844
1.1274725274725275,1.8064320870866317
1.1472527472527472,1.7922507307470144
1.1670329670329669,1.7762823310489406
1.1868131868131868,1.7585427039588797
1.2065934065934065,1.7390494351453274
1.2263736263736265,1.7178218632721018
1.2461538461538462,1.6948810616699226
1.2659340659340659,1.6702498184255559
1.2857142857142858,1.6439526149345964
1.3054945054945055,1.616015602971659
1.3252747252747252,1.5864665803417972
1.3450549450549452,1.5553349651885575
1.3648351648351649,1.522651769049222
1.3846153846153846,1.4884495687665436
1.4043956043956045,1.4527624773906218
1.4241758241758242,1.4156261142365865
1.443956043956044,1.3770775743052865
1.4637362637362636,1.3371553973307504
1.4835164835164834,1.2958995367944008
1.5032967032967033,1.2533513293507026
1.523076923076923,1.2095534652554654
1.542857142857143,1.1645499605943497
1.5626373626373626,1.118386132406458
1.5824175824175823,1.07110857823045
1.6021978021978023,1.0227651622436476
1.621978021978022,0.9734050111365566
1.6417582417582417,0.9230785243656787
1.6615384615384616,0.8718374057963764
1.6813186813186813,0.8197347275813622
1.7010989010989013,0.7668250434999934
1.720879120879121,0.7131645799340607
1.7406593406593405,0.658811552127836
1.7604395604395604,0.6038266894228128
1.7802197802197801,0.5482741230425506
1.7999999999999998,0.4922229330428366
1.8197802197802198,0.43574996318665477
1.8395604395604395,0.37894524828921317
1.8593406593406594,0.32192330536131514
1.879120879120879,0.2648491083763765
1.8989010989010988,0.20800656627413255
1.9186813186813187,0.1520173617887139
1.9384615384615385,0.09877025357167014
1.9582417582417584,0.05710845087142083
1.978021978021978,0.06045818414714165
1.9978021978021978,0.10458517302112064
2.0175824175824175,0.1583779518887996
2.0373626373626372,0.21456467486452968
2.0571428571428574,0.2715150975980774
2.076923076923077,0.3286688539855878
2.096703296703297,0.3857618368283305
2.1164835164835165,0.4426368764918208
2.1362637362637362,0.4991829516362962
2.1560439560439564,0.5553117146339646
2.175824175824176,0.6109471537867014
2.195604395604396,0.6660205756823883
2.215384615384615,0.7204679836014619
2.2351648351648348,0.7742286288758018
2.254945054945055,0.8272441763377884
2.2747252747252746,0.8794582095046377
2.2945054945054943,0.9308159325531323
2.314285714285714,0.9812639907696096
2.3340659340659338,1.0307503646825205
2.353846153846154,1.0792243112825357
2.3736263736263736,1.1266363360137348
2.3934065934065933,1.1729381852292984
2.413186813186813,1.2180828524292613
2.4329670329670328,1.2620245938432835
2.452747252747253,1.3047189503481513
2.4725274725274726,1.3461227736355288
2.4923076923076923,1.386194255159615
2.512087912087912,1.4248929568085535
2.5318681318681318,1.4621798425280828
2.5516483516483515,1.4980173103242138
2.5714285714285716,1.5323692242129991
2.5912087912087913,1.5652009457855636
2.610989010989011,1.5964793651311204
2.6307692307692307,1.6261729309141946
2.6505494505494505,1.6542516794434705
2.6703296703296706,1.6806872626001317
2.6901098901098903,1.7054529745171938
2.70989010989011,1.7285237769197939
2.7296703296703297,1.7498763230509464
2.7494505494505495,1.7694889801186835
2.769230769230769,1.78734185021011
2.7890109890109893,1.8034167896256013
2.808791208791209,1.8176974265930876
2.8285714285714287,1.8301691773277058
2.8483516483516484,1.840819260407186
2.8681318681318677,1.849636709437554
2.887912087912088,1.8566123839875823
2.9076923076923076,1.861738978774018
2.9274725274725273,1.8650110310828738
2.947252747252747,1.866424926415087
2.9670329670329667,1.8659789023479725
2.986813186813187,1.8636730506065644
3.0065934065934066,1.8595093173420354
3.0263736263736263,1.853491501616721
3.046153846153846,1.8456252520986944
3.0659340659340657,1.8359180619709667
3.085714285714286,1.8243792620641894
3.1054945054945056,1.8110200122239148
3.1252747252747253,1.7958532909273983
3.145054945054945,1.778893883168148
3.1648351648351647,1.7601583666302552
3.184615384615385,1.7396650961786762
3.2043956043956046,1.7174341866967298
3.2241758241758243,1.6934874943070055
3.243956043956044,1.66784859601871
3.2637362637362637,1.640542767851698
3.2835164835164834,1.611596961496632
3.3032967032967036,1.5810397795816784
3.3230769230769233,1.5489014496301698
3.342857142857143,1.5152137968106882
3.3626373626373627,1.480010215603589
3.3824175824175824,1.4433256405368315
3.4021978021978025,1.4051965161814939
3.4219780219780223,1.3656607666484102
3.441758241758242,1.3247577648952107
3.4615384615384617,1.2825283022459406
3.481318681318681,1.239014558655173
3.501098901098901,1.1942600744287657
3.520879120879121,1.1483097243731395
3.5406593406593405,1.1012096957181947
3.5604395604395602,1.0530074717109938
3.58021978021978,1.0037518236039853
3.5999999999999996,0.9534928150255949
3.61978021978022,0.9022818246969775
3.6395604395604395,0.8501715966196839
3.659340659340659,0.7972163320528943
3.679120879120879,0.7434718463877573
3.6989010989010986,0.6889958294015232
3.718681318681319,0.6338482753115704
3.7384615384615385,0.5780922020633925
3.758241758241758,0.5217948850950883
3.7780219780219784,0.46503005490124016
3.7978021978021976,0.4078820171017033
3.8175824175824173,0.35045391585837293
3.8373626373626375,0.2928858429560192
3.8571428571428568,0.23539951406267898
3.876923076923077,0.17842810646890625
3.896703296703296,0.12309464694874056
3.916483516483517,0.0737009802767125
3.936263736263736,0.052146949624026134
3.956043956043956,0.083850424226392
3.9758241758241755,0.1354799600360387
3.9956043956043956,0.19144544195204602
4.015384615384615,0.2487026005239909
4.035164835164835,0.3063733531343431
4.054945054945055,0.3640934701753318
4.0747252747252745,0.42166610145465055
4.094505494505494,0.4789616783917792
4.114285714285715,0.535881978967879
4.134065934065934,0.5923451155493932
4.153846153846154,0.6482785300807311
4.173626373626373,0.703615442235423
4.193406593406594,0.7582929307124011
4.213186813186813,0.8122508460109086
4.232967032967033,0.8654311727305796
4.252747252747253,0.9177776472972599
4.2725274725274724,0.9692355270022778
4.292307692307692,1.0197514518827662
4.312087912087913,1.069273365273043
4.331868131868132,1.1177504723544625
4.351648351648352,1.1651332238076109
4.371428571428571,1.211373316298425
4.391208791208792,1.2564237043644195
4.410989010989011,1.3002386200484843
4.43076923076923,1.342773597773587
4.450549450549451,1.3839855027040915
4.4703296703296695,1.4238325613438183
4.49010989010989,1.4622743934642743
4.50989010989011,1.4992720446946501
4.52967032967033,1.53478801927268
4.549450549450549,1.5687863125751034
4.569230769230769,1.6012324431329723
4.589010989010989,1.6320934839005394
4.608791208791209,1.6613380925939103
4.628571428571428,1.6889365409507102
4.648351648351649,1.7148607427897211
4.6681318681318675,1.7390842807698073
4.687912087912088,1.7615824317644595
4.707692307692308,1.782332190780877
4.7274725274725276,1.8013122933632246
4.747252747252747,1.81850323642857
4.767032967032967,1.8338872974907774
4.786813186813187,1.8474485522340685
4.806593406593407,1.8591728904030884
4.826373626373626,1.8690480299809966
4.846153846153847,1.8770635296311158
4.8659340659340655,1.8832107993814409
4.885714285714286,1.8874831095349345
4.905494505494506,1.8898755977913801
4.9252747252747255,1.8903852745700578
4.945054945054945,1.8890110265250437
4.964835164835165,1.8857536182481862
4.984615384615385,1.8806156921573658
5.004395604395604,1.8736017665707005
5.024175824175824,1.8647182319700286
5.043956043956045,1.8539733454601879
5.0637362637362635,1.841377223433493
5.083516483516483,1.8269418324521998
5.103296703296703,1.8106809783650204
5.123076923076923,1.7926102936777188
5.142857142857143,1.7727472232017123
5.162637362637362,1.7511110080093506
5.182417582417583,1.727722667729954
5.2021978021978015,1.702604981226217
5.221978021978022,1.6757824656985467
5.241758241758242,1.6472813542726847
5.2615384615384615,1.6171295721369594
5.281318681318681,1.585356711307971
5.301098901098901,1.5519940041199463
5.320879120879121,1.5170742955532988
5.340659340659341,1.4806320145444885
5.36043956043956,1.4427031444537681
5.380219780219781,1.403325192913247
5.3999999999999995,1.362537161339067
5.41978021978022,1.3203795144748876
5.43956043956044,1.2768941504487987
5.4593406593406595,1.2321243719862807
5.479120879120879,1.186114859648926
5.498901098901099,1.1389116482956203
5.518681318681319,1.090562108440288
5.538461538461538,1.0411149348907405
5.558241758241758,0.9906201461298694
5.578021978021979,0.9391290995657909
5.5978021978021975,0.886694530414462
5.617582417582418,0.8333706262572835
5.637362637362637,0.7792131564598725
5.6571428571428575,0.7242796879444924
5.676923076923077,0.6686299407803152
5.696703296703297,0.6123263779165433
5.716483516483517,0.5554352030386405
5.736263736263735,0.4980281046008476
5.756043956043956,0.44018544483180294
5.775824175824176,0.3820024506129697
5.795604395604395,0.3236022119717428
5.815384615384615,0.2651659552847821
5.835164835164835,0.20701421198926173
5.854945054945055,0.14987248833817862
5.874725274725275,0.09603768567922727
5.894505494505494,0.05657288437785951
5.914285714285715,0.06652827573865648
5.934065934065933,0.11359328365710328
5.953846153846154,0.16913754353273813
5.973626373626374,0.2269012467160794
5.993406593406593,0.285395795263175
6.013186813186813,0.3440875995933013
6.032967032967033,0.4027180770469577
6.052747252747253,0.4611304004929254
6.072527472527473,0.5192123974370159
6.092307692307692,0.5768741002469105
6.112087912087913,0.6340377300002401
6.131868131868131,0.6906327869821814
6.151648351648352,0.7465934660994022
6.171428571428572,0.8018572202496997
6.191208791208791,0.8563639289211854
6.210989010989011,0.9100554035831065
6.230769230769231,0.9628750891287139
6.2505494505494505,1.014767883852871
6.270329670329671,1.0656800334248473
6.29010989010989,1.115559072306469
6.309890109890111,1.1643537962694868
6.329670329670329,1.2120142556545734
6.349450549450549,1.2584917626374945
6.36923076923077,1.3037389080197448
6.3890109890109885,1.347709584494581
6.408791208791209,1.3903590142732254
6.428571428571428,1.4316437795754402
6.4483516483516485,1.4715218549082592
6.468131868131868,1.5099526403449381
6.487912087912088,1.546896995217937
6.507692307692308,1.5823172717825498
6.527472527472527,1.6161773485109583
6.547252747252747,1.6484426627511128
6.567032967032967,1.679080242540871
6.5868131868131865,1.7080587374085061
6.606593406593407,1.735348448022936
6.626373626373626,1.7609213545807678
6.6461538461538465,1.7847511438359527
6.665934065934065,1.806813234693164
6.685714285714286,1.8270848022975064
6.705494505494506,1.8455448005629729
6.725274725274725,1.862173983090091
6.745054945054945,1.8769549224299942
6.764835164835165,1.8898720276577405
6.7846153846153845,1.9009115602227464
6.804395604395605,1.9100616480487924
6.824175824175824,1.9173122978597974
6.8439560439560445,1.9226554057113694
6.863736263736263,1.926084765711331
6.883516483516484,1.9275960769160159
6.903296703296704,1.9271869483915756
6.923076923076923,1.9248569024330995
6.942857142857143,1.9206073759368933
6.962637362637362,1.9144417199242687
6.9824175824175825,1.906365197218174
7.002197802197802,1.8963849782768636
7.021978021978022,1.8845101351919666
7.041758241758242,1.8707516338615875
7.061538461538461,1.8551223243522663
7.081318681318681,1.8376369294676056
7.101098901098901,1.8183120315453192
7.1208791208791204,1.7971660575085995
7.140659340659341,1.7742192622034427
7.16043956043956,1.74949371005874
7.1802197802197805,1.7230132551130284
7.199999999999999,1.6948035194600188
7.21978021978022,1.6648918701742885
7.23956043956044,1.6333073947911572
7.259340659340659,1.600080875428972
7.279120879120879,1.5652447616614134
7.298901098901099,1.5288331422712167
7.318681318681318,1.4908817160482668
7.338461538461539,1.451427761836124
7.358241758241758,1.4105101080862164
7.3780219780219785,1.3681691022532174
7.397802197802197,1.3244465804668257
7.417582417582418,1.2793858380566754
7.437362637362638,1.2330316017053906
7.457142857142857,1.1854300042889978
7.476923076923077,1.1366285638755276
7.496703296703297,1.0866761689599183
7.516483516483516,1.0356230729264877
7.536263736263736,0.9835209021286204
7.556043956043957,0.9304226841669289
7.575824175824176,0.8763829064622154
7.595604395604395,0.8214576210121978
7.615384615384615,0.765704621056041
7.635164835164835,0.7091837326402385
7.654945054945055,0.6519572955935815
7.674725274725275,0.5940909685163538
7.694505494505494,0.5356551130262137
7.7142857142857135,0.4767272697318838
7.734065934065935,0.41739682794108174
7.753846153846154,0.3577744665585398
7.7736263736263735,0.2980130650740339
7.793406593406592,0.23836004279714929
7.813186813186814,0.17931258269755385
7.832967032967034,0.12220664409143718
7.852747252747252,0.07239171749297114
7.872527472527472,0.05587551104295835
7.892307692307693,0.09273434682945919
7.912087912087912,0.14718608727273585
7.931868131868132,0.20560769388036207
7.951648351648351,0.26525853429446095
7.971428571428572,0.3253101265210788
7.991208791208791,0.38540761855407435
8.010989010989011,0.44535478703737724
8.03076923076923,0.505020359876866
8.05054945054945,0.5643037221417522
8.07032967032967,0.6231203882115296
8.09010989010989,0.6813951523746977
8.10989010989011,0.7390585883005993
8.129670329670331,0.7960451466131833
8.149450549450549,0.8522920719860009
8.169230769230769,0.9077387659437038
8.189010989010988,0.9623264041911403
8.20879120879121,1.0159977053713865
8.22857142857143,1.0686967930815
8.248351648351647,1.1203691170161703
8.268131868131867,1.1709614125176115
8.287912087912087,1.2204216855648382
8.307692307692308,1.2686992148648613
8.327472527472528,1.3157445655527684
8.347252747252746,1.3615096107992606
8.367032967032966,1.4059475587798889
8.386813186813187,1.4490129832207375
8.406593406593407,1.4906618562455571
8.426373626373627,1.530851582597956
8.446153846153845,1.5695410345540737
8.465934065934066,1.6066905870115997
8.485714285714286,1.642262152362866
8.505494505494505,1.6762192148481279
8.525274725274725,1.7085268641498468
8.545054945054945,1.7391518280372218
8.564835164835165,1.7680625039065374
8.584615384615384,1.7952289890905817
8.604395604395604,1.8206231098321053
8.624175824175826,1.844218448832803
8.643956043956043,1.8659903713031591
8.663736263736263,1.8859160494489113
8.683516483516483,1.9039744853389862
8.703296703296704,1.9201465321072837
8.723076923076924,1.9344149134466018
8.742857142857142,1.9467642413589161
8.762637362637362,1.9571810321304073
8.782417582417583,1.9656537205045215
8.802197802197803,1.9721726720295527
8.821978021978023,1.9767301935614239
8.84175824175824,1.9793205419050552
8.86153846153846,1.9799399305814835
8.881318681318682,1.9785865347104679
8.901098901098901,1.9752604940016283
8.920879120879121,1.969963913849874
8.940659340659339,1.9627008645340682
8.96043956043956,1.9534773785207635
8.98021978021978,1.9423014458777645
9.0,1.9291830078058663
9.01978021978022,1.9141339483001079
9.03956043956044,1.8971680839556335
9.05934065934066,1.878301151937316
9.079120879120879,1.8575507961362392
9.098901098901099,1.8349365515413596
9.11868131868132,1.8104798268599305
9.138461538461538,1.7842038854265725
9.158241758241758,1.7561338244485831
9.178021978021977,1.7262965526438525
9.197802197802199,1.6947207663386459
9.217582417582419,1.6614369241060973
9.237362637362637,1.6264772200430508
9.257142857142856,1.5898755558043458
9.276923076923078,1.551667511541338
9.296703296703297,1.5118903159280503
9.316483516483517,1.4705828155055707
9.336263736263735,1.427785443640859
9.356043956043957,1.383540189482931
9.375824175824176,1.337890567420801
9.395604395604396,1.2908815877166657
9.415384615384616,1.2425597292272872
9.435164835164835,1.1929729154722488
9.454945054945055,1.1421704958130459
9.474725274725275,1.0902032342602948
9.494505494505495,1.0371233095702497
9.514285714285714,0.9829843320651493
9.534065934065934,0.9278413854262869
9.553846153846154,0.8717511062878924
9.573626373626373,0.8147718221285657
9.593406593406593,0.7569637812118318
9.613186813186815,0.6983895320863045
9.632967032967032,0.639114554539359
9.652747252747252,0.5792083308776661
9.672527472527472,0.5187462266834961
9.692307692307693,0.4578129495447429
9.712087912087913,0.39650931295678726
9.731868131868131,0.33496657433627963
9.75164835164835,0.27338025946053623
9.771428571428572,0.21210250367757055
9.791208791208792,0.1519525529343824
9.810989010989012,0.09563922127500783
9.83076923076923,0.05684680481705748
9.850549450549451,0.07337607206330096
9.87032967032967,0.12495050878109222
9.89010989010989,0.18410176137233422
9.90989010989011,0.24529694378979444
9.92967032967033,0.30717448089869154
9.94945054945055,0.3692298642357445
9.96923076923077,0.4312116890436859
9.989010989010989,0.4929638485786526
10.008791208791209,0.5543725818511558
10.028571428571428,0.615345384645713
10.048351648351648,0.6758015105092635
10.068131868131868,0.7356672815931514
10.08791208791209,0.7948736072707694
10.107692307692307,0.8533546000964586
10.127472527472527,0.9110467734670938
10.147252747252747,0.9678885644629288
10.167032967032966,1.0238200467129541
10.186813186813188,1.078782758529753
10.206593406593406,1.1327196032033553
10.226373626373626,1.1855747956730345
10.246153846153845,1.2372938396575075
10.265934065934067,1.287823525130277
10.285714285714286,1.337111939547619
10.305494505494504,1.385108488431116
10.325274725274724,1.4317639223063963
10.345054945054946,1.477030367913186
10.364835164835165,1.5208613622089668
10.384615384615385,1.5632118881005461
10.404395604395603,1.6040384111209811
10.424175824175824,1.6432989164682816
10.443956043956044,1.6809529459628743
10.463736263736264,1.7169616345828078
10.483516483516484,1.7512877463093506
10.503296703296703,1.7838957090710732
10.523076923076923,1.814751648615022
10.542857142857143,1.8438234211653775
10.562637362637362,1.8710806447534418
10.582417582417584,1.8964947291221161
