Frequency (Hz),Amplitude
0.0,0.2639996500065007
0.04,0.30727745299471115
0.08,0.41047872491346116
0.12,0.5400219820947664
0.16,0.6806810627616073
0.19999999999999998,0.8263924817807077
0.24,0.9744491638249795
0.27999999999999997,1.1234567672699958
0.32,1.2725971434241425
0.36,1.4213328234450597
0.39999999999999997,1.5692754326601404
0.44,1.7161217099689208
0.48,1.8616200658019086
0.52,2.005552034182397
0.5599999999999999,2.147721471307805
0.6,2.28794800776074
0.64,2.426062946729807
0.6799999999999999,2.56190662559878
0.72,2.6953266834937297
0.76,2.826176906618999
0.7999999999999999,2.954316451751715
0.84,3.079609322881826
0.88,3.2019240206564206
0.9199999999999999,3.3211333117779787
0.96,3.4371140828488813
1.0,3.5497472543426376
1.04,3.6589177377487765
1.0799999999999998,3.764514423879585
1.1199999999999999,3.866430193698071
1.1600000000000001,3.964561945363464
1.2,4.0588106328339055
1.24,4.149081312537591
1.28,4.235283195469587
1.3199999999999998,4.317329702689551
1.3599999999999999,4.3951385226524335
1.4,4.4686316691455215
1.44,4.537735538862718
1.48,4.6023809678435565
1.52,4.662503286155753
1.5599999999999998,4.718042370317883
1.5999999999999999,4.768942693051435
1.64,4.815153370024963
1.68,4.856628203312205
1.72,4.893325721333949
1.76,4.92520921509298
1.7999999999999998,4.952246770544215
1.8399999999999999,4.974411296970052
1.88,4.9916805512546985
1.92,5.004037157972245
1.9599999999999997,5.011468625221671
2.0,5.013967356158884
2.0399999999999996,5.011530656191458
2.08,5.004160735816642
2.12,4.991864709097388
2.1599999999999997,4.974654587785654
2.2,4.952547271116557
2.2399999999999998,4.925564531312263
2.28,4.893732994850477
2.3200000000000003,4.857084119570073
2.36,4.8156541677058895
2.4,4.769484174966761
2.44,4.718619915796431
2.48,4.663111864986769
2.5199999999999996,4.603015155848132
2.56,4.538389535184548
2.6,4.469299315373348
2.6399999999999997,4.395813323913346
2.68,4.318004850885778
2.7199999999999998,4.235951594873516
2.76,4.149735608012933
2.8,4.059443241018645
2.84,3.9651650892367782
2.88,3.866995941065253
2.92,3.7650347304540555
2.96,3.6593844957005106
2.9999999999999996,3.5501523474336705
3.04,3.437449449612016
3.08,3.3213910186471143
3.1199999999999997,3.20209634757384
3.16,3.079688864759034
3.1999999999999997,2.9542962403514146
3.2399999999999998,2.8260505591152385
3.28,2.695088586402312
3.32,2.5615521663397796
3.36,2.4255888104162664
3.4,2.2873525649386752
3.44,2.147005295056979
3.4799999999999995,2.0047186052816666
3.52,1.86067675806022
3.5599999999999996,1.7150812045426624
3.5999999999999996,1.5681578099762337
3.64,1.4201687640829175
3.6799999999999997,1.2714330192410235
3.7199999999999998,1.12236310858341
3.76,0.9735354865354604
3.7999999999999994,0.8258348245884433
3.84,0.6807764654597116
3.88,0.541301951868282
3.9199999999999995,0.41393643456767987
3.96,0.3145752706396846
4.0,0.27595381755667786
4.04,0.320977596282448
4.079999999999999,0.42366790715698716
4.12,0.5525098089265541
4.16,0.6927213076391732
4.199999999999999,0.8382167977017763
4.24,0.9862233768262895
4.28,1.1352969951311345
4.319999999999999,1.2845863111507412
4.36,1.4335317959762255
4.4,1.5817300647923644
4.4399999999999995,1.7288673224761195
4.4799999999999995,1.8746843450258106
4.5200000000000005,2.0189569566108214
4.56,2.1614846122826816
4.6,2.302083451716889
4.640000000000001,2.440581933428324
4.68,2.5768180175022226
4.72,2.7106373094710454
4.76,2.84189181855059
4.8,2.9704391187737276
4.84,3.096141780328675
4.88,3.218866985674066
4.92,3.3384862741489205
4.96,3.4548753772139555
5.0,3.567914118361613
5.039999999999999,3.67748635957834
5.08,3.783479981512154
5.12,3.885786888097701
5.159999999999999,3.9843030288882364
5.2,4.078928434101616
5.24,4.169567258641534
5.279999999999999,4.256127832261229
5.319999999999999,4.338522713699371
5.36,4.416668747107642
5.3999999999999995,4.490487119455596
5.4399999999999995,4.55990341787493
5.48,4.624847686116089
5.52,4.685254479452772
5.56,4.741062917496284
5.6,4.792216734481158
5.64,4.838664326662449
5.68,4.880358796528476
5.72,4.917257993584436
5.76,4.949324551504532
5.8,4.976525921485781
5.84,4.998834401666415
5.879999999999999,5.016227162497613
5.92,5.028686267979768
5.96,5.03619869269463
5.999999999999999,5.0387563345830415
6.04,5.036356023435003
6.08,5.028999525075307
6.119999999999999,5.0166935412439555
6.16,4.999449705186621
6.2,4.977284572987197
6.239999999999999,4.950219610691781
6.279999999999999,4.918281177292507
6.32,4.881500503660432
6.359999999999999,4.839913667540108
6.3999999999999995,4.793561564745373
6.44,4.742489876727151
6.4799999999999995,4.686749034720927
6.52,4.6263941807259
6.56,4.5614851256213464
6.6,4.492086304791594
6.64,4.418266731712473
6.68,4.340099950054361
6.72,4.257663984985945
6.76,4.171041294527901
6.8,4.080318722018006
6.84,3.9855874510258444
6.88,3.886942964418183
6.92,3.7844850097578
6.959999999999999,3.6783175738635716
7.0,3.568548870233287
7.04,3.4552913442265694
7.08,3.3386617025621748
7.119999999999999,3.2187809760080315
7.16,3.0957746274467586
7.199999999999999,2.9697727222652093
7.239999999999999,2.840910184998392
7.28,2.70932717656014
7.32,2.575169642177853
7.359999999999999,2.4385901045884566
7.3999999999999995,2.299748815736855
7.4399999999999995,2.1588154429579296
7.4799999999999995,2.0159715701607723
7.52,1.8714144740328424
7.5600000000000005,1.7253629540490243
7.599999999999999,1.5780665830278966
7.64,1.429820876947889
7.68,1.2809931707716629
7.719999999999999,1.1320688748902314
7.76,0.9837389026267618
7.800000000000001,0.8370761484743526
7.839999999999999,0.693919766847144
7.88,0.5577814944461118
7.92,0.43610151647704504
7.959999999999999,0.3452884791472886
8.0,0.31392433879406834
8.040000000000001,0.3581463530769999
8.08,0.4563962120166553
8.12,0.581677270610525
8.159999999999998,0.7196791285571414
8.2,0.8639369554515006
8.24,1.011347224008525
8.28,1.1602519211857767
8.32,1.3096654074597254
8.36,1.4589420302692828
8.399999999999999,1.607621297982226
8.44,1.7553502119822406
8.48,1.9018417337691702
8.52,2.046851342507342
8.56,2.1901631884717703
8.6,2.3315815967096887
8.639999999999999,2.4709256849851506
8.68,2.6080258635281957
8.72,2.742721509536262
8.76,2.8748593962763644
8.8,3.0042926192142594
8.84,3.130879856813759
8.879999999999999,3.2544848610837676
8.92,3.374976108524531
8.959999999999999,3.492226564691778
9.0,3.6061135302273715
9.040000000000001,3.7165185458788046
9.079999999999998,3.8233273405430968
9.12,3.9264298108294975
9.16,4.025720023735012
9.2,4.1210962362123515
9.24,4.212460926971653
9.280000000000001,4.299720836986947
9.32,4.382787016005378
9.36,4.461574872968998
9.399999999999999,4.536004228716697
9.44,4.6059993696795365
9.48,4.671489101546573
9.52,4.7324068020815195
9.559999999999999,4.788690472428654
9.6,4.840282786370572
9.639999999999999,4.88713113709898
9.68,4.929187681138645
9.72,4.966409379128817
9.76,4.998758033219013
9.8,5.026200320879789
9.84,5.048707824966218
9.879999999999999,5.066257059903504
9.92,5.07882949389196
9.959999999999999,5.0864115670535615
10.0,5.088994705464851
10.04,5.086575331042482
10.079999999999998,5.079154867268135
10.12,5.066739740759859
10.16,5.049341378717624
10.2,5.026976202292348
10.24,4.999665615950757
10.280000000000001,4.967435992933872
10.319999999999999,4.930318656934905
10.36,4.888349860154957
10.4,4.841570757932003
10.44,4.790027380182971
10.48,4.7337705999510264
10.52,4.6728560994138775
10.559999999999999,4.607344333786225
10.6,4.537300493645291
10.639999999999999,4.462794466327345
10.68,4.383900797192947
10.72,4.3006986517485295
10.76,4.213271779854923
10.799999999999999,4.121708483567019
10.84,4.0261015905572375
10.879999999999999,3.926548435612065
10.92,3.8231508534029706
10.96,3.716015186686553
11.0,3.6052523153795106
11.04,3.4909777137197247
11.08,3.373311545168289
11.12,3.252378808130858
11.16,3.1283095504357807
11.2,3.001239177501932
11.24,2.871308889353421
11.28,2.738666296830045
11.319999999999999,2.6034662903213226
11.36,2.465872269793128
11.4,2.326057900714017
11.44,2.184209650542525
11.48,2.04053050945949
11.52,1.8952455527490002
11.559999999999999,1.748610448030764
11.6,1.6009248217145418
11.64,1.4525539334052415
11.68,1.3039651362290436
11.72,1.1557918667207654
11.759999999999998,1.0089515162115674
11.799999999999999,0.8648744867987225
11.84,0.7259741617417023
11.879999999999999,0.5966503629557982
11.92,0.4853735932082451
11.96,0.40785625380597657
11.999999999999998,0.38547142332732803
12.04,0.4271158340287045
12.08,0.5174728901732736
12.12,0.6358835757996689
12.16,0.7691837956837778
12.200000000000001,0.9104787917077387
12.239999999999998,1.0561438605865343
12.28,1.2041437096709855
12.32,1.3532411707992713
12.36,1.502623248987693
12.4,1.651715845973263
12.44,1.8000867814260337
12.479999999999999,1.947392316368225
12.52,2.0933462610662055
12.559999999999999,2.2377013908257024
12.6,2.380237867841404
12.64,2.52075580827706
12.68,2.659070387256465
12.719999999999999,2.7950085454495213
12.76,2.9284067338774724
12.799999999999999,3.0591093479756886
12.84,3.1869676290450837
12.88,3.311838888662125
12.92,3.43358595999434
12.959999999999999,3.5520768108837486
12.999999999999998,3.667184273730406
13.04,3.778785860618978
13.08,3.8867636412044706
13.12,3.9910041671111562
13.16,4.09139843095121
13.2,4.187841851149054
13.239999999999998,4.28023427596386
13.28,4.36848000170316
13.32,4.452487801294413
13.36,4.532170960251686
13.4,4.607447317726597
13.44,4.678239310825639
13.479999999999999,4.7444740207526115
13.52,4.806083219625
13.559999999999999,4.863003417038824
13.6,4.915175905633837
13.64,4.962546805051312
13.68,5.00506710378925
13.719999999999999,5.042692698551002
13.76,5.075384430757845
13.799999999999999,5.1031081199581685
13.84,5.125834593918145
13.88,5.143539715223629
13.919999999999998,5.156204404262372
13.959999999999999,5.163814658490664
14.0,5.166361567920935
14.04,5.1638413267972085
14.08,5.1562552414548914
14.120000000000001,5.143609734391072
14.16,5.125916344601922
14.2,5.1031917242761375
14.239999999999998,5.075457631968528
14.28,5.04274092241697
14.32,5.005073533210221
14.36,4.96249246856558
14.399999999999999,4.915039780535402
14.44,4.862762548033286
14.479999999999999,4.8057128541568845
14.52,4.743947762389259
14.56,4.677529292389546
14.6,4.606524396243514
14.64,4.531004936244146
14.68,4.451047665524076
14.719999999999999,4.366734213181398
14.76,4.278151075949583
14.799999999999999,4.185389618990918
14.84,4.088546089080791
14.879999999999999,3.9877216443536283
14.919999999999998,3.883022405977997
14.959999999999999,3.774559538728811
15.0,3.6624493695854414
15.04,3.5468135564331207
15.079999999999998,3.427779323012105
15.120000000000001,3.3054797819360964
15.159999999999998,3.1800543756237256
15.199999999999998,3.051649476477701
15.24,2.9204192043413575
15.28,2.7865265438979123
15.319999999999999,2.6501448816394295
15.36,2.511460138494419
15.399999999999999,2.370673762146793
15.439999999999998,2.228006982970892
15.48,2.083706965157275
15.52,1.938055864276007
15.559999999999999,1.7913844526465759
15.600000000000001,1.6440931186551224
15.639999999999999,1.4966851211451981
15.679999999999998,1.3498208498969673
15.72,1.2044092420465116
15.76,1.061766841784178
15.799999999999999,0.9239022882901794
15.84,0.7940305093882286
15.879999999999999,0.6774656366145685
15.919999999999998,0.5828910247426862
15.96,0.5229014294998745
16.0,0.510174354812757
16.04,0.5481189138033971
16.080000000000002,0.6275359641219994
16.12,0.7348978542155062
16.16,0.8595006950848082
16.200000000000003,0.9945252902878973
16.24,1.1358551772185554
16.279999999999998,1.280966215507549
16.319999999999997,1.4282436249886854
16.36,1.5766002680203284
16.4,1.725265032193528
16.439999999999998,1.8736629807538998
16.48,2.0213453543827513
16.52,2.167947340500162
16.56,2.313161791431066
16.6,2.4567223952339194
16.64,2.598392619937278
16.68,2.737958283993577
16.72,2.875222463506841
16.759999999999998,3.010001940917387
16.799999999999997,3.1421246923225707
16.84,3.2714280882183977
16.88,3.3977575928707284
16.919999999999998,3.520965817698017
16.96,3.640911829553064
17.0,3.757460644856976
17.04,3.870482860749872
17.080000000000002,3.9798543882289055
17.12,4.085456261816775
17.16,4.187174507033138
17.2,4.284900051734069
17.24,4.3785286708389926
17.279999999999998,4.46796095648347
17.32,4.5531023074919315
17.36,4.633862933446506
17.4,4.710157869666542
17.44,4.781907000201585
17.48,4.849035086543836
17.52,4.911471800232244
17.56,4.969151757883302
17.6,5.022014557469439
17.64,5.070004814892108
17.68,5.113072200078537
17.72,5.151171471977952
17.759999999999998,5.184262511953838
17.799999999999997,5.212310355168752
17.84,5.2352852196430515
17.88,5.253162532741369
17.919999999999998,5.265922954904732
17.96,5.2735524005036165
18.0,5.2760420557405405
18.04,5.273388393581434
18.080000000000002,5.265593185745133
18.12,5.252663511830822
18.159999999999997,5.234611765716618
18.2,5.211455659419355
18.24,5.18321822466904
18.279999999999998,5.149927812522455
18.32,5.111618091422387
18.36,5.068328044204709
18.4,5.020101964668771
18.44,4.96698945446245
18.48,4.909045421197429
18.52,4.8463300789110715
18.560000000000002,4.778908952238305
18.6,4.706852885963599
18.64,4.630238062006416
18.679999999999996,4.54914602637619
18.72,4.463663729244794
18.759999999999998,4.373883582066251
18.799999999999997,4.2799035366790905
18.84,4.18182719263043
18.88,4.079763940664232
18.919999999999998,3.973829152559198
18.96,3.864144430481303
19.0,3.7508379330083343
19.04,3.6340448003837014
19.080000000000002,3.5139077089318933
19.119999999999997,3.390577594745936
19.159999999999997,3.264214600955758
19.2,3.134989322924071
19.24,3.0030844543368005
19.279999999999998,2.8686969785598966
19.32,2.7320411103368394
19.36,2.593352283141668
19.4,2.452892613590716
19.44,2.310958482554519
19.48,2.167891195861202
19.52,2.0240921960654004
19.560000000000002,1.8800451060053966
19.6,1.736348181245889
19.639999999999997,1.5937628203629002
19.68,1.4532870241927776
19.72,1.316267455656162
19.759999999999998,1.184569553358505
19.8,1.060827839311943
19.84,0.9487817639455619
19.88,0.8536191619022557
19.919999999999998,0.7820153005395596
19.96,0.7411980835100731
20.0,0.7365253729022028
20.04,0.7687251993095411
20.08,0.8334670438132432
20.119999999999997,0.9237552088971946
20.159999999999997,1.0326457359346404
20.2,1.1545569717187056
20.24,1.285409822525597
20.279999999999998,1.422321615557099
20.32,1.5632561864632146
20.36,1.706751124967888
20.4,1.8517293580250813
20.44,1.9973744048851707
20.48,2.1430486073965245
20.52,2.288239265227674
20.560000000000002,2.4325227302152586
20.599999999999998,2.5755401151758597
20.639999999999997,2.7169806001508534
20.68,2.856569780496228
20.72,2.9940614132820857
20.759999999999998,3.1292314904498206
20.8,3.2618739296182935
20.84,3.3917974061062868
20.88,3.5188230012436916
20.92,3.6427824421397945
20.96,3.763516775167757
21.0,3.8808753610278233
21.04,3.9947151106701755
21.08,4.10489990328529
21.119999999999997,4.2113001430607
21.159999999999997,4.313792422476181
21.2,4.412259267911911
21.24,4.506588949189102
21.279999999999998,4.596675338974276
21.32,4.682417811189337
21.36,4.763721169982975
21.4,4.840495602648468
21.44,4.912656651272006
21.48,4.980125198974178
21.52,5.042827467445687
21.56,5.100695023135603
21.599999999999998,5.15366478996984
21.639999999999997,5.201679066892073
21.68,5.244685548852986
21.72,5.282637350145525
21.759999999999998,5.315493029208046
21.8,5.343216614204411
21.84,5.3657776288498376
21.88,5.383151118089543
21.92,5.395317673360495
21.96,5.402263457278838
22.0,5.40398022770155
22.04,5.400465361213659
22.08,5.39172187619568
22.119999999999997,5.377758455733076
22.16,5.358589470743974
22.2,5.3342350038267705
22.24,5.304720874470175
22.28,5.2700786664291135
22.32,5.230345758257252
22.36,5.185565358207276
22.4,5.1357865449729125
22.44,5.081064316062516
22.48,5.021459645977398
22.519999999999996,4.957039556836251
22.56,4.887877204663104
22.599999999999998,4.814051985269425
22.639999999999997,4.735649664549365
22.68,4.652762539120443
22.72,4.565489634645459
22.759999999999998,4.473936950951189
22.8,4.378217765330086
22.84,4.278453008325831
22.88,4.174771730068184
22.92,4.067311680115688
22.96,3.95622003016608
23.0,3.8416542774230757
23.04,3.7237833775800673
23.08,3.602789171286381
23.119999999999997,3.478868187975788
23.16,3.352233937978513
23.2,3.223119840583666
23.24,3.091782985898855
23.28,2.9585089971315166
23.32,2.823618354344181
23.36,2.6874746701884242
23.400000000000002,2.5504955844283796
23.44,2.413167180581399
23.479999999999997,2.2760631358102867
23.519999999999996,2.139870192228278
23.56,2.005421941720982
23.599999999999998,1.8737432026713883
23.639999999999997,1.7461070572263369
23.68,1.6241050487222202
23.72,1.5097263685015154
23.759999999999998,1.4054311314495436
23.8,1.3141825914394059
23.84,1.2393739093514595
23.88,1.1845631209632166
23.92,1.1529601031419718
23.96,1.146742265687435
23.999999999999996,1.1664698510055502
24.04,1.2109287460512785
24.08,1.2774996250625799
24.119999999999997,1.3628240350297682
24.16,1.4634334384002565
24.2,1.5761530031034723
24.24,1.6982742651013782
24.28,1.8275751854823872
24.32,1.9622665948285438
24.36,2.10091565205235
24.400000000000002,2.2423712307271226
24.439999999999998,2.3857005379990235
24.479999999999997,2.530138661280424
24.52,2.6750497021195474
24.56,2.819897312016453
24.599999999999998,2.9642225009810597
24.64,3.1076269392552827
24.68,3.249760362430015
24.72,3.3903110304693853
24.759999999999998,3.5289984611724883
24.8,3.6655678632930346
24.84,3.799785846159184
24.88,3.9314370936999152
24.92,4.060321771793267
24.959999999999997,4.186253496933584
24.999999999999996,4.309057737415274
25.04,4.428570549951072
25.08,4.544637578057089
25.119999999999997,4.657113255922313
25.16,4.7658601744701885
25.2,4.8707485760891
25.24,4.971655951903511
25.28,5.0684667210923795
25.32,5.161071976082869
25.36,5.24936928078302
25.4,5.333262511608047
25.439999999999998,5.412661733080162
25.479999999999997,5.487483101374699
25.52,5.557648790445789
25.56,5.62308693636864
25.599999999999998,5.683731596339617
25.64,5.739522719424242
25.68,5.790406126669778
25.72,5.8363334986302
25.76,5.87726236870664
25.8,5.913156121002119
25.84,5.943983991638044
25.880000000000003,5.969721072691489
25.919999999999998,5.990348318094628
25.959999999999997,6.0058525509978935
25.999999999999996,6.016226472241191
26.04,6.021468669707973
26.08,6.021583628458929
26.119999999999997,6.016581741658763
26.16,6.006479322424601
26.2,5.99129861684076
26.24,5.971067818505029
26.28,5.945821085099485
26.32,5.91559855761746
26.36,5.880446383031022
26.4,5.840416741354953
26.439999999999998,5.795567878257739
26.479999999999997,5.7459641445937875
26.52,5.691676044490099
26.56,5.632780293923201
26.599999999999998,5.569359892077766
26.64,5.501504208198498
26.68,5.429309087146098
26.72,5.352876977463208
26.76,5.2723170864688385
26.8,5.187745567755767
26.84,5.099285747496584
26.88,5.007068397210048
26.919999999999998,4.91123206214817
26.959999999999997,4.81192345629525
27.0,4.709297937195021
27.04,4.603520076528745
27.08,4.494764345660946
27.119999999999997,4.383215939375721
27.16,4.269071765890856
27.2,4.152541637123704
27.24,4.033849700268657
27.28,3.913236160202039
27.32,3.7909593521920297
27.36,3.6672982358941355
27.4,3.542555394485848
27.439999999999998,3.417060636470605
27.479999999999997,3.2911753108825277
27.52,3.1652974568457135
27.56,3.0398679111342957
27.599999999999998,2.9153774846916565
27.64,2.7923752780183015
27.68,2.671478115356119
27.72,2.5533809076645655
27.76,2.4388674608020446
27.8,2.3288207727823136
27.839999999999996,2.2242311556785825
27.88,2.1261995448188786
27.919999999999998,2.0359321818650757
27.959999999999997,1.9547217353746573
28.0,1.8839094275413226
28.04,1.8248238092493572
28.08,1.7786955372364608
28.12,1.746554321607107
28.16,1.7291228675131751
28.2,1.7267295118494272
28.240000000000002,1.739261610110927
28.28,1.766173038692258
28.32,1.8065441451632465
28.359999999999996,1.859178163761913
28.4,1.922711100996783
28.439999999999998,1.9957140932288768
28.479999999999997,2.0767750036609067
