Frequency (Hz),Amplitude
0.0,2.9765867536076973
0.020066889632107024,2.9755836776664024
0.04013377926421405,2.972576347392634
0.060200668896321065,2.9675704592697754
0.0802675585284281,2.960575520261234
0.10033444816053512,2.9516048672140696
0.12040133779264213,2.9406756943587014
0.14046822742474915,2.927809089240553
0.1605351170568562,2.9130300775171674
0.1806020066889632,2.896367677152559
0.20066889632107024,2.8778549626391947
0.22073578595317725,2.857529139976062
0.24080267558528426,2.8354316332272758
0.2608695652173913,2.8116081835776043
0.2809364548494983,2.7861089618857955
0.3010033444816054,2.7589886958092618
0.3210702341137124,2.7303068126281813
0.34113712374581934,2.700127598925252
0.3612040133779264,2.668520378267641
0.3812709030100334,2.635559707975709
0.4013377926421405,2.6013255959291324
0.42140468227424743,2.5659037381312455
0.4414715719063545,2.5293857773940904
0.4615384615384615,2.4918695829817676
0.4816053511705685,2.4534595503078775
0.5016722408026756,2.4142669187662054
0.5217391304347826,2.374410104409856
0.5418060200668896,2.3340150424016857
0.5618729096989966,2.2932155318452243
0.5819397993311036,2.252153572671744
0.6020066889632107,2.2109796806092628
0.6220735785953176,2.169853161810016
0.6421404682274248,2.1289423234167875
0.6622073578595318,2.088424590221789
0.6822742474916387,2.0484864907372136
0.7023411371237458,2.0093234687351496
0.7224080267558528,1.971139469129693
0.7424749163879598,1.934146240758293
0.7625418060200668,1.8985622943100895
0.7826086956521738,1.8646114528526914
0.802675585284281,1.8325209369566793
0.8227424749163879,1.8025189383132216
0.8428093645484949,1.7748316568610256
0.862876254180602,1.74967980806469
0.882943143812709,1.7272746491867783
0.903010033444816,1.7078136243689388
0.923076923076923,1.6914757838915475
0.9431438127090299,1.678417186419337
0.963210702341137,1.668766535703565
0.983277591973244,1.6626213258369051
1.0033444816053512,1.6600447639150533
1.0234113712374582,1.6610637017346483
1.0434782608695652,1.6656677403435496
1.0635451505016722,1.6738095803319377
1.0836120401337792,1.6854065891780095
1.1036789297658862,1.7003434596055578
1.1237458193979932,1.7184757536809745
1.1438127090301002,1.7396340761751083
1.1638795986622072,1.7636286016299856
1.1839464882943145,1.790253690742389
1.2040133779264215,1.8192923666383234
1.2240802675585283,1.8505204714517793
1.2441471571906353,1.8837103792013274
1.2642140468227423,1.9186341946065624
1.2842809364548495,1.9550664138914033
1.3043478260869565,1.9927860599783085
1.3244147157190636,2.0315783301116257
1.3444816053511706,2.0712358096898718
1.3645484949832773,2.1115593136165085
1.3846153846153846,2.1523584177922355
1.4046822742474916,2.1934517404018314
1.4247491638795986,2.234667027054878
1.4448160535117056,2.275841086922166
1.4648829431438126,2.3168196197063105
1.4849498327759196,2.3574569662182885
1.5050167224080266,2.397615808872406
1.5250836120401337,2.437166842744733
1.5451505016722407,2.4759884330224984
1.5652173913043477,2.5139662706799997
1.5852842809364547,2.550993034980129
1.605351170568562,2.5869680688271135
1.625418060200669,2.6217970709865908
1.6454849498327757,2.6553918076477347
1.6655518394648827,2.687669844642381
1.6856187290969897,2.718554300781416
1.705685618729097,2.7479736221549973
1.725752508361204,2.7758613768168883
1.745819397993311,2.802156068991346
1.765886287625418,2.8268009717677627
1.7859531772575248,2.8497439771577118
1.806020066889632,2.870937462357935
1.826086956521739,2.8903381710759026
1.846153846153846,2.9079071088186526
1.866220735785953,2.9236094511107935
1.8862876254180598,2.937414463687629
1.9063545150501673,2.9492954337979733
1.926421404682274,2.9592296118458905
1.9464882943143813,2.967198162697382
1.966555183946488,2.9731861260764982
1.9866220735785953,2.9771823855734256
2.0066889632107023,2.9791796458845563
2.026755852842809,2.9791744180013064
2.0468227424749164,2.9771670121600504
2.0668896321070234,2.9731615384605603
2.0869565217391304,2.967165915154899
2.1070234113712374,2.959191884702934
2.1270903010033444,2.949255037785394
2.1471571906354514,2.937374845559959
2.1672240802675584,2.923574700541722
2.1872909698996654,2.907881966584791
2.2073578595317724,2.890328038538199
2.2274247491638794,2.870948412244294
2.2474916387959865,2.849782765641558
2.267558528428094,2.8268750518232277
2.2876254180602005,2.8022736049864143
2.3076923076923075,2.776031260278679
2.3277591973244145,2.7482054886054805
2.3478260869565215,2.7188585474943605
2.367892976588629,2.688057649110996
2.3879598662207355,2.6558751464741186
2.408026755852843,2.6223887388047276
2.4280936454849495,2.58768169674695
2.4481605351170566,2.55184310788582
2.468227424749164,2.514968142525683
2.4882943143812706,2.4771583390378535
2.508361204013378,2.438521907184388
2.5284280936454846,2.3991740466120643
2.548494983277592,2.3592372761125824
2.568561872909699,2.318841767176342
2.5886287625418056,2.278125672737239
2.608695652173913,2.237235438722042
2.6287625418060196,2.1963260819973653
2.648829431438127,2.155561413494117
2.668896321070234,2.1151141796781716
2.688963210702341,2.0751660892087807
2.709030100334448,2.035907684796334
2.7290969899665547,1.9975380133410419
2.749163879598662,1.9602640410566676
2.769230769230769,1.9242997554190027
2.789297658862876,1.8898648937292042
2.809364548494983,1.8571832404756654
2.82943143812709,1.8264804443651543
2.849498327759197,1.7979813227211803
2.869565217391304,1.7719066473760527
2.8896321070234112,1.7484694427635725
2.9096989966555182,1.727870872676846
2.9297658862876252,1.7102958440385592
2.9498327759197323,1.695908508627973
2.9698996655518393,1.6848478894965997
2.9899665551839463,1.6772238891061246
3.0100334448160533,1.6731139428768347
3.0301003344481603,1.67256055929059
3.0501672240802673,1.6755699349452509
3.0702341137123748,1.6821117546277327
3.0903010033444813,1.6921201924724327
3.1103678929765888,1.705496033944897
3.1304347826086953,1.7221097536038465
3.1505016722408024,1.7418053216559826
3.1705685618729094,1.7644044796975602
3.1906354515050164,1.789711223518805
3.210702341137124,1.8175162541864753
3.2307692307692304,1.8476012002766775
3.250836120401338,1.8797424653850963
3.270903010033445,1.9137146078525384
3.2909698996655514,1.949293207848337
3.311036789297659,1.9862572167371486
3.3311036789297654,2.0243908134126105
3.351170568561873,2.06348481213194
3.3712374581939795,2.103337677554046
3.391304347826087,2.1437562069394014
3.411371237458194,2.184555938692211
3.4314381270903005,2.2255613423321043
3.451505016722408,2.266605838986511
3.471571906354515,2.307531694666917
3.491638795986622,2.3481898216793153
3.511705685618729,2.3884395170001764
3.531772575250836,2.428148160591884
3.551839464882943,2.467190891556569
3.5719063545150496,2.50545027575263
3.591973244147157,2.5428159749821684
3.612040133779264,2.5791844250237013
3.632107023411371,2.614458527542478
3.652173913043478,2.6485473591680218
3.672240802675585,2.6813658996980463
3.692307692307692,2.712834780391419
3.712374581939799,2.7428800525830117
3.732441471571906,2.7714329763331067
3.752508361204013,2.79842982846676
3.7725752508361197,2.823811729126181
3.7926421404682276,2.847524485821387
3.8127090301003346,2.8695184538972907
3.832775919732441,2.8897484123201833
3.852842809364548,2.908173453708912
3.872909698996655,2.9247568875852186
3.8929765886287626,2.939466155884807
3.9130434782608696,2.9522727598504734
3.933110367892976,2.9631521975157193
3.953177257525083,2.972083911079091
3.9732441471571907,2.979051243563547
3.9933110367892977,2.984041404250088
4.013377926421405,2.987045442469547
4.033444816053511,2.9880582294308327
4.053511705685618,2.987078447857037
4.073578595317726,2.984108589293847
4.093645484949833,2.9791549590461934
4.113712374581939,2.9722276887909778
4.133779264214047,2.9633407570048567
4.153846153846153,2.952512017437318
4.173913043478261,2.9397632359506987
4.193979933110368,2.925120136139807
4.214046822742475,2.908612454234885
4.234113712374581,2.8902740038810295
4.254180602006689,2.87014275147481
4.274247491638796,2.8482609028220067
4.294314381270903,2.824675001957049
4.314381270903009,2.799436043031177
4.334448160535117,2.772599596227073
4.354515050167224,2.7442259486868017
4.374581939799331,2.7143802614373467
4.394648829431437,2.6831327432528767
4.414715719063545,2.6505588422893536
4.434782608695651,2.6167394561455772
4.454849498327759,2.5817611607205664
4.474916387959866,2.545716457819094
4.494983277591973,2.508704040866275
4.5150501672240795,2.470829077282247
4.535117056856188,2.4322035049822452
4.555183946488294,2.3929463390411705
4.575250836120401,2.353183982720748
4.595317725752508,2.313050534721441
4.615384615384615,2.2726880816095782
4.635451505016722,2.2322469608077755
4.655518394648829,2.1918859752713535
4.6755852842809364,2.1517725359932056
4.695652173913043,2.11208270284255
4.71571906354515,2.0730010881168766
4.735785953177258,2.034720580891797
4.7558528428093645,1.997441844320885
4.775919732441471,1.9613725332530105
4.795986622073578,1.9267261769803703
4.816053511705686,1.8937206729772222
4.8361204013377925,1.8625763437333844
4.856187290969899,1.8335135218820373
4.8762541806020065,1.806749650189552
4.896321070234113,1.7824959133869056
4.916387959866221,1.7609534578833423
4.936454849498328,1.7423093010475161
4.956521739130435,1.7267320798925196
4.976588628762541,1.7143678336103436
4.996655518394649,1.7053360480452397
5.016722408026756,1.699726205303803
5.036789297658863,1.697595072260007
5.056856187290969,1.6989649250554608
5.076923076923077,1.7038228447845205
5.096989966555184,1.712121139248326
5.117056856187291,1.7237788576605464
5.137123745819398,1.7386842818566521
5.157190635451505,1.7566982102474602
5.177257525083611,1.7776578074264968
5.197324414715719,1.8013807761968517
5.217391304347826,1.8276696182209053
5.237458193979933,1.8563157791785012
5.257525083612039,1.8871035168945132
5.277591973244148,1.9198133787716516
5.297658862876254,1.9542252215706428
5.317725752508361,1.9901207475284945
5.337792642140468,2.0272855634533813
5.357859531772575,2.0655107930138965
5.377926421404682,2.104594287481376
5.397993311036789,2.1443414879886062
5.418060200668896,2.1845659945632825
5.438127090301003,2.2250898954086358
5.458193979933109,2.2657439055728137
5.478260869565218,2.306367358427881
5.498327759197324,2.3468080871252965
5.518394648829431,2.3869222269976222
5.538461538461538,2.426573964103202
5.558528428093646,2.465635249963044
5.578595317725752,2.503985498098503
5.598662207357859,2.5415112742475596
5.618729096989966,2.5781059890722564
5.638795986622073,2.613669599698937
5.65886287625418,2.648108324477514
5.678929765886288,2.6813343738234177
5.698996655518394,2.71326569884234
5.719063545150501,2.7438257585642276
5.739130434782608,2.772943305972152
5.759197324414716,2.8005521925538237
5.7792642140468224,2.8265911907886285
5.799331103678929,2.851003833777923
5.8193979933110365,2.8737382711046506
5.839464882943144,2.894747139949646
5.8595317725752505,2.9139874504792
5.879598662207358,2.9314204845399043
5.8996655518394645,2.9470117067418293
5.919732441471571,2.9607306870734886
5.9397993311036785,2.972551034265008
5.959866220735786,2.982450339197061
5.9799331103678925,2.990410127737949
5.999999999999999,2.996415822479033
6.020066889632107,3.0004567129271997
6.040133779264214,3.002525933802058
6.060200668896321,3.0026204511740104
6.080267558528428,3.000741056267461
6.100334448160535,2.9968923668406644
6.120401337792642,2.9910828361407127
6.1404682274247495,2.9833247695182092
6.160535117056856,2.973634348872092
6.180602006688963,2.9620316651801675
6.200668896321069,2.9485407594554642
6.2207357859531776,2.93318967255176
6.240802675585284,2.916010504323058
6.260869565217391,2.8970394827200296
6.280936454849498,2.8763170434800767
6.301003344481605,2.8538879211336683
6.321070234113712,2.8298012521053293
6.341137123745819,2.804110690727547
6.361204013377926,2.77687453900472
6.381270903010033,2.7481558909529347
6.40133779264214,2.7180227922901867
6.421404682274248,2.6865484161462336
6.441471571906354,2.6538112552850897
6.461538461538461,2.619895331063656
6.481605351170568,2.584890418960883
6.501672240802676,2.5488922899696007
6.521739130434782,2.5120029664077093
6.54180602006689,2.474330989729775
6.561872909698996,2.435991696648807
6.581939799331103,2.3971074982500666
6.60200668896321,2.3578081547276386
6.622073578595318,2.3182310358336817
6.642140468227424,2.278521354039784
6.662207357859531,2.238832353727157
6.682274247491639,2.199325435439341
6.702341137123746,2.1601701893960827
6.722408026755852,2.121544307215449
6.742474916387959,2.083633335381705
6.762541806020066,2.0466302288530924
6.782608695652174,2.0107346589546955
6.80267558528428,1.9761520272107793
6.822742474916388,1.9430921371391174
6.842809364548494,1.911767480549526
6.862876254180601,1.8823911049288446
6.882943143812709,1.855174045287916
6.903010033444816,1.8303223281786416
6.9230769230769225,1.8080335874058313
6.94314381270903,1.7884933689513063
6.963210702341137,1.7718712439167983
6.983277591973244,1.7583168883553362
7.0033444816053505,1.7479563218571064
7.023411371237458,1.7408885163374812
7.0434782608695645,1.7371825870286273
7.063545150501672,1.7368757557607648
7.083612040133779,1.7399722321979894
7.103678929765886,1.7464430957192716
7.123745819397993,1.7562271866726602
7.143812709030099,1.7692329405973002
7.1638795986622075,1.7853410327657164
7.183946488294314,1.8044076512713596
7.204013377926421,1.8262681897140267
7.224080267558528,1.8507411461659005
7.2441471571906355,1.8776320307728434
7.264214046822742,1.9067371148160843
7.2842809364548495,1.9378468930292427
7.304347826086956,1.970749172395117
7.324414715719063,2.0052317396717543
7.34448160535117,2.0410845932626023
7.364548494983278,2.0781017511085347
7.384615384615384,2.116082664735386
7.404682274247491,2.154833281069344
7.424749163879598,2.1941667992950356
7.444816053511706,2.233904171234987
7.464882943143812,2.2738743917964457
7.48494983277592,2.313914622110913
7.505016722408026,2.3538701830012343
7.525083612040134,2.393594451029391
7.545150501672239,2.432948684072762
7.565217391304348,2.4718017984392433
7.585284280936455,2.5100301151228686
7.605351170568561,2.5475170889863095
7.625418060200669,2.584153031438163
7.645484949832775,2.6198348345143994
7.665551839464882,2.6544657021184337
7.685618729096991,2.6879548924568915
7.705685618729096,2.7202174743619647
7.725752508361204,2.751174099153316
7.74581939799331,2.780750788906687
7.765886287625418,2.808878741413457
7.785953177257525,2.835494151693784
7.806020066889631,2.860538049631243
7.826086956521739,2.883956153100554
7.846153846153847,2.905698735839145
7.866220735785952,2.9257205092501257
7.88628762541806,2.943980517303693
7.906354515050166,2.960442043715461
7.926421404682274,2.975072530614686
7.946488294314381,2.9878435079661188
7.966555183946488,2.998730533071744
7.986622073578595,3.007713139548513
8.006688963210701,3.014774795253347
8.02675585284281,3.0199028687046727
8.046822742474916,3.023088603629462
8.066889632107022,3.024327101345025
8.08695652173913,3.023617310765627
8.107023411371236,3.020962025903862
8.127090301003344,3.0163678908166447
8.147157190635452,3.0098454120246654
8.167224080267557,3.0014089785122313
8.187290969899665,2.9910768894915445
8.207357859531772,2.978871390190999
8.227424749163879,2.964818716000716
8.247491638795987,2.948949145379297
8.267558528428093,2.9312970619923657
8.2876254180602,2.911901026614429
8.307692307692307,2.890803859378101
8.327759197324415,2.86805273299599
8.347826086956522,2.843699277605814
8.367892976588628,2.817799697893353
8.387959866220736,2.7904149031228767
8.408026755852843,2.7616106506417624
8.42809364548495,2.731457703312713
8.448160535117056,2.7000320011489536
8.468227424749163,2.667414847165653
8.488294314381271,2.633693107092607
8.508361204013378,2.598959422090583
8.528428093645484,2.5633124329442385
8.548494983277592,2.5268570133293013
8.568561872909697,2.4897045086274225
8.588628762541806,2.451972975339401
8.608695652173914,2.4137874143763876
8.628762541806019,2.3752799893380034
8.648829431438127,2.3365902182732308
8.668896321070234,2.2978651243360653
8.68896321070234,2.2592593271939316
8.709030100334449,2.2209350530678447
8.729096989966555,2.1830620369937628
8.749163879598662,2.1458172865025045
8.769230769230768,2.109384671754972
8.789297658862875,2.073954303727457
8.809364548494983,2.0397216599810264
8.82943143812709,2.006886417707975
8.849498327759196,1.9756509571127876
8.869565217391303,1.9462185058043127
8.889632107023411,1.918790907720242
8.909698996655518,1.8935660188461012
8.929765886287624,1.8707347567258623
8.949832775919733,1.8504778607089332
8.96989966555184,1.8329624531283524
8.989966555183946,1.8183385250094102
9.010033444816054,1.8067354992308193
9.030100334448159,1.7982590444588786
9.050167224080267,1.7929883200080141
9.070234113712376,1.7909738216322129
9.09030100334448,1.7922359699187704
9.110367892976589,1.7967645381082418
9.130434782608695,1.8045189593958577
9.150501672240802,1.8154294919333767
9.17056856187291,1.829399160693448
9.190635451505017,1.8463063463787648
9.210702341137123,1.8660078580168138
9.23076923076923,1.8883423103363075
9.250836120401337,1.9131336290754615
9.270903010033445,1.940194524170539
9.290969899665551,1.9693297979295372
9.311036789297658,2.0003393879341758
9.331103678929765,2.033021078055862
9.351170568561873,2.0671728421221656
9.37123745819398,2.102594811156249
9.391304347826086,2.139090875639946
9.411371237458194,2.176469948788924
9.4314381270903,2.214546925907126
9.451505016722408,2.253143379412454
9.471571906354516,2.2920880301395905
9.49163879598662,2.331217034042093
9.511705685618729,2.370374120320936
9.531772575250837,2.409410613014483
9.551839464882942,2.44818536373304
9.57190635451505,2.4865646188852764
9.591973244147155,2.5244218406662173
9.612040133779264,2.5616374973966094
9.632107023411372,2.598098835584028
9.652173913043477,2.6336996433295825
9.672240802675585,2.668340012409368
9.692307692307692,2.701926104477051
9.712374581939798,2.7343699253146805
9.732441471571907,2.7655891098516454
9.752508361204013,2.7955067197274763
9.77257525083612,2.824051054447564
9.792642140468226,2.851155476631871
9.812709030100335,2.876758251450637
9.832775919732441,2.9008024000493022
9.852842809364548,2.9232355665624645
9.872909698996656,2.94400989818484
9.89297658862876,2.9630819376888415
9.91304347826087,2.980412527741841
9.933110367892976,2.995966726370395
9.953177257525082,3.0097137329362473
9.97324414715719,3.0216268240235507
9.993311036789297,3.031683298683526
10.013377926421404,3.0398644325383355
10.033444816053512,3.0461554403072912
10.053511705685617,3.0505454463840658
10.073578595317725,3.0530274631611327
10.093645484949834,3.0535983768669963
10.113712374581938,3.052258940751262
10.133779264214047,3.049013775522312
10.153846153846153,3.0438713770112207
10.17391304347826,3.0368441311037357
10.193979933110368,3.0279483360484343
10.214046822742475,3.017204232313912
10.234113712374581,3.0046360402292844
10.254180602006688,2.990272005700461
10.274247491638796,2.9741444543472815
10.294314381270903,2.956289854452777
10.31438127090301,2.936748889152512
10.334448160535118,2.915566538316543
10.354515050167223,2.892792170584823
10.37458193979933,2.868479646003759
10.394648829431437,2.8426874296707685
10.414715719063544,2.815478716716584
10.434782608695652,2.786921568831971
10.454849498327757,2.757089062363333
10.474916387959865,2.726059447745568
10.494983277591974,2.69391631969143
10.515050167224079,2.660748797093099
10.535117056856187,2.6266517109870895
10.555183946488295,2.591725798159471
10.5752508361204,2.5560778969906774
10.595317725752508,2.5198211409234106
10.615384615384615,2.4830751434464897
10.635451505016722,2.4459661666886316
10.65551839464883,2.408627263581787
10.675585284280936,2.371198381070658
10.695652173913043,2.3338264090232586
10.71571906354515,2.296665156381919
10.735785953177256,2.259875232781963
10.755852842809364,2.2236238105216874
10.775919732441471,2.18808423864864
10.795986622073578,2.1534354783958434
10.816053511705684,2.1198613277416922
10.836120401337793,2.087549403081948
10.856187290969899,2.056689848592675
