Frequency (Hz),Amplitude
0.0,5.975281204817703
0.01978021978021978,5.97591093564283
0.03956043956043956,5.977797302476011
0.05934065934065934,5.980931846663697
0.07912087912087912,5.9853005311237775
0.0989010989010989,5.990883830535756
0.11868131868131868,5.997656855986775
0.13846153846153844,6.005589512501928
0.15824175824175823,6.014646687505232
0.17802197802197803,6.024788467922279
0.1978021978021978,6.035970383353407
0.21758241758241756,6.048143672521834
0.23736263736263735,6.061255570036917
0.2571428571428572,6.075249610409368
0.2769230769230769,6.090065946211554
0.2967032967032967,6.105641677288098
0.31648351648351647,6.121911187986951
0.3362637362637363,6.138806489491311
0.35604395604395606,6.156257564483336
0.3758241758241758,6.174192711553891
0.3956043956043956,6.192538886980807
0.4153846153846154,6.211222041725534
0.4351648351648351,6.230167451736181
0.45494505494505494,6.249300039888638
0.4747252747252747,6.268544688140538
0.4945054945054945,6.287826538709921
0.5142857142857143,6.307071283318374
0.5340659340659341,6.326205439752618
0.5538461538461538,6.345156615197513
0.5736263736263736,6.363853755974488
0.5934065934065934,6.382227383482082
0.6131868131868132,6.400209816278467
0.6329670329670329,6.417735378370122
0.6527472527472528,6.434740593875777
0.6725274725274726,6.4511643683222815
0.6923076923076923,6.466948156898864
0.7120879120879121,6.482036120050757
0.7318681318681318,6.496375266832682
0.7516483516483516,6.509915586469459
0.7714285714285715,6.522610168585598
0.7912087912087912,6.534415312570171
0.810989010989011,6.545290626538644
0.8307692307692308,6.5551991163405425
0.8505494505494506,6.564107265042669
0.8703296703296702,6.571985103292449
0.8901098901098901,6.57880627093625
0.9098901098901099,6.584548070233682
0.9296703296703297,6.589191510971917
0.9494505494505494,6.592721347744515
0.9692307692307692,6.595126109617593
0.989010989010989,6.5963981223626735
1.0087912087912088,6.596533523391505
1.0285714285714287,6.5955322694823275
1.0483516483516484,6.593398137341536
1.0681318681318681,6.590138716998225
1.087912087912088,6.585765397983132
1.1076923076923075,6.58029334819733
1.1274725274725275,6.573741485330817
1.1472527472527472,6.566132440646288
1.1670329670329669,6.557492514900164
1.1868131868131868,6.547851626131162
1.2065934065934065,6.5372432490065195
1.2263736263736265,6.525704345379375
1.2461538461538462,6.513275285676219
1.2659340659340659,6.49999976070364
1.2857142857142858,6.4859246834384265
1.3054945054945055,6.471100080345026
1.3252747252747252,6.455578971752127
1.3450549450549452,6.439417240814982
1.3648351648351649,6.422673490594253
1.3846153846153846,6.405408888797139
1.4043956043956045,6.387686999752923
1.4241758241758242,6.369573603235003
1.443956043956044,6.351136499796054
1.4637362637362636,6.332445302353167
1.4835164835164834,6.313571213847856
1.5032967032967033,6.294586790911536
1.523076923076923,6.275565693591954
1.542857142857143,6.256582421340593
1.5626373626373626,6.237712035624658
1.5824175824175823,6.21902986970992
1.6021978021978023,6.20061122636114
1.621978021978022,6.182531064422934
1.6417582417582417,6.164863675473529
1.6615384615384616,6.14768235198335
1.6813186813186813,6.131059048655489
1.7010989010989013,6.115064038870877
1.720879120879121,6.099765568401692
1.7406593406593405,6.085229508785791
1.7604395604395604,6.071519012965439
1.7802197802197801,6.058694175978927
1.7999999999999998,6.046811703645411
1.8197802197802198,6.035924592295493
1.8395604395604395,6.026081822665359
1.8593406593406594,6.017328071085246
1.879120879120879,6.009703441049227
1.8989010989010988,6.003243218149521
1.9186813186813187,5.997977651193191
1.9384615384615385,5.993931762093421
1.9582417582417584,5.991125186843231
1.978021978021978,5.989572049541806
1.9978021978021978,5.989280871059058
2.0175824175824175,5.990254513500514
2.0373626373626372,5.992490161182844
2.0571428571428574,5.995979338360525
2.076923076923077,6.000707963468649
2.096703296703297,6.006656439177078
2.1164835164835165,6.0137997770998215
2.1362637362637362,6.022107755579982
2.1560439560439564,6.031545108586867
2.175824175824176,6.042071743424013
2.195604395604396,6.053642984663683
2.215384615384615,6.066209841497332
2.2351648351648348,6.079719295527199
2.254945054945055,6.094114605920088
2.2747252747252746,6.109335628800996
2.2945054945054943,6.125319147777002
2.314285714285714,6.1419992125470815
2.3340659340659338,6.159307482665029
2.353846153846154,6.177173573674321
2.3736263736263736,6.195525403017952
2.3934065934065933,6.214289533336409
2.413186813186813,6.233391510994994
2.4329670329670328,6.252756197921741
2.452747252747253,6.272308095081674
2.4725274725274726,6.291971656157472
2.4923076923076923,6.3116715902449965
2.512087912087912,6.331333152600588
2.5318681318681318,6.350882422692452
2.5516483516483515,6.3702465690078185
2.5714285714285716,6.389354100249414
2.5912087912087913,6.408135102717783
2.610989010989011,6.42652146381956
2.6307692307692307,6.444447081766392
2.6505494505494505,6.461848061634256
2.6703296703296706,6.478662898040523
2.6901098901098903,6.494832644766087
2.70989010989011,6.510301071704136
2.7296703296703297,6.525014809556712
2.7494505494505495,6.5389234827267595
2.769230769230769,6.55197983086783
2.7890109890109893,6.5641398195578295
2.808791208791209,6.575362740558205
2.8285714285714287,6.58561130210725
2.8483516483516484,6.594851709676242
2.8681318681318677,6.603053737592274
2.887912087912088,6.610190791901012
2.9076923076923076,6.616239964808896
2.9274725274725273,6.621182081006723
2.947252747252747,6.625001736136577
2.9670329670329667,6.627687327622265
2.986813186813187,6.629231078039158
3.0065934065934066,6.629629051155062
3.0263736263736263,6.628881160727405
3.046153846153846,6.626991172095785
3.0659340659340657,6.623966696562301
3.085714285714286,6.619819178505129
3.1054945054945056,6.61456387512421
3.1252747252747253,6.608219828672173
3.145054945054945,6.600809830977931
3.1648351648351647,6.592360380026526
3.184615384615385,6.582901628316353
3.2043956043956046,6.572467322673879
3.2241758241758243,6.561094735168997
3.243956043956044,6.548824584738201
3.2637362637362637,6.535700949093274
3.2835164835164834,6.521771166466543
3.3032967032967036,6.507085726723717
3.3230769230769233,6.4916981513625025
3.342857142857143,6.475664861909327
3.3626373626373627,6.459045036231073
3.3824175824175824,6.441900452293226
3.4021978021978025,6.424295318922561
3.4219780219780223,6.406296093173053
3.441758241758242,6.387971283948763
3.4615384615384617,6.369391241609088
3.481318681318681,6.350627933371067
3.501098901098901,6.3317547044312015
3.520879120879121,6.312846024856394
3.5406593406593405,6.293977222441119
3.5604395604395602,6.2752242018947335
3.58021978021978,6.256663150909196
3.5999999999999996,6.23837023386253
3.61978021978022,6.220421274133595
3.6395604395604395,6.2028914262389385
3.659340659340659,6.185854839246996
3.679120879120879,6.169384313175412
3.6989010989010986,6.153550950329081
3.718681318681319,6.138423803782188
3.7384615384615385,6.124069525442291
3.758241758241758,6.110552016349976
3.7780219780219784,6.097932082056646
3.7978021978021976,6.086267096078913
3.8175824175824173,6.075610674541995
3.8373626373626375,6.0660123651917965
3.8571428571428568,6.057517353968078
3.876923076923077,6.050166192286148
3.896703296703296,6.0439945480681345
3.916483516483517,6.039032983395554
3.936263736263736,6.035306761423524
3.956043956043956,6.032835684906304
3.9758241758241755,6.031633968338054
3.9956043956043956,6.031710145319603
4.015384615384615,6.03306701232908
4.035164835164835,6.0357016096127065
4.054945054945055,6.03960523943245
4.0747252747252745,6.044763521422
4.094505494505494,6.0511564843237675
4.114285714285715,6.058758692919631
4.134065934065934,6.067539408537539
4.153846153846154,6.07746278112569
4.173626373626373,6.088488070543737
4.193406593406594,6.100569894433141
4.213186813186813,6.113658499801163
4.232967032967033,6.127700055287298
4.252747252747253,6.1426369609777955
4.2725274725274724,6.158408172591946
4.292307692307692,6.174949536879262
4.312087912087913,6.192194135135566
4.331868131868132,6.210072631861569
4.351648351648352,6.228513625743981
4.371428571428571,6.247444000328254
4.391208791208792,6.266789271967321
4.410989010989011,6.286473932863832
4.43076923076923,6.306421787268199
4.450549450549451,6.3265562791441905
4.4703296703296695,6.346800809862004
4.49010989010989,6.367079044721499
4.50989010989011,6.387315207339762
4.52967032967033,6.4074343611558175
4.549450549450549,6.42736267750715
4.569230769230769,6.447027689916438
4.589010989010989,6.466358534391724
4.608791208791209,6.485286175687971
4.628571428571428,6.503743619603269
4.648351648351649,6.521666111488782
4.6681318681318675,6.538991321239164
4.687912087912088,6.5556595151000945
4.707692307692308,6.571613714683896
4.7274725274725276,6.58679984362301
4.747252747252747,6.601166862317425
4.767032967032967,6.614666891245686
4.786813186813187,6.627255323312839
4.806593406593407,6.6388909257027455
4.826373626373626,6.649535931688442
4.846153846153847,6.659156122833788
4.8659340659340655,6.6677209019933015
4.885714285714286,6.675203357485975
4.905494505494506,6.68158031878386
4.9252747252747255,6.686832404017799
4.945054945054945,6.690944059561704
4.964835164835165,6.693903591913724
4.984615384615385,6.69570319204791
5.004395604395604,6.696338952363983
5.024175824175824,6.695810876315955
5.043956043956045,6.694122880752805
5.0637362637362635,6.691282790956709
5.083516483516483,6.687302328316285
5.103296703296703,6.682197090524705
5.123076923076923,6.675986524145313
5.142857142857143,6.668693889340974
5.162637362637362,6.660346216517987
5.182417582417583,6.650974254592132
5.2021978021978015,6.640612410541926
5.221978021978022,6.6292986798762925
5.241758241758242,6.617074567607026
5.2615384615384615,6.60398499928557
5.281318681318681,6.590078221636402
5.301098901098901,6.575405692298735
5.320879120879121,6.5600219581744685
5.340659340659341,6.543984521874783
5.36043956043956,6.5273536957618195
5.380219780219781,6.5101924430970675
5.3999999999999995,6.492566205835573
5.41978021978022,6.474542718646694
5.43956043956044,6.456191808798999
5.4593406593406595,6.437585181621081
5.479120879120879,6.418796191341905
5.498901098901099,6.3998995972260015
5.518681318681319,6.380971305050365
5.538461538461538,6.362088094122162
5.558241758241758,6.34332733020916
5.578021978021979,6.32476666494789
5.5978021978021975,6.306483722506118
5.617582417582418,6.28855577450506
5.637362637362637,6.271059404449329
5.6571428571428575,6.254070163166235
5.676923076923077,6.237662217014909
5.696703296703297,6.221907990886184
5.716483516483517,6.206877808267876
5.736263736263735,6.192639530892938
5.756043956043956,6.179258200709315
5.775824175824176,6.166795687105829
5.795604395604395,6.155310342487301
5.815384615384615,6.144856669409357
5.835164835164835,6.135485002549744
5.854945054945055,6.127241208804957
5.874725274725275,6.120166408751
5.894505494505494,6.1142967225948395
5.914285714285715,6.109663043564644
5.934065934065933,6.106290841445259
5.953846153846154,6.104199998661482
5.973626373626374,6.1034046809522895
5.993406593406593,6.103913244270112
6.013186813186813,6.105728179090793
6.032967032967033,6.108846092841542
6.052747252747253,6.11325773065865
6.072527472527473,6.11894803418621
6.092307692307692,6.1258962376341834
6.112087912087913,6.134075999841287
6.131868131868131,6.143455570647462
6.151648351648352,6.153997989481292
6.171428571428572,6.165661313719667
6.191208791208791,6.178398874085853
6.210989010989011,6.192159554122916
6.230769230769231,6.2068880906148305
6.2505494505494505,6.22252539172737
6.270329670329671,6.239008869603191
6.29010989010989,6.256272784167856
6.309890109890111,6.274248594979172
6.329670329670329,6.292865318076591
6.349450549450549,6.3120498849522875
6.36923076923077,6.331727500963989
6.3890109890109885,6.35182200073368
6.408791208791209,6.372256198318457
6.428571428571428,6.39295223019273
6.4483516483516485,6.413831889338203
6.468131868131868,6.434816948993286
6.487912087912088,6.455829474862366
6.507692307692308,6.476792124822339
6.527472527472527,6.497628435386833
6.547252747252747,6.518263094394021
6.567032967032967,6.538622199570797
6.5868131868131865,6.558633502792568
6.606593406593407,6.578226640004664
6.626373626373626,6.597333346897114
6.6461538461538465,6.615887660530899
6.665934065934065,6.633826107201403
6.685714285714286,6.651087876894143
6.705494505494506,6.667614984741282
6.725274725274725,6.683352419925643
6.745054945054945,6.6982482825033625
6.764835164835165,6.712253908629251
6.7846153846153845,6.725323984670637
6.804395604395605,6.737416650688096
6.824175824175824,6.748493593746486
6.8439560439560445,6.758520131497035
6.863736263736263,6.767465286443851
6.883516483516484,6.77530185127511
6.903296703296704,6.782006445602675
6.923076923076923,6.787559564413883
6.942857142857143,6.791945618496569
6.962637362637362,6.795152967053961
6.9824175824175825,6.7971739426794215
7.002197802197802,6.798004868813778
7.021978021978022,6.797646069759263
7.041758241758242,6.796101873275296
7.061538461538461,6.793380605731662
7.081318681318681,6.789494579745354
7.101098901098901,6.784460074178137
7.1208791208791204,6.778297306322865
7.140659340659341,6.771030396059066
7.16043956043956,6.762687321710965
7.1802197802197805,6.753299867296544
7.199999999999999,6.742903560812858
7.21978021978022,6.73153760316251
7.23956043956044,6.719244787289494
7.259340659340659,6.706071407059786
7.279120879120879,6.692067155394639
7.298901098901099,6.67728501114305
7.318681318681318,6.661781114166184
7.338461538461539,6.645614628100943
7.358241758241758,6.628847590274822
7.3780219780219785,6.6115447482603
7.397802197802197,6.593773382586517
7.417582417582418,6.575603115169877
7.437362637362638,6.557105703085607
7.457142857142857,6.538354817380017
7.476923076923077,6.519425806720729
7.496703296703297,6.500395445799033
7.516483516483516,6.481341668537291
7.536263736263736,6.4623432863140735
7.556043956043957,6.44347969160166
7.575824175824176,6.424830547612419
7.595604395604395,6.40647546477323
7.615384615384615,6.388493665086246
7.635164835164835,6.370963635688544
7.654945054945055,6.353962773187756
7.674725274725275,6.3375670206215595
7.694505494505494,6.321850499159336
7.7142857142857135,6.306885136928865
7.734065934065935,6.292740297601528
7.753846153846154,6.279482411598874
7.7736263736263735,6.267174612983085
7.793406593406592,6.255876385256354
7.813186813186814,6.245643219410561
7.832967032967034,6.236526287633028
7.852747252747252,6.228572136079291
7.872527472527472,6.221822400065464
7.892307692307693,6.216313544907731
7.912087912087912,6.212076635443443
7.931868131868132,6.209137137008668
7.951648351648351,6.207514750323565
7.971428571428572,6.207223282356056
7.991208791208791,6.208270554802825
8.010989010989011,6.210658351355401
8.03076923076923,6.214382404418348
8.05054945054945,6.219432421429804
8.07032967032967,6.2257921504141995
8.09010989010989,6.2334394838867535
8.10989010989011,6.242346599741862
8.129670329670331,6.252480137305094
8.149450549450549,6.26380140632075
8.169230769230769,6.276266626294382
8.189010989010988,6.289827193316496
8.20879120879121,6.304429971266841
8.22857142857143,6.3200176041380765
8.248351648351647,6.336528846125242
8.268131868131867,6.353898906098712
8.287912087912087,6.372059803112
8.307692307692308,6.390940729683608
8.327472527472528,6.41046841972967
8.347252747252746,6.430567518202201
8.367032967032966,6.451160949699581
8.386813186813187,6.472170283552807
8.406593406593407,6.493516093145202
8.426373626373627,6.515118307487275
8.446153846153845,6.5368965533357875
8.465934065934066,6.5587704864101735
8.485714285714286,6.580660110515233
8.505494505494505,6.60248608362308
8.525274725274725,6.624170010194508
8.545054945054945,6.645634719229938
8.564835164835165,6.666804527729134
8.584615384615384,6.68760548940785
8.604395604395604,6.707965628666439
8.624175824175826,6.727815159932088
8.643956043956043,6.747086692601881
8.663736263736263,6.765715421900564
8.683516483516483,6.783639306034977
8.703296703296704,6.800799230078726
8.723076923076924,6.817139157056863
8.742857142857142,6.832606266722836
8.762637362637362,6.847151082530328
8.782417582417583,6.860727587302101
8.802197802197803,6.87329332808843
8.821978021978023,6.884809510689776
8.84175824175824,6.895241084294089
8.86153846153846,6.904556816648615
8.881318681318682,6.912729360151312
8.901098901098901,6.919735309207908
8.920879120879121,6.925555249158416
8.940659340659339,6.930173797032346
8.96043956043956,6.933579634344976
8.98021978021978,6.935765532098601
9.0,6.936728368103241
9.01978021978022,6.9364691366807305
9.03956043956044,6.934992950765084
9.05934065934066,6.932309036360721
9.079120879120879,6.928430719268804
9.098901098901099,6.92337540394072
9.11868131868132,6.917164544267254
9.138461538461538,6.909823606062266
9.158241758241758,6.901382020951241
9.178021978021977,6.891873131328325
9.197802197802199,6.881334126001263
9.217582417582419,6.869805966101673
9.237362637362637,6.857333300800811
9.257142857142856,6.843964372337088
9.276923076923078,6.829750909834132
9.296703296703297,6.814748011366725
9.316483516483517,6.799014013718822
9.336263736263735,6.782610349273477
9.356043956043957,6.765601389481381
9.375824175824176,6.748054274373429
9.395604395604396,6.7300387276157405
9.415384615384616,6.711626856653867
9.435164835164835,6.692892937558718
9.454945054945055,6.673913184271325
9.474725274725275,6.65476550204808
9.494505494505495,6.635529225034496
9.514285714285714,6.616284838043741
9.534065934065934,6.597113682787305
9.553846153846154,6.578097648998546
9.573626373626373,6.559318851105519
9.593406593406593,6.540859291344535
9.613186813186815,6.522800510459642
9.632967032967032,6.505223227400916
9.652747252747252,6.488206969713016
9.672527472527472,6.471829696588505
9.692307692307693,6.456167416843266
9.712087912087913,6.441293804345174
9.731868131868131,6.427279813686319
9.75164835164835,6.414193299123052
9.771428571428572,6.402098640010511
9.791208791208792,6.391056376118829
9.810989010989012,6.38112285633015
9.83076923076923,6.372349904270523
9.850549450549451,6.364784504423015
9.87032967032967,6.358468512193495
9.89010989010989,6.353438391254839
9.90989010989011,6.349724981278694
9.92967032967033,6.3473532988783194
9.94945054945055,6.346342374234495
9.96923076923077,6.346705125466188
9.989010989010989,6.348448272347429
10.008791208791209,6.351572290471447
10.028571428571428,6.35607140643574
10.048351648351648,6.361933634080159
10.068131868131868,6.36914085126847
10.08791208791209,6.377668916175704
10.107692307692307,6.3874878215429245
10.127472527472527,6.398561884899387
10.147252747252747,6.410849972340299
10.167032967032966,6.424305753095217
10.186813186813188,6.438877981833808
10.206593406593406,6.454510805436385
10.226373626373626,6.471144090807633
10.246153846153845,6.48871377023307
10.265934065934067,6.507152200765687
10.285714285714286,6.526388534180511
10.305494505494504,6.546349094141378
10.325274725274724,6.566957757379485
10.345054945054946,6.588136335879659
10.364835164835165,6.609804957298886
10.384615384615385,6.631882441094322
10.404395604395603,6.654286668106739
10.424175824175824,6.676934941621979
10.443956043956044,6.699744338211154
10.463736263736264,6.722632046923737
10.483516483516484,6.745515695670759
10.503296703296703,6.768313663885056
10.523076923076923,6.790945380776811
10.542857142857143,6.813331608715229
10.562637362637362,6.835394711457812
10.582417582417584,6.85705890711765
10.602197802197802,6.878250505905799
10.621978021978022,6.898898132810644
10.641758241758241,6.918932935479884
10.661538461538463,6.93828877765506
10.681318681318682,6.956902418573478
10.7010989010989,6.974713678801257
10.72087912087912,6.991665592993923
10.740659340659342,7.007704550100249
10.760439560439561,7.022780421532025
10.780219780219781,7.036846677818771
10.799999999999999,7.049860494253243
10.819780219780219,7.061782846012968
10.83956043956044,7.072578593215174
10.85934065934066,7.08221655632955
