Time (s),Filtered Signal
0.0,0.006139043773240819
0.033370535714285714,-0.22850131619567052
0.06674107142857143,-0.400437445804697
0.10011160714285713,-0.4653824567107977
0.13348214285714285,-0.40972333118385246
0.16685267857142858,-0.2527996863561915
0.20022321428571427,-0.03865691022402675
0.23359375,0.17945123082027795
0.2669642857142857,0.3559326143812661
0.30033482142857143,0.46498147196720496
0.33370535714285715,0.5041602782278212
0.36707589285714287,0.4894423116208085
0.40044642857142854,0.44513503848332764
0.43381696428571426,0.39354377420296205
0.4671875,0.3482819799788097
0.5005580357142857,0.3126740016352685
0.5339285714285714,0.2822298660457687
0.5672991071428571,0.24888257774133649
0.6006696428571429,0.20486057359515863
0.6340401785714286,0.14517358398668573
0.6674107142857143,0.06881759564199853
0.70078125,-0.020729413771900965
0.7341517857142857,-0.11545918858535137
0.7675223214285715,-0.20360608503881733
0.8008928571428571,-0.2718867135630284
0.8342633928571428,-0.3093150010277565
0.8676339285714285,-0.31153435832636933
0.9010044642857142,-0.28360835474302837
0.934375,-0.2392938564125008
0.9677455357142857,-0.19629833440682354
1.0011160714285714,-0.169216426242236
1.0344866071428571,-0.16341926812512064
1.0678571428571428,-0.17303756160217015
1.1012276785714286,-0.18425118852642863
1.1345982142857143,-0.1823969976733584
1.16796875,-0.15943022028454934
1.2013392857142857,-0.11809465354682311
1.2347098214285714,-0.07082349442444788
1.2680803571428572,-0.03397781503436269
1.3014508928571429,-0.020204427726315297
1.3348214285714286,-0.03245600609501367
1.3681919642857143,-0.062333342591619406
1.4015625,-0.09340843816375198
1.4349330357142858,-0.10799791180864121
1.4683035714285715,-0.09439462022051703
1.5016741071428572,-0.051415880664210926
1.535044642857143,0.011650847834670458
1.5684151785714286,0.07954646745534931
1.6017857142857141,0.1378139552911249
1.6351562499999999,0.1786597659362089
1.6685267857142856,0.20317308382596294
1.7018973214285713,0.21891720371162549
1.735267857142857,0.2341576636779634
1.7686383928571427,0.2517059022009406
1.8020089285714285,0.26567574847109143
1.8353794642857142,0.26311935237285605
1.86875,0.23008896929255485
1.9021205357142856,0.15934389065059668
1.9354910714285714,0.05591330403135417
1.968861607142857,-0.06237889471840381
2.002232142857143,-0.16995007613651103
2.0356026785714287,-0.24196534230461675
2.0689732142857142,-0.26271063620306273
2.10234375,-0.23049777526543208
2.1357142857142857,-0.15750719053174575
2.169084821428571,-0.06516582890084441
2.202455357142857,0.022771229944980684
2.2358258928571426,0.0868732288410377
2.2691964285714286,0.11651614177186655
2.302566964285714,0.11142087333786872
2.3359375,0.08045557155743288
2.3693080357142855,0.038433439604554816
2.4026785714285714,0.0017847207959547657
2.436049107142857,-0.01597029459018104
2.469419642857143,-0.00792016076127254
2.5027901785714284,0.024411683587953596
2.5361607142857143,0.07181496228540471
2.56953125,0.12060838695464339
2.6029017857142858,0.1572246430658913
2.6362723214285713,0.1724339184293468
2.669642857142857,0.16363319221381795
2.7030133928571427,0.1345418984721367
2.7363839285714286,0.09280295138321867
2.769754464285714,0.04675830704985895
2.803125,0.00272332174729999
2.8364955357142856,-0.036436182880240225
2.8698660714285715,-0.0712982891835998
2.903236607142857,-0.10479323475317749
2.936607142857143,-0.1405178164937172
2.9699776785714285,-0.18091255607971565
3.0033482142857144,-0.22573242205250976
3.03671875,-0.27128758732321956
3.070089285714286,-0.3109103209003945
3.1034598214285714,-0.3368114889971197
3.1368303571428573,-0.34288625750908075
3.170200892857143,-0.3273728291847655
3.2035714285714283,-0.2940003948169628
3.2369419642857142,-0.25070652394766296
3.2703124999999997,-0.20610679815108124
3.3036830357142857,-0.16518014175997467
3.337053571428571,-0.1263841526797279
3.370424107142857,-0.08207551123981945
3.4037946428571426,-0.02264025951547364
3.4371651785714286,0.057252128733038025
3.470535714285714,0.153351817460307
3.50390625,0.2506664418720687
3.5372767857142855,0.3280263320894976
3.5706473214285714,0.367248787876141
3.604017857142857,0.3631094523226309
3.637388392857143,0.3290780279747637
3.6707589285714284,0.29484741381443536
3.7041294642857143,0.2950204314534708
3.7375,0.3526872371883284
3.7708705357142858,0.4649791547589269
3.8042410714285713,0.5980661114547018
3.837611607142857,0.6957210300730402
3.8709821428571427,0.6996060967677432
3.9043526785714286,0.5735166266972411
3.937723214285714,0.32099729773796487
3.97109375,-0.012139930663405126
4.004464285714286,-0.3523747571027085
4.0378348214285715,-0.6242175653793325
4.0712053571428575,-0.776014167027528
4.1045758928571425,-0.7949636999678432
4.1379464285714285,-0.7060592547924965
4.171316964285714,-0.5573657185842783
4.2046875,-0.3997219693646318
4.238058035714285,-0.2699605091217025
4.271428571428571,-0.18335217007152924
4.304799107142857,-0.13577087287902728
4.338169642857142,-0.11197982446088059
4.371540178571428,-0.09507309817371457
4.404910714285714,-0.07323915067223469
4.43828125,-0.04229469873491707
4.471651785714285,-0.004498558288076521
4.505022321428571,0.034704752864321495
4.538392857142857,0.07015882351218941
4.571763392857143,0.09926507936546448
4.605133928571428,0.12238358389765959
4.638504464285714,0.14154160914197467
4.671875,0.1583230700460214
4.705245535714286,0.1721297377142044
4.738616071428571,0.17979756188695553
4.771986607142857,0.17687376132359345
4.805357142857143,0.15999756816289007
4.838727678571429,0.1291893001130757
4.872098214285714,0.08878556816233717
4.90546875,0.046363712704219046
4.938839285714286,0.010029260282535032
4.972209821428572,-0.01464063719785572
5.005580357142857,-0.02645967047942302
5.038950892857143,-0.028403777119299284
5.072321428571429,-0.025569357166796286
5.105691964285715,-0.022572088501646326
5.1390625,-0.021810486473051657
5.172433035714286,-0.023334972999359053
5.2058035714285715,-0.02603739956611896
5.2391741071428575,-0.029172220698876206
5.2725446428571425,-0.033202851421929226
5.3059151785714285,-0.03953069947090287
5.339285714285714,-0.049396978500242314
5.3726562499999995,-0.06272227863413643
5.406026785714285,-0.07764474698490748
5.439397321428571,-0.09107410197546287
5.472767857142857,-0.09993310116722977
5.506138392857142,-0.1022501527364029
5.539508928571428,-0.09722845315304221
5.572879464285714,-0.08400625231222562
5.60625,-0.05983219623644041
5.639620535714285,-0.01920307319406955
5.672991071428571,0.0445577779355675
5.706361607142857,0.13503950948341834
5.739732142857143,0.2474398603020197
5.773102678571428,0.36524438700832834
5.806473214285714,0.46174215158931786
5.83984375,0.5072512239700475
5.873214285714286,0.4799714460192057
5.906584821428571,0.37597541499204623
5.939955357142857,0.21341909647288312
5.973325892857143,0.02814426446430385
6.006696428571429,-0.13829758151264193
6.040066964285714,-0.25338516643302433
6.0734375,-0.30465471667563876
6.106808035714286,-0.30208141040700887
6.140178571428572,-0.27097814953028243
6.173549107142857,-0.23909956640800215
6.206919642857143,-0.22421684289130359
6.240290178571429,-0.2278115742926274
6.273660714285715,-0.23723316377118836
6.30703125,-0.23450257590618545
6.340401785714286,-0.20698533759758006
6.3737723214285715,-0.15466171525609027
6.407142857142857,-0.09069296216954179
6.4405133928571425,-0.03533152035909867
6.4738839285714285,-0.006358559628116771
6.507254464285714,-0.010753695678686302
6.5406249999999995,-0.04156656133456614
6.573995535714285,-0.0813550080051503
6.607366071428571,-0.11035046806934015
6.640736607142857,-0.11528564419054894
6.674107142857142,-0.09466496899057043
6.707477678571428,-0.05818633869177884
6.740848214285714,-0.02096152190706413
6.77421875,0.004399241399322609
6.807589285714285,0.014007870797604974
6.840959821428571,0.014471671644612482
6.874330357142857,0.019687528223577923
6.907700892857143,0.044379477442347236
6.941071428571428,0.0974028653045122
6.974441964285714,0.1776875821037514
7.0078125,0.27425422956981077
7.041183035714286,0.3697878417247424
7.074553571428571,0.44582221960989593
7.107924107142857,0.48736032478350266
7.141294642857143,0.4856421331450544
7.174665178571429,0.43900985281630706
7.208035714285714,0.35257170523039655
7.24140625,0.23730170160415037
7.274776785714286,0.10865456397730643
7.308147321428572,-0.015654211932625263
7.341517857142857,-0.11891904488734538
7.374888392857143,-0.18932035717707782
7.408258928571429,-0.22321090212098027
7.441629464285715,-0.2263146045798349
7.475,-0.21180460555713498
7.508370535714286,-0.19540517029490104
7.5417410714285715,-0.18912951861490346
7.575111607142857,-0.19632934832476048
7.6084821428571425,-0.21066221183269476
7.6418526785714285,-0.22003249587631976
7.675223214285714,-0.21399817794080372
7.7085937499999995,-0.1908705452984404
7.741964285714285,-0.16028033992485685
7.775334821428571,-0.13902603682558262
7.808705357142857,-0.14173591179154368
7.842075892857142,-0.17120595523699292
7.875446428571428,-0.21409502579076287
7.908816964285714,-0.2451526818847995
7.9421875,-0.23850857134731346
7.975558035714285,-0.1804048872188191
8.008928571428571,-0.07663668360119069
8.042299107142856,0.04932880574239662
8.075669642857143,0.166576753704716
8.109040178571428,0.24993926597989627
8.142410714285715,0.28947374602515646
8.17578125,0.29188600022486383
8.209151785714285,0.27403440255047556
8.242522321428572,0.25267200012570645
8.275892857142857,0.23605071742090147
8.309263392857142,0.22141025200238326
8.342633928571429,0.19888374280506238
8.376004464285714,0.15901808595410621
8.409375,0.09961990810105277
8.442745535714286,0.028470692553451145
8.47611607142857,-0.039179680532336975
8.509486607142858,-0.08690395938412902
8.542857142857143,-0.10417929377837966
8.576227678571428,-0.09112798138998135
8.609598214285715,-0.05887952551144903
8.64296875,-0.025315614803888626
8.676339285714285,-0.007832170266905468
8.709709821428572,-0.01605952938663506
8.743080357142857,-0.047677224662175346
8.776450892857143,-0.08930897003108473
8.809821428571428,-0.12230736793314811
8.843191964285714,-0.13094448460074443
8.8765625,-0.10926388297973179
8.909933035714285,-0.06339024236945016
8.94330357142857,-0.008286103710418099
8.976674107142857,0.039305000575031175
9.010044642857142,0.06814783830531433
9.04341517857143,0.07650540149853471
9.076785714285714,0.07117586633796179
9.11015625,0.06257384618951468
9.143526785714286,0.058827495792802595
9.176897321428571,0.06211164021325601
9.210267857142856,0.06888413562505677
9.243638392857143,0.07329194828534141
9.277008928571428,0.07122054873429914
9.310379464285715,0.062358154407107874
9.34375,0.049235474171151275
9.377120535714285,0.03436728121449449
9.410491071428572,0.017877542336140348
9.443861607142857,-0.0024983350169543042
9.477232142857142,-0.028983920104190323
9.510602678571429,-0.06073472520794755
9.543973214285714,-0.09263418034325129
9.57734375,-0.11720088843584062
9.610714285714286,-0.1287790476170724
9.64408482142857,-0.12748764104968122
9.677455357142858,-0.12026743940809906
9.710825892857143,-0.11793242810948319
9.744196428571428,-0.12947856239027095
9.777566964285715,-0.15661920259436157
9.8109375,-0.19156791157592984
9.844308035714285,-0.2194291480135989
9.877678571428572,-0.22414766938278605
9.911049107142857,-0.1951802285418955
9.944419642857143,-0.1318224330485728
9.977790178571428,-0.04342040275550545
10.011160714285714,0.0543212530204852
10.04453125,0.14507985693996175
10.077901785714285,0.21717939200116643
10.11127232142857,0.2662675853230637
10.144642857142857,0.29452583131355753
10.178013392857142,0.30711512084718456
10.21138392857143,0.30786961130877555
10.244754464285714,0.2966349933282865
10.278125,0.26977304652206824
10.311495535714286,0.22354203575339796
10.344866071428571,0.15829678216398949
10.378236607142856,0.08083844711389718
10.411607142857143,0.0032587832281962205
10.444977678571428,-0.06128932078836329
10.478348214285715,-0.10359048403994697
10.51171875,-0.12135771422980013
10.545089285714285,-0.11866720984867472
10.578459821428572,-0.10243947617336632
10.611830357142857,-0.0782981205668882
10.645200892857142,-0.04839639725628585
10.678571428571429,-0.01247088992852574
10.711941964285714,0.028702124351417165
10.745312499999999,0.06986255717166581
10.778683035714286,0.10042137425248382
10.81205357142857,0.10743299231741658
10.845424107142858,0.08140280679850363
10.878794642857143,0.022081001842629185
10.912165178571428,-0.059076552178937564
10.945535714285715,-0.14176444223867982
10.97890625,-0.20437796339041198
11.012276785714285,-0.23305428232431635
11.045647321428572,-0.22786382413819017
11.079017857142857,-0.20285560961064922
11.112388392857143,-0.17949191265704237
11.145758928571428,-0.17626564857998853
11.179129464285714,-0.1993414208264345
11.2125,-0.2388132629389832
11.245870535714285,-0.272645483019915
11.27924107142857,-0.2766955419068752
11.312611607142857,-0.2361599766930478
11.345982142857142,-0.15288927226184765
11.37935267857143,-0.044872608031519885
11.412723214285714,0.061967452022370764
11.44609375,0.1455866438516816
11.479464285714286,0.19721604414031998
11.512834821428571,0.2235675121394177
11.546205357142856,0.2409513809108849
11.579575892857143,0.2648356751201541
11.612946428571428,0.3008438374786557
11.646316964285715,0.34224128352317773
11.6796875,0.3750827783834453
11.713058035714285,0.38759285273823935
11.746428571428572,0.37774587343867716
11.779799107142857,0.35404473963293775
11.813169642857142,0.3286928789318962
11.846540178571429,0.30727224182120694
11.879910714285714,0.28165127755841396
11.913281249999999,0.23139013304871248
11.946651785714286,0.1340677610241327
11.98002232142857,-0.02046893984413918
12.013392857142858,-0.21970086026808378
12.046763392857143,-0.4280697611643991
12.080133928571428,-0.5978028538303262
12.113504464285715,-0.6864063143076873
12.146875,-0.6730056640370757
12.180245535714285,-0.5663092449683742
12.213616071428572,-0.4008948291160594
12.246986607142857,-0.2237082799916471
12.280357142857143,-0.07673861330034909
12.313727678571428,0.01686969879348026
12.347098214285714,0.057877467925410916
12.38046875,0.06588460773592347
12.413839285714285,0.06727429997109938
12.44720982142857,0.08210146799177005
12.480580357142857,0.1158193904852688
12.513950892857142,0.15902255841865617
12.54732142857143,0.19440767604886872
12.580691964285714,0.20686008573550382
12.6140625,0.1914695549903092
12.647433035714286,0.15573849308798351
12.680803571428571,0.11537746751419713
12.714174107142856,0.08624206023046288
12.747544642857143,0.07661917609164487
12.780915178571428,0.08356303281952926
12.814285714285713,0.09477312770145996
12.84765625,0.09481433912076549
12.881026785714285,0.07258179247198653
12.914397321428572,0.026555045584530326
12.947767857142857,-0.0344496509785447
12.981138392857142,-0.0952587551934969
13.014508928571429,-0.14120294328581492
13.047879464285714,-0.16471732784141285
13.081249999999999,-0.16854699832646147
13.114620535714286,-0.16383404784851766
13.14799107142857,-0.16372481816737527
13.181361607142858,-0.17546814703208582
13.214732142857143,-0.19507581987035552
13.248102678571428,-0.20769574793037213
13.281473214285715,-0.19411838372868037
13.31484375,-0.14058716443299168
13.348214285714285,-0.047067525723167296
13.381584821428572,0.0704273380449784
13.414955357142857,0.18501932547861827
13.448325892857143,0.2694137968959475
13.481696428571428,0.306639005530512
13.515066964285714,0.295981655680559
13.5484375,0.2516117821616146
13.581808035714285,0.1952270245833549
13.61517857142857,0.14693536886128064
13.648549107142857,0.11891764384809388
13.681919642857142,0.1141264006417287
13.71529017857143,0.12896052238368477
13.748660714285714,0.1566992397658023
13.78203125,0.18886308493312096
13.815401785714286,0.21419474667063337
13.848772321428571,0.2176611431377977
13.882142857142856,0.18259849814543944
13.915513392857143,0.0970705300196579
13.948883928571428,-0.03803181310912997
13.982254464285713,-0.20410653853345098
14.015625,-0.367516525647001
14.048995535714285,-0.4904059364025007
14.082366071428572,-0.5454337836295289
14.115736607142857,-0.5273228590415904
14.149107142857142,-0.45509550738006516
14.182477678571429,-0.3633434368802845
14.215848214285714,-0.28644306846733475
14.249218749999999,-0.2432522440647284
14.282589285714286,-0.22959070864761727
14.31595982142857,-0.22189903928189927
14.349330357142858,-0.18996644741693475
14.382700892857143,-0.11232292554046996
14.416071428571428,0.01310581970534874
14.449441964285715,0.1678153509075896
14.4828125,0.3208969383994975
14.516183035714285,0.4419644804909827
14.549553571428572,0.5123692524907518
14.582924107142857,0.5298060909574634
14.616294642857143,0.5053194449764737
14.649665178571428,0.4556431175415974
14.683035714285714,0.39559533025846166
14.71640625,0.3341585996029774
14.749776785714285,0.27492459368729644
14.78314732142857,0.2188153033729017
14.816517857142857,0.16611913043628895
14.849888392857142,0.11623305895673113
14.88325892857143,0.06589536282300008
14.916629464285714,0.008301839815510784
14.95,-0.06486844276714816
14.983370535714286,-0.15859094330829196
15.016741071428571,-0.2692345173543903
15.050111607142856,-0.38230594969878157
15.083482142857143,-0.4754179028956281
15.116852678571428,-0.5259685132254383
15.150223214285713,-0.520314878600695
15.18359375,-0.4600998232417227
15.216964285714285,-0.3625066691391528
15.250334821428572,-0.2539994285921399
15.283705357142857,-0.16014031287199673
15.317075892857142,-0.09589319551320061
15.350446428571429,-0.06061580338958877
15.383816964285714,-0.039874470248425845
15.417187499999999,-0.013238398151939251
15.450558035714286,0.03538980472955931
15.48392857142857,0.10948976902617162
15.517299107142858,0.19746125177603516
15.550669642857143,0.2772868009301189
15.584040178571428,0.32644222372954507
15.617410714285715,0.3326342488962587
15.65078125,0.3002579228090252
15.684151785714285,0.24915211376803614
15.717522321428572,0.20571782625159124
15.750892857142857,0.19020838384807348
15.784263392857143,0.20616267918663145
15.817633928571428,0.23732399143293212
15.851004464285714,0.2540777561459384
15.884375,0.22692269397343948
15.917745535714285,0.14092482355143554
15.95111607142857,0.004298199361772142
15.984486607142857,-0.15325622709612652
16.017857142857142,-0.29209528247158634
16.05122767857143,-0.3789363338530106
16.084598214285712,-0.4003233545241933
16.11796875,-0.3668397205435048
16.151339285714286,-0.3060907974752612
16.18470982142857,-0.24808283055986932
16.218080357142856,-0.21050716993291274
16.251450892857143,-0.19143447964287852
16.28482142857143,-0.1728967666727271
16.318191964285713,-0.13293576329117718
16.3515625,-0.05922686403566796
16.384933035714287,0.04313967087659248
16.41830357142857,0.15353981632003533
16.451674107142857,0.24569404736319503
16.485044642857144,0.2997415400385173
16.518415178571427,0.31014308813257246
16.551785714285714,0.2859944984899609
16.58515625,0.2447151489240212
16.618526785714284,0.20326508333186166
16.65189732142857,0.17149485479023577
16.685267857142858,0.15021669304739416
16.71863839285714,0.13370133968248699
16.752008928571428,0.11428838177561822
16.785379464285715,0.08649771441717907
16.81875,0.04912272605195403
16.852120535714285,0.005242021808579251
16.88549107142857,-0.0390471207653419
16.91886160714286,-0.07639162854898705
16.95223214285714,-0.10015666037080932
16.98560267857143,-0.10661460163737702
17.018973214285715,-0.09706696650742286
17.05234375,-0.07900485778081717
17.085714285714285,-0.06513491235932582
17.119084821428572,-0.06968161059904726
17.152455357142856,-0.10275025788293675
17.185825892857142,-0.16496881506367622
17.21919642857143,-0.24515579501891197
17.252566964285712,-0.32281735177546633
17.2859375,-0.37512557916738243
17.319308035714286,-0.3857141938663478
17.35267857142857,-0.3514186165231168
17.386049107142856,-0.283758475913223
17.419419642857143,-0.20429763426448214
17.45279017857143,-0.13586431693009512
17.486160714285713,-0.09348291160305958
17.51953125,-0.07880099006052343
