Time (s),Filtered Signal
0.0,-0.00668057111194472
0.03337008452774715,0.35482787718594916
0.0667401690554943,0.6335190521463827
0.10011025358324147,0.7717348565407358
0.1334803381109886,0.7529844036749903
0.16685042263873576,0.6034036687162437
0.20022050716648293,0.37917928988936506
0.23359059169423008,0.1456040721529553
0.2669606762219772,-0.04409575350036604
0.30033076074972437,-0.1628207431239229
0.3337008452774715,-0.21250727845902403
0.36707092980521866,-0.21622340615570956
0.40044101433296586,-0.20378176381340082
0.433811098860713,-0.19753998370226764
0.46718118338846015,-0.20475437639783065
0.5005512679162073,-0.21961681997020782
0.5339213524439544,-0.23301965705857972
0.5672914369717016,-0.24365717738313755
0.6006615214994487,-0.26300638194479303
0.6340316060271959,-0.31011359164711955
0.667401690554943,-0.39831121876125886
0.7007717750826902,-0.5213948656231427
0.7341418596104373,-0.6480212167311404
0.7675119441381845,-0.7291480259494312
0.8008820286659317,-0.7163260873121496
0.8342521131936789,-0.5825471526252837
0.867622197721426,-0.3356418238147335
0.9009922822491732,-0.01782941435722466
0.9343623667769203,0.30820867182351297
0.9677324513046675,0.5802565404636488
1.0011025358324146,0.7556686333921669
1.0344726203601617,0.8218355938198796
1.0678427048879089,0.795726719997882
1.101212789415656,0.7145963948876025
1.1345828739434032,0.6223329377208346
1.1679529584711503,0.5560646577086188
1.2013230429988975,0.5363550709314302
1.2346931275266446,0.5626851683384199
1.2680632120543918,0.6145821589406024
1.301433296582139,0.6577786918238525
1.334803381109886,0.6539395714918728
1.3681734656376332,0.5716744516139555
1.4015435501653803,0.39602667396902824
1.4349136346931275,0.13382591948844708
1.4682837192208746,-0.18660827765272106
1.5016538037486218,-0.5212669739175864
1.535023888276369,-0.8200760003207821
1.568393972804116,-1.0378087723607339
1.6017640573318634,-1.1436900397499867
1.6351341418596106,-1.1275815513995793
1.6685042263873577,-1.0014326762224133
1.7018743109151049,-0.7957118942609027
1.735244395442852,-0.5517626622977042
1.7686144799705992,-0.31214511738725265
1.8019845644983463,-0.1115241547531849
1.8353546490260935,0.029738629885352814
1.8687247335538406,0.1081639853770614
1.9020948180815878,0.13582603002496052
1.935464902609335,0.13570382211458296
1.968834987137082,0.13470700273461292
2.002205071664829,0.1558289902359111
2.0355751561925763,0.21138907127362855
2.0689452407203235,0.2994179190912367
2.1023153252480706,0.40445097256062235
2.1356854097758178,0.5024370544589553
2.169055494303565,0.567946480528188
2.202425578831312,0.5812759584465104
2.235795663359059,0.5336289532500816
2.2691657478868064,0.4296501771276809
2.3025358324145535,0.28728078546837255
2.3359059169423007,0.13483853460470338
2.369276001470048,0.004987426973750227
2.402646085997795,-0.07422576916388163
2.436016170525542,-0.08949104500649842
2.4693862550532892,-0.04983626793155248
2.5027563395810364,0.012632260751893516
2.5361264241087835,0.051443102582468696
2.5694965086365307,0.022528219293646436
2.602866593164278,-0.0968316797984451
2.636236677692025,-0.295202631223842
2.669606762219772,-0.5271844540019077
2.7029768467475193,-0.7281291935382285
2.7363469312752664,-0.8380681302171308
2.7697170158030135,-0.8246253408728111
2.8030871003307607,-0.6945923176456701
2.836457184858508,-0.48894278965413446
2.869827269386255,-0.26393435176267427
2.903197353914002,-0.0675220208517426
2.9365674384417493,0.07781785226482686
2.9699375229694964,0.17847516194053567
3.0033076074972436,0.2591454066551733
3.0366776920249907,0.34499129101059295
3.070047776552738,0.44611945437697104
3.103417861080485,0.5517549510530396
3.136787945608232,0.635800189768182
3.1701580301359793,0.6696681097013254
3.203528114663727,0.635408362845716
3.236898199191474,0.5332040571381738
3.270268283719221,0.3810394363339822
3.3036383682469683,0.20828414816487933
3.3370084527747155,0.04703591015566548
3.3703785373024626,-0.07533328437843398
3.4037486218302098,-0.14097967509760864
3.437118706357957,-0.1442148366241618
3.470488790885704,-0.09295764013722717
3.503858875413451,-0.009009009615435751
3.5372289599411983,0.07426985545005133
3.5705990444689455,0.1185912466051384
3.6039691289966926,0.09176783558935296
3.63733921352444,-0.019720144430688497
3.670709298052187,-0.20187452803378284
3.704079382579934,-0.4132665465639308
3.7374494671076812,-0.5961408902168005
3.7708195516354284,-0.6955957425496192
3.8041896361631755,-0.6795657858882149
3.8375597206909227,-0.5511304594641879
3.87092980521867,-0.3474837838303638
3.904299889746417,-0.12556988520093
3.937669974274164,0.05970362094306039
3.9710400588019112,0.17539406891802492
4.004410143329658,0.22012586100834042
4.0377802278574055,0.21960873209984563
4.071150312385153,0.21078904295726736
4.1045203969129,0.22253850837306052
4.137890481440647,0.2621561401575297
4.171260565968394,0.31379419046563206
4.204630650496141,0.3487763399680918
4.238000735023888,0.3418031954665681
4.2713708195516356,0.2843616765060735
4.304740904079383,0.18865340404410133
4.33811098860713,0.08082687131553493
4.371481073134877,-0.011930062876624268
4.404851157662624,-0.07308913397007541
4.438221242190371,-0.10151153628536637
4.471591326718118,-0.10809802068046559
4.504961411245866,-0.10786917025979582
4.538331495773613,-0.11279978169524525
4.57170158030136,-0.12903429708444591
4.605071664829107,-0.15850143463071228
4.638441749356854,-0.202012798665986
4.671811833884601,-0.2604607542073072
4.7051819184123485,-0.332698460532086
4.738552002940096,-0.4115216395795103
4.771922087467843,-0.48094161963345566
4.80529217199559,-0.5175604085642915
4.838662256523337,-0.49665197424230656
4.872032341051084,-0.400897241588098
4.905402425578831,-0.22812845589696493
4.9387725101065785,0.005308305037735222
4.972142594634326,0.2671403799684091
5.005512679162073,0.5168925316384503
5.03888276368982,0.7160971023731967
5.072252848217567,0.8376848394899329
5.105622932745314,0.8717916070460389
5.138993017273061,0.8265446475908643
5.1723631018008085,0.7239923003364959
5.205733186328556,0.5927568209466086
5.239103270856303,0.4598485781431004
5.27247335538405,0.34413736847651366
5.305843439911797,0.253228573688377
5.339213524439544,0.18422077315203447
5.372583608967291,0.12748886152884922
5.4059536934950385,0.07169737376490956
5.439323778022786,0.008003769984239203
5.472693862550533,-0.06806577248864498
5.50606394707828,-0.15746872951443008
5.539434031606027,-0.260303254683562
5.572804116133774,-0.3783297769862439
5.606174200661521,-0.5152233759058948
5.6395442851892685,-0.6733683448062577
5.672914369717016,-0.8479384510587411
5.706284454244763,-1.0211320105704742
5.73965453877251,-1.1605146268589448
5.773024623300257,-1.2244453496215713
5.806394707828004,-1.1745026528449078
5.839764792355751,-0.9909726009899043
5.873134876883499,-0.6848799630428747
5.906504961411246,-0.30041910819043754
5.939875045938993,0.09480345561723989
5.97324513046674,0.42908369505373045
6.006615214994487,0.6484785676374102
6.039985299522234,0.7328281758763031
6.073355384049981,0.6999380702425487
6.106725468577729,0.5969234846889953
6.140095553105476,0.4829066373251478
6.173465637633223,0.410120452467308
6.20683572216097,0.4098514699129217
6.240205806688717,0.4864277496500247
6.273575891216464,0.618872516208009
6.3069459757442115,0.767903622088179
6.340316060271959,0.8860482820142553
6.373686144799706,0.9294830327474237
6.407056229327454,0.8701725116499907
6.440426313855201,0.7055810920967575
6.473796398382948,0.46201167356437495
6.507166482910695,0.1884313095460595
6.540536567438442,-0.05884073791315217
6.5739066519661895,-0.2355389337594122
6.607276736493937,-0.32502323612305656
6.640646821021684,-0.3431589203467474
6.674016905549431,-0.3303743607788551
6.707386990077178,-0.3345181697254351
6.740757074604925,-0.3917964283613015
6.774127159132672,-0.5130894634412947
6.8074972436604195,-0.6800208569738023
6.840867328188167,-0.8512384069685676
6.874237412715914,-0.976155028775459
6.907607497243661,-1.0115341604604589
6.940977581771408,-0.9357349260236261
6.974347666299155,-0.7560953507368782
7.007717750826902,-0.5069180453965588
7.0410878353546495,-0.23861030507689515
7.074457919882397,-0.0017697325358681732
7.107828004410144,0.16802314255780612
7.141198088937891,0.25928808146666915
7.174568173465638,0.2847704071113814
7.207938257993385,0.2733819744719715
7.241308342521132,0.2577345221238031
7.27467842704888,0.26228675928285244
7.308048511576627,0.29636381434812575
7.341418596104374,0.35405287183936834
7.374788680632121,0.42015168374033235
7.408158765159868,0.47898987135343124
7.441528849687615,0.5219632522734675
7.4748989342153624,0.5504280133507499
7.50826901874311,0.5728264216501713
7.541639103270857,0.597547959976287
7.575009187798604,0.624949794283349
7.608379272326351,0.6424545156217141
7.641749356854098,0.6255667627673415
7.675119441381845,0.54534150049356
7.7084895259095925,0.38003753658511075
7.74185961043734,0.12647464091243024
7.775229694965087,-0.19391140946166888
7.808599779492834,-0.5375951961344675
7.841969864020581,-0.8498753742787001
7.875339948548328,-1.0802906950605509
7.908710033076075,-1.1965767146538848
7.9420801176038225,-1.1918586515099856
7.97545020213157,-1.0828966698456675
8.008820286659317,-0.9012051366913086
8.042190371187063,-0.6816905771555102
8.075560455714811,-0.45369243734263637
8.108930540242557,-0.2370662394702578
8.142300624770305,-0.042777328796342044
8.175670709298052,0.12460808307728316
8.2090407938258,0.2650064452480954
8.242410878353546,0.3820813072074753
8.275780962881294,0.4824126032921235
8.30915104740904,0.5729949993039966
8.342521131936788,0.6570346664183145
8.375891216464534,0.7301292206334863
8.409261300992283,0.7797773193253816
8.442631385520029,0.7898083849453614
8.476001470047777,0.7484063308155471
8.509371554575523,0.6557804913914582
8.542741639103271,0.5270118509787
8.57611172363102,0.3877239304287097
8.609481808158765,0.2639413533024677
8.642851892686513,0.17078061485969825
8.67622197721426,0.1056282826954117
8.709592061742008,0.04954005773620475
8.742962146269754,-0.023393895520271706
8.776332230797502,-0.13303202547770118
8.809702315325248,-0.2828135115407451
8.843072399852996,-0.4570983795624902
8.876442484380743,-0.6273670903700493
8.90981256890849,-0.7639294465119641
8.943182653436237,-0.8471455779367547
8.976552737963985,-0.8727779997389111
9.009922822491731,-0.8495287586615664
9.04329290701948,-0.7910686352116798
9.076662991547225,-0.707575264511763
9.110033076074973,-0.6015854965171794
9.14340316060272,-0.4701390381573012
9.176773245130468,-0.31144542471693526
9.210143329658214,-0.13172046810147647
9.243513414185962,0.0522592460826253
9.276883498713708,0.21699345521087166
9.310253583241456,0.3411137580993876
9.343623667769203,0.41505536210036276
9.37699375229695,0.44654013304836476
9.410363836824697,0.4584643837488975
9.443733921352445,0.47912888804913684
9.477104005880191,0.5284841663993696
9.51047409040794,0.6065805300469675
9.543844174935685,0.6903555266560125
9.577214259463434,0.7417814740315172
9.61058434399118,0.7251442720635022
9.643954428518928,0.6261059883285184
9.677324513046674,0.462986597508772
9.710694597574422,0.28317785332645373
9.744064682102168,0.14429672958457626
9.777434766629916,0.08762845078510619
9.810804851157663,0.1164081588675682
9.84417493568541,0.19039523850358914
9.877545020213157,0.24090663273452873
9.910915104740905,0.2004025278749911
9.944285189268651,0.03315382142584645
9.9776552737964,-0.24731585490577207
10.011025358324146,-0.5818676921194174
10.044395442851894,-0.8881341536697125
10.07776552737964,-1.0909521640288597
10.111135611907388,-1.147718600006988
10.144505696435134,-1.059464683101359
10.177875780962882,-0.8656474455177701
10.211245865490628,-0.6270614819549184
10.244615950018376,-0.4043683659498274
10.277986034546123,-0.23946503795355417
10.31135611907387,-0.14469599308140718
10.344726203601617,-0.10215242002545342
10.378096288129365,-0.07262158698018599
10.411466372657111,-0.01130890010260192
10.44483645718486,0.11446487315705174
10.478206541712606,0.31122257017589905
10.511576626240354,0.5538154796037039
10.5449467107681,0.7909023308602692
10.578316795295848,0.9604056332151693
10.611686879823594,1.0103770967690013
10.645056964351342,0.9183014006044934
10.678427048879088,0.7016839060980112
10.711797133406836,0.41527487398608354
10.745167217934583,0.1349278150039953
10.77853730246233,-0.06677067918841614
10.811907386990077,-0.14450873727621547
10.845277471517825,-0.09520490778568252
10.878647556045571,0.041348538286760626
10.91201764057332,0.19600031198761161
10.945387725101066,0.2927981038607987
10.978757809628814,0.2729269009481883
11.01212789415656,0.11273280684555483
11.045497978684308,-0.16903086586730073
11.078868063212054,-0.5163735403484675
11.112238147739802,-0.852080028161523
11.145608232267548,-1.1000713281560244
11.178978316795297,-1.2073757818902204
11.212348401323043,-1.1583704753718669
11.24571848585079,-0.976061288279675
11.279088570378537,-0.7099966950707514
11.312458654906285,-0.41615178642584916
11.345828739434031,-0.13779293636018697
11.37919882396178,0.10439187849384074
11.412568908489526,0.30968054531345574
11.445938993017274,0.48569918018257274
11.47930907754502,0.6357622213360682
11.512679162072768,0.7528482635217472
11.546049246600514,0.8231614688652547
11.579419331128262,0.8360499782125028
11.612789415656009,0.7931981991736347
11.646159500183757,0.7107261423677623
11.679529584711503,0.6125227480826396
11.71289966923925,0.5187977164617122
11.746269753766997,0.436890395250783
11.779639838294745,0.35991530067409433
11.813009922822491,0.2738209338536196
11.84638000735024,0.16814632260350482
11.879750091877986,0.04359878803014914
11.913120176405734,-0.08813493429756887
11.94649026093348,-0.2118094346141524
11.979860345461228,-0.3181519549184576
12.013230429988974,-0.4091801928678769
12.046600514516722,-0.4957370760954731
12.079970599044469,-0.5885267475557984
12.113340683572217,-0.6879176662949519
12.146710768099963,-0.7786278297251944
12.180080852627711,-0.8328008163833027
12.213450937155457,-0.8205346117049118
12.246821021683205,-0.7230954779564855
12.280191106210951,-0.5427190365443297
12.3135611907387,-0.30450885755702284
12.346931275266446,-0.04951918606726475
12.380301359794194,0.1780675904784478
12.41367144432194,0.34436615064516585
12.447041528849688,0.43454391837135636
12.480411613377434,0.4539851738818617
12.513781697905182,0.42241948018010517
12.547151782432929,0.3644531926869354
12.580521866960677,0.3009008270828306
12.613891951488423,0.24413293232722036
12.647262036016171,0.19825618173428367
12.680632120543917,0.1626836425921101
12.714002205071665,0.1365122617578475
12.747372289599411,0.12129618467861358
12.78074237412716,0.1209072645390413
12.814112458654908,0.1386682796838451
12.847482543182654,0.17334337549248802
12.880852627710402,0.21639776226759935
12.914222712238148,0.25271922166403105
12.947592796765896,0.2655055654191818
12.980962881293642,0.24368059353076504
13.01433296582139,0.18816123655294265
13.047703050349137,0.11296404067907483
13.081073134876885,0.03923934154485199
13.114443219404631,-0.01582805887838077
13.147813303932379,-0.04973232571951282
13.181183388460125,-0.07846607891030136
13.214553472987873,-0.12970685353930173
13.24792355751562,-0.2271940300001786
13.281293642043368,-0.3736142504571363
13.314663726571114,-0.5414555696069961
13.348033811098862,-0.6783326409713146
13.381403895626608,-0.7262858666967849
13.414773980154356,-0.6470691756553871
13.448144064682102,-0.4416142277964044
13.48151414920985,-0.15400213334275856
13.514884233737597,0.14259467035874338
13.548254318265345,0.3721507029291199
13.581624402793091,0.4829923317409726
13.614994487320839,0.46483308379109145
13.648364571848585,0.3494825937291592
13.681734656376333,0.1961539646253949
13.71510474090408,0.06818300807155368
13.748474825431828,0.01049231301210982
13.781844909959574,0.035872905579605645
13.815214994487322,0.124151991252276
13.848585079015068,0.2333059705315679
13.881955163542816,0.3173432570054499
13.915325248070562,0.3436921954267146
13.94869533259831,0.3035235586539183
13.982065417126057,0.2116068275722796
14.015435501653805,0.09671316309725318
14.048805586181551,-0.012545512208403387
14.082175670709299,-0.09985514505233373
14.115545755237045,-0.16596557278019594
14.148915839764793,-0.22434664677512134
14.18228592429254,-0.2903311620107188
14.215656008820288,-0.36940616603179044
14.249026093348034,-0.45070663610388617
14.282396177875782,-0.5092930086160501
14.315766262403528,-0.5165586064138322
14.349136346931276,-0.454053648376841
14.382506431459023,-0.3240796141514079
14.41587651598677,-0.1516579301793857
14.449246600514517,0.02353866775026422
14.482616685042265,0.1618824290746746
14.515986769570011,0.23851396216082763
14.54935685409776,0.25161505919304394
14.582726938625505,0.22106517481790608
14.616097023153253,0.17892530499631337
14.649467107681,0.1565976674667047
14.682837192208748,0.1741073159251222
14.716207276736494,0.2349063058421307
14.749577361264242,0.32653700816912634
14.782947445791988,0.42530067715090014
14.816317530319736,0.5026783313139167
14.849687614847483,0.5321343349925154
14.88305769937523,0.49577695857219467
14.916427783902977,0.39020016063750523
14.949797868430725,0.22989804076295842
14.983167952958471,0.04607619130127245
15.01653803748622,-0.12046398147714694
15.049908122013965,-0.23139721511088382
15.083278206541713,-0.26428712089841183
15.11664829106946,-0.22221735797477438
15.150018375597208,-0.1351477696387772
15.183388460124954,-0.05127807896749445
15.216758544652702,-0.02064656735741331
15.250128629180448,-0.07669036471281498
15.283498713708196,-0.22291074312964926
15.316868798235943,-0.43021231507991176
15.35023888276369,-0.6463203602202762
15.383608967291437,-0.8136540653193746
15.416979051819185,-0.8884790428234585
15.450349136346931,-0.8538293180620284
15.48371922087468,-0.7217342827082185
15.517089305402425,-0.5251165958092029
15.550459389930174,-0.30388976330401635
15.58382947445792,-0.09139035994577702
15.617199558985668,0.09398350880252718
15.650569643513414,0.249995099528457
15.683939728041162,0.38563741942826585
15.717309812568908,0.5128215246591913
15.750679897096656,0.6379943822751648
15.784049981624403,0.7566678587285656
15.81742006615215,0.852903577386234
15.850790150679897,0.9042275794934775
15.884160235207645,0.8903820758816444
15.917530319735391,0.8024725065211127
15.95090040426314,0.6485002587135099
15.984270488790886,0.45261354810401494
16.017640573318634,0.24820213721620044
16.05101065784638,0.06776881896376169
16.084380742374126,-0.06621308813762532
16.117750826901876,-0.14614165632132337
16.151120911429622,-0.17889250897426662
16.18449099595737,-0.1815943842314818
16.217861080485115,-0.1759835236019552
16.251231165012864,-0.18320040934029752
16.28460124954061,-0.21966244601778778
16.317971334068357,-0.29386148479869034
16.351341418596103,-0.40407494569502617
16.384711503123853,-0.5376043135149031
16.4180815876516,-0.6724114590824515
16.451451672179346,-0.7814227238577995
16.484821756707092,-0.8386028995205149
16.51819184123484,-0.8249910054251419
16.551561925762588,-0.7329167012167358
16.584932010290334,-0.5675525702727249
16.61830209481808,-0.34609046518208353
16.65167217934583,-0.09535512875925796
16.685042263873576,0.1516459479476972
16.718412348401323,0.3603743683020274
16.75178243292907,0.5008994125266409
16.78515251745682,0.5550511444252673
16.818522601984565,0.5228126752110646
16.85189268651231,0.4252408331070503
16.885262771040058,0.3014911842500191
16.918632855567807,0.19926903714331057
16.952002940095554,0.16067811414833197
16.9853730246233,0.20787313042929564
17.018743109151046,0.3339210376990481
17.052113193678796,0.5030665673429134
17.085483278206542,0.6613297008928507
17.11885336273429,0.7542354560806243
17.15222344726204,0.7453066550789023
17.185593531789785,0.628284423120196
17.21896361631753,0.4283158114920805
17.252333700845277,0.19164602901773628
17.285703785373027,-0.03211009537668079
17.319073869900773,-0.20807690684700172
17.35244395442852,-0.32732509050844305
