Frequency (Hz),Amplitude
0.0,0.08719182478931975
0.019801980198019802,0.14927902346250185
0.039603960396039604,0.25743347023587715
0.0594059405940594,0.37335360779032656
0.07920792079207921,0.4912837962876235
0.09900990099009901,0.6097310897846224
0.1188118811881188,0.7280915673222577
0.13861386138613863,0.8460341242085494
0.15841584158415842,0.9633337570157797
0.1782178217821782,1.0798139519003622
0.19801980198019803,1.1953232183319675
0.21782178217821782,1.3097243423485279
0.2376237623762376,1.4228890206207636
0.25742574257425743,1.534695003182612
0.27722772277227725,1.645024499119914
0.297029702970297,1.7537632588447551
0.31683168316831684,1.860800037846337
0.33663366336633666,1.9660262848722263
0.3564356435643564,2.0693359669130094
0.37623762376237624,2.170625480061771
0.39603960396039606,2.2697936155765284
0.4158415841584158,2.3667415620832597
0.43564356435643564,2.461372931734534
0.45544554455445546,2.5535938023344347
0.4752475247524752,2.6433127700678334
0.495049504950495,2.730441009157061
0.5148514851485149,2.8148923358727505
0.5346534653465347,2.8965832750634446
0.5544554455445545,2.9754331278701094
0.5742574257425742,3.051364039638973
0.594059405940594,3.124301067290394
0.613861386138614,3.194172245575236
0.6336633663366337,3.2609086517766848
0.6534653465346534,3.324444468507682
0.6732673267326733,3.3847170443234247
0.6930693069306931,3.441666951920059
0.7128712871287128,3.495238043730914
0.7326732673267327,3.545377504762168
0.7524752475247525,3.5920359025349198
0.7722772277227723,3.6351672340194767
0.7920792079207921,3.6747289694643057
0.8118811881188118,3.7106820930350706
0.8316831683168316,3.742991140190359
0.8514851485148516,3.7716242317303386
0.8712871287128713,3.7965531044632277
0.891089108910891,3.817753138441501
0.9108910891089109,3.8352033807271124
0.9306930693069307,3.848886565650599
0.9504950495049505,3.858789131535422
0.9702970297029703,3.8649012338637565
0.99009900990099,3.867216754865644
1.00990099009901,3.8657333095183333
1.0297029702970297,3.860452247947475
1.0495049504950495,3.851378654226898
1.0693069306930694,3.838521341578492
1.0891089108910892,3.8218928439785786
1.108910891089109,3.8015094041820134
1.1287128712871286,3.7773909581802405
1.1485148514851484,3.7495611161153604
1.1683168316831685,3.7180471396762904
1.188118811881188,3.6828799160104886
1.2079207920792079,3.6440939281893825
1.227722772277228,3.6017272222732104
1.2475247524752475,3.5558213710276196
1.2673267326732673,3.5064214343529962
1.2871287128712872,3.4535759164962627
1.3069306930693068,3.3973367201259608
1.3267326732673268,3.3377590973638824
1.3465346534653466,3.2749015978816236
1.3663366336633662,3.208826014189003
1.3861386138613863,3.139597324264244
1.405940594059406,3.067283631704647
1.4257425742574257,2.9919561036137994
1.4455445544554455,2.9136889064896927
1.4653465346534653,2.8325591404416857
1.4851485148514851,2.7486467721501264
1.504950495049505,2.6620345670980328
1.5247524752475248,2.572808021764365
1.5445544554455446,2.481055296691739
1.5643564356435644,2.3868671516578983
1.5841584158415842,2.2903368846370618
1.6039603960396038,2.1915602769052027
1.6237623762376237,2.090635547641006
1.6435643564356437,1.9876633228893086
1.6633663366336633,1.882746626108482
1.683168316831683,1.775990901263655
1.7029702970297032,1.6675040855292753
1.7227722772277227,1.5573967589033035
1.7425742574257426,1.4457824157841492
1.7623762376237624,1.332777935477697
1.782178217821782,1.2185043884559155
1.801980198019802,1.1030884330424358
1.8217821782178218,0.9866648028982157
1.8415841584158414,0.8693809340023876
1.8613861386138615,0.751406108975046
1.881188118811881,0.6329510672403821
1.900990099009901,0.514314972197363
1.920792079207921,0.39601660933415295
1.9405940594059405,0.2792539664544475
1.9603960396039604,0.16821244445224381
1.98019801980198,0.08925948221365101
2.0,0.13070235766429247
2.01980198019802,0.23582231503878845
2.0396039603960396,0.35129483818661894
2.0594059405940595,0.46926479650876923
2.0792079207920793,0.5879124020094606
2.099009900990099,0.706551377433337
2.118811881188119,0.8248227465785565
2.1386138613861387,0.9424900029990734
2.1584158415841586,1.0593711037625098
2.1782178217821784,1.175311523732973
2.1980198019801978,1.290172160635342
2.217821782178218,1.4038233861587115
2.237623762376238,1.5161419142025343
2.257425742574257,1.627009068278732
2.2772277227722775,1.7363097902228717
2.297029702970297,1.8439320630673663
2.3168316831683167,1.9497665757190397
2.336633663366337,2.053706534089396
2.3564356435643563,2.1556475636676757
2.376237623762376,2.255487670619941
2.3960396039603964,2.3531272410735298
2.4158415841584158,2.448469065650415
2.4356435643564356,2.5414183808067574
2.455445544554456,2.631882921335568
2.4752475247524752,2.7197729801776096
2.495049504950495,2.8050014728522994
2.514851485148515,2.887484004597062
2.5346534653465347,2.967138938830359
2.5544554455445545,3.043887465916823
2.5742574257425743,3.1176536714677336
2.594059405940594,3.188364603591004
2.6138613861386135,3.255950338636028
2.633663366336634,3.320344045074214
2.6534653465346536,3.3814820452275733
2.673267326732673,3.439303874610961
2.6930693069306932,3.4937523386949043
2.712871287128713,3.544773566927369
2.7326732673267324,3.592317063878163
2.7524752475247527,3.636335757389368
2.7722772277227725,3.6767860436317497
2.792079207920792,3.713627828980363
2.811881188118812,3.7468245686340134
2.8316831683168315,3.7763433019129784
2.8514851485148514,3.802154684177788
2.8712871287128716,3.8242330153196193
2.891089108910891,3.8425562647793083
2.910891089108911,3.857106093058756
2.9306930693069306,3.867867869693745
2.9504950495049505,3.8748306876631675
2.9702970297029703,3.877987374214587
2.99009900990099,3.877334498091244
3.00990099009901,3.872872373150536
3.0297029702970297,3.8646050583687854
3.0495049504950495,3.8525403542320307
3.0693069306930694,3.8366897955171786
3.089108910891089,3.817068640473046
3.108910891089109,3.7936958564152996
3.128712871287129,3.7665941017548628
3.148514851485148,3.7357897044841826
3.1683168316831685,3.701312637151632
3.1881188118811883,3.663196488359845
3.2079207920792077,3.621478430830464
3.227722772277228,3.576199186084206
3.2475247524752473,3.52740298579339
3.267326732673267,3.4751375298720286
3.2871287128712874,3.419453941379077
3.3069306930693068,3.3604067183217667
3.3267326732673266,3.298053682459689
3.346534653465347,3.232455925227357
3.366336633663366,3.163677750913344
3.386138613861386,3.091786617260292
3.4059405940594063,3.0168530736831154
3.4257425742574257,2.9389506973456023
3.4455445544554455,2.858156027392149
3.4653465346534653,2.774548497706551
3.485148514851485,2.6882103686715797
3.504950495049505,2.59922665854308
3.5247524752475248,2.5076850752470157
3.5445544554455446,2.4136759496830464
3.564356435643564,2.317292172014125
3.5841584158415842,2.218629132998481
3.603960396039604,2.117784673278748
3.6237623762376234,2.0148590448422476
3.6435643564356437,1.9099548908764703
3.6633663366336635,1.803177253423524
3.683168316831683,1.6946336233971315
3.702970297029703,1.5844340561373838
3.722772277227723,1.472691390512654
3.7425742574257423,1.3595216360636986
3.762376237623762,1.245044641952199
3.7821782178217824,1.1293852575676746
3.801980198019802,1.0126753927575747
3.8217821782178216,0.8950578219242662
3.841584158415842,0.7766936167934622
3.8613861386138613,0.6577778321103966
3.881188118811881,0.5385762483337793
3.9009900990099013,0.41952483855809747
3.9207920792079207,0.30156231784966303
3.9405940594059405,0.18768264936478837
3.96039603960396,0.09531470535536306
3.98019801980198,0.11239666802451334
4.0,0.2141619851005252
4.01980198019802,0.3296384919516845
4.03960396039604,0.44809037676893526
4.0594059405940595,0.5673481066606956
4.079207920792079,0.6866530810957502
4.099009900990099,0.8056257610950961
4.118811881188119,0.9240223960272844
4.138613861386139,1.0416578616578662
4.158415841584159,1.15837601487714
4.178217821782178,1.2740366795696292
4.198019801980198,1.3885093521686585
4.217821782178218,1.5016699312439745
4.237623762376238,1.6133989273269043
4.257425742574258,1.7235804478065098
4.2772277227722775,1.8321016106442225
4.297029702970297,1.9388522064047253
4.316831683168317,2.0437245096378085
4.336633663366336,2.1466131829542534
4.356435643564357,2.2474152401195537
4.376237623762377,2.3460300474765687
4.3960396039603955,2.4423593506072057
4.415841584158416,2.536307317728614
4.435643564356436,2.6277805941627985
4.455445544554455,2.716688364025896
4.475247524752476,2.8029424164581203
4.4950495049504955,2.886457214494457
4.514851485148514,2.9671499652028688
4.534653465346535,3.044940690078737
4.554455445544555,3.119752294937462
4.574257425742574,3.1915106387268257
4.594059405940594,3.2601446008099435
4.613861386138614,3.3255861463644285
4.633663366336633,3.387770389613376
4.653465346534653,3.446635654656541
4.673267326732674,3.502123533710256
4.693069306930693,3.554178942595969
4.712871287128713,3.6027501733414726
4.732673267326733,3.6477889437788944
4.752475247524752,3.689250444039096
4.772277227722772,3.727093379855576
4.792079207920793,3.761280012601911
4.811881188118812,3.7917761959964493
4.8316831683168315,3.818551409416182
4.851485148514852,3.8415787877692313
4.871287128712871,3.860835147882005
4.891089108910891,3.876301011363244
4.910891089108912,3.887960623912959
4.930693069306931,3.895801971049595
4.9504950495049505,3.8998167902339613
4.97029702970297,3.9000005793733963
4.99009900990099,3.8963526016945664
5.00990099009901,3.888875886977972
5.02970297029703,3.877577229151995
5.0495049504950495,3.862467180249036
5.069306930693069,3.843560040730997
5.089108910891089,3.8208738461961596
5.108910891089109,3.794430350484469
5.128712871287129,3.7642550052032013
5.148514851485149,3.730376935700326
5.1683168316831685,3.6928289135184
5.188118811881188,3.651647325367791
5.207920792079208,3.606872138664285
5.227722772277227,3.5585468636834405
5.247524752475248,3.5067185123915454
5.267326732673268,3.4514375540223057
5.2871287128712865,3.3927578674784176
5.306930693069307,3.330736690649581
5.326732673267327,3.2654345667529125
5.346534653465346,3.1969152878198126
5.366336633663367,3.125245835475306
5.3861386138613865,3.050496319184363
5.405940594059405,2.972739912175728
5.425742574257426,2.8920527853013045
5.445544554455446,2.8085140391520964
5.465346534653465,2.7222056348365893
5.485148514851486,2.633212323943298
5.504950495049505,2.5416215783703415
5.524752475247524,2.4475235209316644
5.544554455445545,2.3510108579740803
5.564356435643565,2.2521788157115616
5.584158415841584,2.151125082682663
5.603960396039604,2.0479497617920557
5.623762376237624,1.9427553370225423
5.643564356435643,1.8356466624644634
5.663366336633663,1.726730985443802
5.683168316831684,1.6161180223942542
5.702970297029703,1.5039201178710442
5.7227722772277225,1.3902525379461343
5.742574257425743,1.2752339876930971
5.762376237623762,1.1589875168301254
5.782178217821782,1.041642129295428
5.801980198019803,0.9233357424725138
5.821782178217822,0.8042209169377315
5.841584158415841,0.6844767805757325
5.861386138613861,0.5643364111280303
5.881188118811881,0.4441589112889512
5.900990099009901,0.324660652627946
5.920792079207921,0.2079282559845216
5.9405940594059405,0.10500385591360716
5.96039603960396,0.09445463318668045
5.98019801980198,0.19221272008189627
6.0,0.3082264994209669
6.01980198019802,0.42764797988320374
6.03960396039604,0.5479541365691999
6.0594059405940595,0.6683343205236246
6.079207920792079,0.7883996281714772
6.099009900990099,0.9079049216754064
6.118811881188119,1.0266651609039874
6.138613861386139,1.14452434609082
6.158415841584159,1.261342214260739
6.178217821782178,1.3769879234152944
6.198019801980198,1.4913368197308445
6.217821782178218,1.604268690598082
6.237623762376237,1.7156667859679993
6.257425742574258,1.825417260388704
6.2772277227722775,1.9334088565286411
6.297029702970296,2.0395327328497688
6.316831683168317,2.143682380150348
6.336633663366337,2.2457535943448153
6.356435643564356,2.345644485552118
6.376237623762377,2.44325551094885
6.396039603960396,2.538489523273845
6.415841584158415,2.6312518296041554
6.435643564356436,2.72145025675179
6.455445544554456,2.808995220749943
6.475247524752475,2.8937997986371498
6.495049504950495,2.975779801245996
6.514851485148515,3.0548538460447654
6.534653465346534,3.130943429318332
6.554455445544554,3.2039729971433855
6.574257425742575,3.2738700147341846
6.594059405940594,3.3405650338235895
6.6138613861386135,3.4039917578095085
6.633663366336634,3.464087104446219
6.653465346534653,3.520791265897426
6.673267326732673,3.574047765997056
6.693069306930694,3.6238035145868204
6.712871287128713,3.670008858817579
6.732673267326732,3.712617631316849
6.752475247524753,3.751587195136969
6.772277227722772,3.7868784854089967
6.792079207920792,3.818456047636446
6.811881188118813,3.8462880725708697
6.8316831683168315,3.8703464276184087
6.851485148514851,3.8906066847328233
6.871287128712871,3.907048144756427
6.891089108910891,3.9196538581759377
6.910891089108911,3.9284106422654124
6.930693069306931,3.933309094593551
6.9504950495049505,3.934343602877365
6.97029702970297,3.9315123511690966
6.99009900990099,3.9248173223677294
7.00990099009901,3.914264297051173
7.02970297029703,3.899862848629684
7.0495049504950495,3.8816263348257647
7.069306930693069,3.8595718854901775
7.089108910891089,3.8337203867688157
7.108910891089109,3.8040964616395527
7.128712871287128,3.770728446843459
7.148514851485149,3.7336483662398434
7.1683168316831685,3.6928919006201166
7.188118811881187,3.6484983540212177
7.207920792079208,3.6005106165858223
7.227722772277228,3.548975124023341
7.247524752475247,3.493941813733706
7.267326732673268,3.4354640776646397
7.287128712871287,3.3735987119835182
7.306930693069306,3.308405863657145
7.326732673267327,3.2399489740473832
7.346534653465347,3.168294719648834
7.366336633663366,3.093512950117381
7.3861386138613865,3.015676623767358
7.405940594059406,2.9348617407527025
7.425742574257425,2.8511472741969546
7.445544554455446,2.7646150996032857
7.465346534653466,2.675349922966064
7.485148514851485,2.5834392081300206
7.504950495049505,2.4889731041182372
7.524752475247524,2.392044373399415
7.544554455445544,2.2927483224265846
7.564356435643565,2.1911827363127796
7.584158415841584,2.0874478203111373
7.603960396039604,1.9816461519968382
7.623762376237624,1.873882649977921
7.643564356435643,1.764264568062971
7.663366336633663,1.6529015289354294
7.683168316831684,1.5399056201030907
7.702970297029703,1.4253915902533367
7.7227722772277225,1.309477212289339
7.742574257425743,1.1922839332641126
7.762376237623762,1.0739380403889847
7.782178217821782,0.9545728064961375
7.801980198019803,0.8343326208252408
7.821782178217822,0.7133814885907893
7.841584158415841,0.591922212168139
7.861386138613862,0.4702456218120921
7.881188118811881,0.34888279543712547
7.900990099009901,0.22923498469329753
7.92079207920792,0.11795227175223262
7.9405940594059405,0.07736234358417622
7.96039603960396,0.16975936101077266
7.980198019801979,0.286957860908467
8.0,0.4078923638029535
8.01980198019802,0.5297206146790729
8.03960396039604,0.6516140468746339
8.05940594059406,0.7731899061026333
8.07920792079208,0.8942090267736781
8.099009900990099,1.014490185768612
8.118811881188119,1.1338795067477934
8.138613861386139,1.2522377034773187
8.158415841584159,1.3694341472042688
8.178217821782178,1.4853438815145188
8.198019801980198,1.599846034434379
8.217821782178218,1.7128229434979665
8.237623762376238,1.8241596669435844
8.257425742574258,1.9337437144994027
8.277227722772277,2.041464908178443
8.297029702970297,2.1472153226254522
8.316831683168317,2.250889275438857
8.336633663366337,2.352383349513337
8.356435643564357,2.4515964361594422
8.376237623762377,2.548429791758623
8.396039603960396,2.6427871031683448
8.415841584158416,2.7345745586386294
8.435643564356436,2.823700921998369
8.455445544554456,2.9100776085262474
8.475247524752476,2.993618761361689
8.495049504950495,3.0742413276125657
8.514851485148515,3.151865133525921
8.534653465346535,3.2264129582359558
8.554455445544555,3.297810605709847
8.574257425742575,3.365986974589413
8.594059405940595,3.4308741256840336
8.613861386138613,3.4924073469132773
8.633663366336634,3.5505252155306573
8.653465346534654,3.60516965748552
8.673267326732672,3.656286003800198
8.693069306930694,3.703823043855938
8.712871287128714,3.7477330754942915
8.732673267326732,3.787971951851853
8.752475247524753,3.824499124855828
8.772277227722773,3.8572776853158612
8.792079207920791,3.8862743995551767
8.811881188118813,3.9114597425303668
8.831683168316832,3.9328079273953627
8.85148514851485,3.950296931470628
8.871287128712872,3.963908518583779
8.891089108910892,3.9736282577530697
8.91089108910891,3.9794455381897316
8.930693069306932,3.9813535805999303
8.950495049504951,3.979349444771812
8.97029702970297,3.9734340334372327
8.990099009900991,3.963612092402645
9.00990099009901,3.949892206947628
9.029702970297029,3.932286794494272
9.04950495049505,3.9108120935548603
9.06930693069307,3.885488148969911
9.089108910891088,3.8563387934531153
9.10891089108911,3.82339162546445
9.12871287128713,3.786677983437452
9.148514851485148,3.74623291639185
9.16831683168317,3.7020951509677587
9.188118811881187,3.6543070549234686
9.207920792079207,3.602914597144824
9.227722772277229,3.5479673042208324
9.247524752475247,3.4895182136475054
9.267326732673267,3.427623823730458
9.287128712871288,3.3623440402663674
9.306930693069306,3.293742120095077
9.326732673267326,3.2218846116279316
9.346534653465348,3.1468412924751723
9.366336633663366,3.0686851043166508
9.386138613861386,2.987492085187924
9.405940594059407,2.9033412993896226
9.425742574257425,2.8163147652760214
9.445544554455445,2.7264973812432154
9.465346534653467,2.633976850326137
9.485148514851485,2.538843603937402
9.504950495049505,2.44119072545667
9.524752475247526,2.3411138746328177
9.544554455445544,2.238711214133677
9.564356435643564,2.134083340135948
9.584158415841586,2.027333219699888
9.603960396039604,1.9185661390042466
9.623762376237623,1.8078896686458268
9.643564356435645,1.6954136557066017
9.663366336633663,1.581250258213762
9.683168316831683,1.465514047987705
9.702970297029704,1.3483222267368868
9.722772277227723,1.2297950361185166
9.742574257425742,1.1100565142366812
9.762376237623764,0.9892359035632793
9.782178217821782,0.8674703638367255
9.801980198019802,0.74491051424724
9.821782178217823,0.6217327622882587
9.841584158415841,0.4981702467126794
9.861386138613861,0.37460536008363293
9.881188118811881,0.2519332323338318
9.900990099009901,0.13389415424332826
9.92079207920792,0.06251981443575799
9.94059405940594,0.14662043242271866
9.96039603960396,0.26580807400216816
9.98019801980198,0.38886197261006283
10.0,0.5127269608504743
10.01980198019802,0.6366079579301694
10.03960396039604,0.7601479198606419
10.05940594059406,0.883122029021504
10.07920792079208,1.0053568234285342
10.099009900990099,1.1267025097152905
10.118811881188119,1.2470217566720345
10.138613861386139,1.366184602285694
10.158415841584159,1.4840659423121236
10.178217821782178,1.6005442214581216
10.198019801980198,1.7155007297044107
10.217821782178218,1.8288192225884117
10.237623762376238,1.9403857238909177
10.257425742574258,2.0500884353439393
10.277227722772277,2.1578177112539647
10.297029702970297,2.263466073532372
10.316831683168317,2.366928252342597
10.336633663366337,2.4681012431459957
10.356435643564357,2.566884374231453
10.376237623762377,2.6631793808304756
10.396039603960396,2.7568904831830987
10.415841584158416,2.8479244667315093
10.435643564356436,2.9361907631503774
10.455445544554454,3.021601531279168
10.475247524752476,3.1040717372645283
10.495049504950495,3.183519233389492
10.514851485148514,3.2598648351851676
10.534653465346535,3.3330323965059923
10.554455445544555,3.4029488823117697
10.574257425742573,3.469544438946058
10.594059405940595,3.5327524617350154
10.613861386138614,3.5925096597577286
10.633663366336632,3.6487561176597554
10.653465346534654,3.701435354398249
10.673267326732674,3.7504943788205365
10.693069306930692,3.7958837419892375
10.712871287128714,3.83755758617631
