Frequency (Hz),Amplitude
0.0,6.414277368977978
0.019867549668874173,6.4123253459830165
0.039735099337748346,6.406473401269211
0.059602649006622516,6.396733915062091
0.07947019867549669,6.383127545837451
0.09933774834437085,6.365683267677861
0.11920529801324503,6.344438422981456
0.13907284768211922,6.319438790925134
0.15894039735099338,6.29073867218735
0.17880794701986755,6.258400990528105
0.1986754966887417,6.2224974119026015
0.2185430463576159,6.183108481844415
0.23841059602649006,6.1403237818877185
0.2582781456953642,6.094242105798723
0.27814569536423844,6.044971656342749
0.2980132450331126,5.992630263213436
0.31788079470198677,5.937345622577901
0.33774834437086093,5.879255558426813
0.3576158940397351,5.818508305537291
0.3774834437086093,5.7552628133298
0.3973509933774834,5.689689069193702
0.4172185430463576,5.621968438927889
0.4370860927152318,5.552294020746465
0.45695364238410596,5.48087100777983
0.4768211920529801,5.407917052100674
0.49668874172185434,5.333662620958147
0.5165562913907285,5.2583513330502605
0.5364238410596026,5.182240259245758
0.5562913907284769,5.105600168140706
0.5761589403973509,5.028715692183938
0.5960264900662252,4.951885384857715
0.6158940397350993,4.875421633646917
0.6357615894039735,4.799650387457675
0.6556291390728477,4.724910651064561
0.6754966887417219,4.651553693541138
0.695364238410596,4.579941913119724
0.7152317880794702,4.510447298396252
0.7350993377483444,4.443449426317261
0.7549668874172186,4.379332942196113
0.7748344370860927,4.318484477416426
0.7947019867549668,4.26128897771693
0.8145695364238411,4.2081254399132275
0.8344370860927152,4.15936208786936
0.8543046357615894,4.1153510587923385
0.8741721854304636,4.0764227165194615
0.8940397350993378,4.042879755985367
0.9139072847682119,4.014991307677659
0.9337748344370861,3.992987286784417
0.9536423841059603,3.9770532528011127
0.9735099337748344,3.9673260462724205
0.9933774834437087,3.9638904467196943
1.0132450331125828,3.966777049234189
1.033112582781457,3.9759614897988773
1.0529801324503312,3.9913650676031738
1.0728476821192052,4.0128567253568095
1.0927152317880795,4.040256265775431
1.1125827814569538,4.073338613102506
1.1324503311258278,4.111838879531727
1.1523178807947019,4.155457971176824
1.1721854304635762,4.203868466747008
1.1920529801324504,4.256720521220875
1.2119205298013245,4.3136475813976265
1.2317880794701985,4.374271744168418
1.2516556291390728,4.438208635792182
1.271523178807947,4.505071736432809
1.2913907284768211,4.574476115146625
1.3112582781456954,4.646041574286543
1.3311258278145695,4.719395228096795
1.3509933774834437,4.794173558293396
1.370860927152318,4.8700240005096225
1.390728476821192,4.946606120832187
1.410596026490066,5.023592442575997
1.4304635761589404,5.100668981191793
1.4503311258278146,5.177535540863816
1.4701986754966887,5.253905820821336
1.4900662251655628,5.329507373334625
1.5099337748344372,5.404081449281088
1.5298013245033113,5.477382761373976
1.5496688741721854,5.549179189842289
1.5695364238410596,5.619251450637162
1.5894039735099337,5.687392742149852
1.609271523178808,5.7534083829466205
1.6291390728476822,5.817115450116606
1.6490066225165563,5.878342425432196
1.6688741721854303,5.936928854577327
1.6887417218543048,5.992725023141848
1.7086092715231789,6.045591651852758
1.728476821192053,6.095399612558224
1.7483443708609272,6.142029665752824
1.7682119205298013,6.185372219888035
1.7880794701986755,6.225327112316805
1.8079470198675496,6.261803411445279
1.8278145695364238,6.294719239482785
1.847682119205298,6.324001615074382
1.8675496688741722,6.349586315051474
1.8874172185430464,6.371417754531696
1.9072847682119205,6.389448884630444
1.9271523178807946,6.403641107103255
1.9470198675496688,6.413964205315012
1.9668874172185429,6.420396291023687
1.9867549668874174,6.422923766568289
2.0066225165562916,6.421541302160601
2.0264900662251657,6.416251828095042
2.0463576158940397,6.407066541808461
2.066225165562914,6.394004929840888
2.086092715231788,6.377094804865869
2.1059602649006623,6.3563723580752285
2.1258278145695364,6.331882227314041
2.1456953642384105,6.303677581466113
2.165562913907285,6.271820221684862
2.185430463576159,6.236380700145091
2.205298013245033,6.197438457053796
2.2251655629139075,6.155081976695245
2.2450331125827816,6.109408963290871
2.2649006622516556,6.060526537416435
2.2847682119205297,6.008551453626102
2.3046357615894038,5.9536103397692095
2.324503311258278,5.895839958231592
2.3443708609271523,5.83538748896549
2.364238410596027,5.772410833661677
2.384105960264901,5.707078939730429
2.403973509933775,5.639572141853345
2.423841059602649,5.57008251769893
2.443708609271523,5.4988142529080415
2.463576158940397,5.425984008591186
2.4834437086092715,5.351821282275256
2.5033112582781456,5.276568750429548
2.52317880794702,5.200482577330105
2.543046357615894,5.123832671043037
2.562913907284768,5.046902862699877
2.5827814569536423,4.9699909800235895
2.6026490066225163,4.893408780325426
2.622516556291391,4.817481702105575
2.642384105960265,4.742548388250239
2.662251655629139,4.66895992807495
2.6821192052980134,4.5970787607572845
2.7019867549668874,4.527277179878339
2.7218543046357615,4.459935378907003
2.741721854304636,4.395438981746531
2.76158940397351,4.334176012237309
2.781456953642384,4.276533273026763
2.801324503311258,4.222892128433214
2.821192052980132,4.17362371820404
2.8410596026490067,4.129083668826161
2.8609271523178808,4.089606414460899
2.8807947019867552,4.055499287370483
2.9006622516556293,4.02703658317257
2.9205298013245033,4.004453843615003
2.9403973509933774,3.9879426226443835
2.9602649006622515,3.9776460048500955
2.9801324503311255,3.9736551252363146
3.0,3.976006894937668
3.0198675496688745,3.9846830716861685
3.0397350993377485,3.999610732734203
3.0596026490066226,4.020664120321391
3.0794701986754967,4.04766774556524
3.0993377483443707,4.080400565177789
3.119205298013245,4.1186009937859245
3.1390728476821192,4.1619724867319
3.1589403973509933,4.21018942435085
3.1788079470198674,4.262903046021614
3.198675496688742,4.319747215721147
3.218543046357616,4.380343844313313
3.23841059602649,4.444307841373956
3.2582781456953644,4.511251515898355
3.2781456953642385,4.580788387010404
3.2980132450331126,4.652536400526942
3.3178807947019866,4.726120573982689
3.3377483443708607,4.801175111593014
3.3576158940397347,4.877345042421396
3.3774834437086096,4.954287440913053
3.3973509933774837,5.031672290270022
3.4172185430463577,5.109183047146659
3.437086092715232,5.186516961953158
3.456953642384106,5.263385203581317
3.47682119205298,5.339512831313566
3.4966887417218544,5.414638650549662
3.5165562913907285,5.488514983126089
3.5364238410596025,5.560907377621689
3.556291390728477,5.631594280247329
3.576158940397351,5.7003666827475
3.596026490066225,5.767027760188334
3.615894039735099,5.831392508530056
3.6357615894039736,5.89328738942778
3.6556291390728477,5.95254998771008
3.6754966887417218,6.009028685386138
3.695364238410596,6.062582354769117
3.7152317880794703,6.11308007232128
3.7350993377483444,6.160400854074452
3.754966887417219,6.204433412917398
3.774834437086093,6.245075937631531
3.794701986754967,6.28223589326879
3.814569536423841,6.315829842275441
3.834437086092715,6.345783285650977
3.854304635761589,6.372030523378125
3.8741721854304636,6.394514533351656
3.8940397350993377,6.413186868062037
3.9139072847682117,6.428007568345137
3.9337748344370858,6.438945093584781
3.9536423841059607,6.445976267845819
3.9735099337748347,6.449086241517465
3.993377483443709,6.448268468156285
4.013245033112583,6.443524696333694
4.033112582781457,6.434864976410741
4.052980132450331,6.422307682283084
4.072847682119205,6.405879548257833
4.0927152317880795,6.3856157213413605
4.112582781456953,6.361559829329895
4.132450331125828,6.333764065201066
4.152317880794702,6.30228928840136
4.172185430463576,6.26720514370817
4.19205298013245,6.228590198410682
4.211920529801325,6.186532098595304
4.231788079470199,6.141127745331365
4.251655629139073,6.09248349152068
4.271523178807947,6.040715360088836
4.291390728476821,5.9859492840411
4.311258278145695,5.928321368661787
4.33112582781457,5.867978175781034
4.3509933774834435,5.805077029537312
4.370860927152318,5.739786342394124
4.390728476821192,5.672285959285685
4.410596026490066,5.602767516620938
4.43046357615894,5.531434811415418
4.450331125827815,5.458504173986511
4.470198675496689,5.384204835376577
4.490066225165563,5.308779277894563
4.509933774834438,5.232483553830682
4.529801324503311,5.155587553451278
4.549668874172186,5.078375198797613
4.569536423841059,5.001144534607988
4.589403973509934,4.924207681933835
4.6092715231788075,4.847890613890329
4.629139072847682,4.77253270675472
4.649006622516556,4.69848601373641
4.66887417218543,4.62611420381534
4.688741721854305,4.555791104910982
4.708609271523179,4.487898790350176
4.728476821192054,4.422825151377384
4.748344370860927,4.360960907629195
4.768211920529802,4.3026960233627785
4.788079470198675,4.248415520802244
4.80794701986755,4.19849471369709
4.827814569536423,4.153293923613283
4.847682119205298,4.113152786904434
4.867549668874172,4.078384308585696
4.887417218543046,4.049268865838287
4.9072847682119205,4.026048402837665
4.927152317880794,4.008921083780626
4.947019867549669,3.9980366766897966
4.966887417218543,3.99349292283504
4.986754966887418,3.995333104303449
5.006622516556291,4.003544957758546
5.026490066225166,4.018061001675065
5.04635761589404,4.038760255993045
5.066225165562914,4.065471247211032
5.086092715231788,4.097976118009918
5.105960264900662,4.136015606061395
5.125827814569536,4.179294626001844
5.14569536423841,4.227488182299754
5.1655629139072845,4.280247356310981
5.185430463576159,4.337205143265934
5.205298013245033,4.3979819581719966
5.225165562913908,4.462190677528379
5.245033112582782,4.529441131064827
5.264900662251656,4.5993440005036845
5.28476821192053,4.671514118169762
5.304635761589404,4.745573186068306
5.324503311258278,4.821151955833645
5.344370860927152,4.897891922479064
5.364238410596027,4.975446591326135
5.3841059602649,5.053482379187887
5.403973509933775,5.131679209118118
5.4238410596026485,5.209730853964762
5.443708609271523,5.287345078521231
5.463576158940397,5.364243623984593
5.483443708609272,5.440162072232045
5.503311258278146,5.5148496214760705
5.52317880794702,5.588068799375715
5.543046357615895,5.659595134784747
5.562913907284768,5.729216805052076
5.582781456953643,5.79673427214898
5.602649006622516,5.861959917844949
5.622516556291391,5.924717685633474
5.642384105960264,5.984842735058942
5.662251655629139,6.04218111245027
5.682119205298013,6.096589440766373
5.701986754966887,6.1479346302445705
5.7218543046357615,6.196093610767508
5.741721854304636,6.240953086281895
5.7615894039735105,6.28240931117733
5.781456953642384,6.320367888234411
5.801324503311259,6.354743587551865
5.821192052980132,6.385460185742147
5.841059602649007,6.4124503246260804
5.860927152317881,6.435655388646336
5.880794701986755,6.455025400245319
5.900662251655629,6.47051893250685
5.920529801324503,6.4821030384362865
5.940397350993377,6.489753196344523
5.960264900662251,6.49345327090329
5.980132450331126,6.4931954895503114
6.0,6.488980434038575
6.0198675496688745,6.4808170470437405
6.039735099337749,6.468722653864751
6.059602649006623,6.4527229993736555
6.079470198675497,6.432852300489619
6.099337748344371,6.409153314567279
6.119205298013245,6.381677424198014
6.139072847682119,6.35048473902295
6.158940397350993,6.315644215242831
6.178807947019867,6.277233793579579
6.198675496688741,6.23534055649032
6.218543046357616,6.190060905449402
6.23841059602649,6.141500759088083
6.258278145695365,6.089775772903102
6.2781456953642385,6.035011581097961
6.298013245033113,5.977344060887131
6.317880794701987,5.916919619249651
6.337748344370861,5.853895501635475
6.357615894039735,5.78844012147423
6.377483443708609,5.720733408468588
6.397350993377484,5.650967172529031
6.417218543046357,5.579345478767511
6.437086092715232,5.506085027156844
6.456953642384105,5.431415528214395
6.47682119205298,5.355580063317549
6.496688741721854,5.278835414942359
6.516556291390729,5.201452348182468
6.5364238410596025,5.123715820326054
6.556291390728477,5.04592509005063
6.5761589403973515,4.968393692010013
6.596026490066225,4.8914492363869915
6.6158940397351,4.815432986641961
6.635761589403973,4.740699162625646
6.655629139072848,4.667613911053411
6.675496688741721,4.596553881881265
6.695364238410596,4.5279043484210595
6.715231788079469,4.46205681231914
6.735099337748344,4.399406043151406
6.754966887417219,4.3403465176847265
6.774834437086093,4.285268246901718
6.794701986754967,4.234552010222532
6.814569536423841,4.188564055633661
6.8344370860927155,4.147650370077197
6.854304635761589,4.11213067341546
6.874172185430464,4.082292337016859
6.894039735099337,4.058384468725603
6.913907284768212,4.040612433332568
6.933774834437086,4.029133085739098
6.95364238410596,4.024050978529329
6.973509933774834,4.025415765153869
6.993377483443709,4.033220956437682
7.013245033112583,4.047404107347839
7.033112582781457,4.067848421506899
7.052980132450331,4.0943856729490795
7.072847682119205,4.12680026796006
7.0927152317880795,4.16483421241312
7.112582781456954,4.208192716502374
7.132450331125828,4.256550160185966
7.152317880794702,4.309556156612855
7.172185430463576,4.366841482459141
7.19205298013245,4.428023687298065
7.211920529801324,4.492712242607045
7.231788079470198,4.56051313930563
7.251655629139073,4.631032886693457
7.271523178807947,4.7038819027070815
7.291390728476822,4.778677314346419
7.311258278145695,4.855045207870504
7.33112582781457,4.932622381652293
7.3509933774834435,5.011057661584572
7.370860927152318,5.090012840990805
7.390728476821192,5.1691633054407085
7.410596026490066,5.248198398880946
7.430463576158941,5.326821582042849
7.450331125827814,5.404750427939407
7.470198675496689,5.481716492965906
7.490066225165562,5.557465096048376
7.509933774834438,5.631755032677334
7.52980132450331,5.704358245647312
7.549668874172186,5.77505946994582
7.569536423841059,5.843655865495411
7.589403973509934,5.909956648312834
7.6092715231788075,5.973782728055485
7.629139072847682,6.034966357813153
7.649006622516557,6.0933508003075145
7.66887417218543,6.1487900133192745
7.6887417218543055,6.201148356116941
7.708609271523178,6.250300317858886
7.728476821192054,6.296130268338343
7.748344370860927,6.3385322310002445
7.768211920529802,6.377409677848052
7.788079470198675,6.412675345650568
7.80794701986755,6.444251072732311
7.827814569536423,6.47206765556796
7.847682119205298,6.496064724387425
7.8675496688741715,6.516190637022948
7.887417218543046,6.5324023902821775
7.907284768211921,6.544665548206726
7.927152317880795,6.552954186666987
7.9470198675496695,6.557250853847245
7.966887417218543,6.557546546287079
7.986754966887418,6.5538407002627865
8.006622516556291,6.546141198414053
8.026490066225167,6.534464391644101
8.046357615894038,6.518835136444937
8.066225165562914,6.4992868479205335
8.086092715231787,6.475861568898957
8.105960264900663,6.448610055635798
8.125827814569536,6.417591880714571
8.14569536423841,6.382875553840186
8.165562913907285,6.344538661295117
8.185430463576159,6.3026680248787255
8.205298013245034,6.257359881169857
8.225165562913906,6.2087200819336745
8.245033112582782,6.156864316420969
8.264900662251655,6.101918356169655
8.28476821192053,6.044018322692411
8.304635761589404,5.983310978100808
8.324503311258278,5.919954038244336
8.344370860927151,5.8541165073006125
8.364238410596027,5.785979031899512
8.3841059602649,5.715734271751531
8.403973509933774,5.64358728232671
8.42384105960265,5.569755903332939
8.443708609271523,5.494471144506684
8.463576158940398,5.41797755748754
8.483443708609272,5.3405335792345126
8.503311258278146,5.262411828502815
8.52317880794702,5.183899332300298
8.543046357615895,5.105297653986959
8.562913907284768,5.026922888829553
8.582781456953642,4.949105486522419
8.602649006622515,4.8721898536973045
8.62251655629139,4.7965336831827035
8.642384105960264,4.7225069513393825
8.66225165562914,4.650490521008878
8.682119205298013,4.58087428650787
8.701986754966887,4.514054799930403
8.721854304635762,4.4504323261584835
8.741721854304636,4.390407288803734
8.76158940397351,4.334376091956326
8.781456953642383,4.2827263337318415
8.801324503311259,4.235831466938206
8.821192052980132,4.194045008265866
8.841059602649008,4.157694447274805
8.86092715231788,4.127075055600017
8.880794701986755,4.102443839401204
8.90066225165563,4.084013907656311
8.920529801324504,4.07194953928356
8.940397350993377,4.066362218682891
8.960264900662251,4.067307870281192
8.980132450331126,4.074785459801165
9.0,4.088737048754285
9.019867549668875,4.109049297686432
9.039735099337747,4.135556323289552
9.059602649006623,4.168043734841713
9.079470198675496,4.206253614869342
9.099337748344372,4.249890172550844
9.119205298013245,4.298625787546105
9.139072847682119,4.352107174466131
9.158940397350994,4.409961429283169
9.178807947019868,4.47180176238891
9.198675496688743,4.537232772296366
9.218543046357615,4.605855163462305
9.23841059602649,4.677269857040538
9.258278145695364,4.75108148177813
9.27814569536424,4.826901262414316
9.298013245033111,4.9043493447005595
9.317880794701987,4.98305661022338
9.33774834437086,5.062666041757399
9.357615894039736,5.1428337022771595
9.37748344370861,5.223229389376433
9.397350993377483,5.303537022900728
9.417218543046358,5.383454818108752
9.437086092715232,5.4626952904288535
9.456953642384107,5.540985131446205
9.47682119205298,5.618064989540711
9.496688741721854,5.6936891828414025
9.516556291390728,5.7676253670079545
9.536423841059603,5.839654175846081
9.556291390728477,5.9095688489127065
9.57615894039735,5.977174857031309
9.596026490066224,6.042289533963805
9.6158940397351,6.104741720306145
9.635761589403973,6.164371423925207
9.655629139072847,6.2210294998684255
9.675496688741722,6.27457735159711
9.695364238410596,6.324886654565221
9.715231788079471,6.371839102542398
9.735099337748345,6.415326176624301
9.754966887417218,6.455248936550307
9.774834437086092,6.491517833732601
9.794701986754967,6.524052545268643
9.814569536423841,6.552781828141558
9.834437086092716,6.5776433927982225
9.854304635761588,6.598583795316988
9.874172185430464,6.615558347431037
9.894039735099337,6.628531043749053
9.913907284768213,6.63747450560714
9.933774834437086,6.642369941091248
9.95364238410596,6.643207120883418
9.973509933774835,6.639984369704667
9.993377483443709,6.63270857325186
10.013245033112582,6.621395200651287
10.033112582781456,6.6060683425779825
10.052980132450331,6.586760765314573
10.072847682119205,6.56351398114387
10.09271523178808,6.536378335585731
10.112582781456952,6.505413112094559
10.132450331125828,6.4706866549292625
10.152317880794701,6.432276510984984
10.172185430463577,6.390269591431637
10.192052980132452,6.3447623540298705
10.211920529801324,6.295861006980559
10.2317880794702,6.24368173509871
10.251655629139073,6.188350948970135
10.271523178807948,6.130005557531168
10.29139072847682,6.068793264185671
10.311258278145695,6.004872886109965
10.331125827814569,5.938414695762326
10.350993377483444,5.869600782767768
10.370860927152318,5.798625433244305
10.390728476821192,5.725695522218019
10.410596026490065,5.65103091297975
10.43046357615894,5.574864854999878
10.450331125827816,5.497444369267929
10.470198675496688,5.419030606594041
10.490066225165563,5.339899160441661
10.509933774834437,5.26034031121392
10.529801324503312,5.180659173593091
10.549668874172186,5.101175712582121
10.56953642384106,5.0222245874630795
10.589403973509933,4.944154776220708
10.609271523178808,4.867328926489585
10.629139072847682,4.7921223733665705
10.649006622516556,4.718921760303271
10.66887417218543,4.648123197805955
10.688741721854305,4.580129897086761
10.70860927152318,4.5153492235429225
10.728476821192054,4.454189129413084
10.748344370860927,4.397053947392064
10.7682119205298,4.344339558093439
10.788079470198676,4.296427983885454
10.80794701986755,4.253681508410075
10.827814569536423,4.216436472128998
10.847682119205297,4.184996945014065
10.867549668874172,4.159628522117134
10.887417218543046,4.140552519555684
10.907284768211921,4.127940861015374
10.927152317880793,4.121911933283005
