Time (s),Filtered Signal
0.0,-0.004355080302084686
0.033370165745856356,-0.46366266828618097
0.06674033149171271,-0.7691227269346527
0.10011049723756907,-0.8069702695646996
0.13348066298342542,-0.5340144120199298
0.16685082872928178,0.00883873045072402
0.20022099447513814,0.7067454814397572
0.2335911602209945,1.4043201502413718
0.26696132596685085,1.9523380578678027
0.30033149171270723,2.2506705623629344
0.33370165745856356,2.2708407562189525
0.3670718232044199,2.050793678053373
0.4004419889502763,1.6677927985593384
0.43381215469613266,1.2050836068095574
0.467182320441989,0.728474912983778
0.5005524861878453,0.28054364375310226
0.5339226519337017,-0.1113624220520441
0.5672928176795581,-0.42442017800668574
0.6006629834254145,-0.6370876466854499
0.6340331491712707,-0.7360151045538829
0.6674033149171271,-0.727394570934035
0.7007734806629835,-0.6432131124732023
0.7341436464088398,-0.5356962328469412
0.7675138121546962,-0.46042427949213244
0.8008839779005525,-0.45549764287478045
0.8342541436464089,-0.526699929209885
0.8676243093922653,-0.6457497599316436
0.9009944751381216,-0.7624231806964825
0.934364640883978,-0.825058548264216
0.9677348066298344,-0.8006568027705521
1.0011049723756906,-0.6865553519779951
1.0344751381215471,-0.5096620098068395
1.0678453038674034,-0.31450565587893253
1.1012154696132597,-0.14570743810917047
1.1345856353591162,-0.032278465145574156
1.1679558011049724,0.02016059606405626
1.201325966850829,0.026896056673904076
1.2346961325966852,0.013555651608693845
1.2680662983425415,0.0029451781486210587
1.301436464088398,0.005437652651372919
1.3348066298342542,0.016916209190119158
1.3681767955801105,0.024427782513275053
1.401546961325967,0.016017770180924814
1.4349171270718233,-0.010611853873116393
1.4682872928176796,-0.04515522521022567
1.501657458563536,-0.06896384371275972
1.5350276243093923,-0.06422785140725833
1.5683977900552488,-0.023112255854736852
1.601767955801105,0.04826580706827736
1.6351381215469614,0.13350483388001838
1.6685082872928179,0.2154918889645272
1.7018784530386741,0.2864937876257997
1.7352486187845306,0.3524620052618937
1.768618784530387,0.42798746850835967
1.8019889502762432,0.5236890939397305
1.8353591160220997,0.6329627293562412
1.868729281767956,0.7267309954441952
1.9020994475138122,0.7614411567259859
1.9354696132596687,0.698337993468726
1.968839779005525,0.5249373532657633
2.0022099447513813,0.26705789639354366
2.0355801104972375,-0.016240508598203772
2.0689502762430942,-0.2538096787525868
2.1023204419889505,-0.3901533270157987
2.135690607734807,-0.40668793165333295
2.169060773480663,-0.32671744036112194
2.2024309392265193,-0.20243402269832284
2.235801104972376,-0.09081423457424678
2.2691712707182323,-0.02998953422738953
2.3025414364640886,-0.02655434708130086
2.335911602209945,-0.05836573483156898
2.369281767955801,-0.08988303772178473
2.402651933701658,-0.09162373819018552
2.436022099447514,-0.05422942373935989
2.4693922651933704,0.008919970485319948
2.5027624309392267,0.07058808649832003
2.536132596685083,0.10451925234655496
2.5695027624309392,0.09816129114795463
2.602872928176796,0.05679814673392614
2.636243093922652,-0.002586760007589411
2.6696132596685085,-0.06381855882667377
2.7029834254143648,-0.12295053597096571
2.736353591160221,-0.19146917483138456
2.7697237569060777,-0.2884313851763472
2.803093922651934,-0.4249355982183698
2.8364640883977903,-0.58936640434977
2.8698342541436466,-0.7427290584213598
2.903204419889503,-0.8290491030200146
2.936574585635359,-0.7979932733563749
2.969944751381216,-0.6295776142005652
3.003314917127072,-0.34833980991744107
3.0366850828729284,-0.018651554294373023
3.0700552486187846,0.2779095864636614
3.103425414364641,0.4729844365239153
3.1367955801104976,0.5355383225271789
3.170165745856354,0.47906441843998615
3.20353591160221,0.35015656487650226
3.2369060773480665,0.20576558537747944
3.2702762430939227,0.09082412755552888
3.3036464088397794,0.025857483879770528
3.3370165745856357,0.007659120998424641
3.370386740331492,0.019214694615658282
3.4037569060773483,0.041507184599782726
3.4371270718232045,0.060953741893709244
3.4704972375690613,0.07057082423846166
3.5038674033149175,0.06748514497421494
3.537237569060774,0.0513250943598465
3.57060773480663,0.026379770064525906
3.6039779005524863,0.006480588920104648
3.6373480662983426,0.018028024235197865
3.6707182320441993,0.09595879135350445
3.7040883977900556,0.27058840393435446
3.737458563535912,0.5488098911739058
3.770828729281768,0.8981090443344929
3.8041988950276244,1.243191311384236
3.837569060773481,1.4811851059829455
3.8709392265193374,1.5134273924573078
3.9043093922651937,1.2831563699353452
3.93767955801105,0.8034242709181105
3.9710497237569062,0.16146598905021242
4.0044198895027625,-0.505214345204514
4.037790055248619,-1.0532935242534849
4.071160220994475,-1.3810187811969898
4.104530386740332,-1.4590483878837193
4.1379005524861885,-1.332646068963433
4.171270718232044,-1.0960942653482235
4.204640883977901,-0.8520965165869654
4.238011049723757,-0.6740919453063335
4.271381215469614,-0.5860435698085787
4.30475138121547,-0.5649874926891267
4.338121546961326,-0.5614445567242514
4.371491712707183,-0.5262958300612746
4.404861878453039,-0.4320658627426878
4.438232044198895,-0.2810017329328009
4.471602209944752,-0.09915392037780053
4.504972375690608,0.0783437537037306
4.538342541436465,0.22276759291283724
4.5717127071823205,0.3210993091787532
4.605082872928177,0.376144064973266
4.638453038674034,0.3993190069942644
4.67182320441989,0.4013068262877161
4.7051933701657465,0.38615061122130556
4.738563535911602,0.3518091414249527
4.771933701657459,0.29618702396059726
4.805303867403316,0.22437870822273984
4.8386740331491715,0.15206714721628786
4.872044198895028,0.10212746287529349
4.905414364640884,0.09538748202895692
4.938784530386741,0.140073081874085
4.972154696132597,0.22568712712894431
5.005524861878453,0.32511763119919973
5.03889502762431,0.4045854551252202
5.072265193370166,0.43689880847722196
5.105635359116023,0.4117109822067113
5.1390055248618784,0.33806893381716646
5.172375690607735,0.23854597028283403
5.205745856353592,0.13840178394386157
5.239116022099448,0.05530440799557607
5.272486187845304,-0.0057249220915813
5.30585635359116,-0.05057722699870042
5.339226519337017,-0.08947692597696097
5.372596685082874,-0.12963288275174506
5.4059668508287295,-0.17104000856312263
5.439337016574586,-0.2072431898631714
5.472707182320442,-0.23005699546995403
5.506077348066299,-0.23517806797510965
5.5394475138121555,-0.22531569065321372
5.572817679558011,-0.20897113716780794
5.606187845303868,-0.19549039015349085
5.639558011049724,-0.18918768825458254
5.672928176795581,-0.18603238333450103
5.706298342541437,-0.17518236068622436
5.739668508287293,-0.14508295121816117
5.77303867403315,-0.09122518704033694
5.806408839779006,-0.02138587112561456
5.839779005524862,0.04494255096465567
5.873149171270718,0.08346453003380665
5.906519337016575,0.07555383104028895
5.939889502762432,0.017379951750171676
5.9732596685082875,-0.07689737894946867
6.006629834254144,-0.17969296385700764
6.04,-0.2603333911001435
6.073370165745857,-0.2963679942702209
6.1067403314917135,-0.2807785079224447
6.140110497237569,-0.22233564577691986
6.173480662983426,-0.13984435869224435
6.206850828729282,-0.05370293654929409
6.240220994475139,0.02121990699555714
6.273591160220995,0.07883852543627962
6.306961325966851,0.12098732561744356
6.340331491712708,0.1539628480489996
6.373701657458564,0.18449215034028077
6.40707182320442,0.21657844090445932
6.440441988950277,0.24979196721406235
6.473812154696133,0.279039132976215
6.50718232044199,0.29578119775461476
6.5405524861878455,0.29071998973157326
6.573922651933702,0.2576801770867452
6.607292817679559,0.19770695799512658
6.640662983425415,0.12165508322606078
6.674033149171271,0.049402862303597576
6.707403314917127,0.004734519672106554
6.740773480662984,0.006802591883660935
6.774143646408841,0.061162472736339867
6.8075138121546965,0.15451480214464852
6.840883977900553,0.25653030232969953
6.874254143646409,0.32935525839152646
6.907624309392266,0.34168578384354426
6.9409944751381225,0.2815503068846209
6.974364640883978,0.16182591933256266
7.007734806629835,0.01540868032329564
7.041104972375691,-0.11841148036846635
7.074475138121548,-0.2106928448738585
7.107845303867403,-0.25537250312713006
7.14121546961326,-0.27182926600379764
7.174585635359117,-0.29582031035364653
7.207955801104973,-0.3620680336041763
7.241325966850829,-0.4855812750783746
7.274696132596685,-0.6499027425284558
7.308066298342542,-0.808229523280286
7.341436464088399,-0.8983593042835841
7.3748066298342545,-0.8665091571012349
7.408176795580111,-0.6907356910703304
7.441546961325967,-0.39404771880734873
7.474917127071824,-0.04093358341849866
7.5082872928176805,0.2824518149606333
7.541657458563536,0.4975548403704092
7.575027624309393,0.5613270221817293
7.608397790055249,0.482254696444296
7.641767955801106,0.3182419578821289
7.675138121546962,0.15650396938676955
7.708508287292818,0.08200880487242779
7.741878453038675,0.14535597905371755
7.775248618784531,0.3418992110961294
7.808618784530387,0.6107532846390545
7.841988950276244,0.8555078847127477
7.8753591160221,0.9799619921661972
7.908729281767957,0.9253209447314795
7.9420994475138125,0.6935381097714172
7.975469613259669,0.34650627968871833
8.008839779005525,-0.018955815585946598
8.042209944751383,-0.30947428989617143
8.075580110497238,-0.4698585788176043
8.108950276243094,-0.49916927591358445
8.14232044198895,-0.44230283448027674
8.175690607734808,-0.36304399786581426
8.209060773480664,-0.3127712865042426
8.24243093922652,-0.30972035303018514
8.275801104972377,-0.3371025636155424
8.309171270718233,-0.35839023510357415
8.342541436464089,-0.3400008288213482
8.375911602209946,-0.2692288609129041
8.409281767955802,-0.15915629474358514
8.442651933701658,-0.039825331813455093
8.476022099447514,0.058001963619583825
8.509392265193371,0.11718961425226578
8.542762430939227,0.13957233306549283
8.576132596685083,0.14085810154890147
8.60950276243094,0.13936150229585192
8.642872928176796,0.14551165804241406
8.676243093922652,0.1576380098045258
8.709613259668508,0.16531795730852586
8.742983425414366,0.1572690611631207
8.776353591160222,0.12874472602584103
8.809723756906077,0.08439362447263508
8.843093922651935,0.03555252506017651
8.87646408839779,-0.005949152262686967
8.909834254143647,-0.033803295970317684
8.943204419889504,-0.04987897453186974
8.97657458563536,-0.06238660092657409
9.009944751381216,-0.08082835824847291
9.043314917127072,-0.11058389641652487
9.07668508287293,-0.1500019955156754
9.110055248618785,-0.19141739080887418
9.143425414364641,-0.22538568550856905
9.176795580110499,-0.24573904047624603
9.210165745856354,-0.2526613584128891
9.24353591160221,-0.25202777132440135
9.276906077348068,-0.25118683164615957
9.310276243093924,-0.2532367800862731
9.34364640883978,-0.2528069453846089
9.377016574585635,-0.23598296800820834
9.410386740331493,-0.18540543032979906
9.443756906077349,-0.08924292882716016
9.477127071823205,0.04949493982290153
9.510497237569062,0.2080142737710245
9.543867403314918,0.34712728403484105
9.577237569060774,0.4239783412208399
9.610607734806631,0.41067148924964786
9.643977900552487,0.31131014737288115
9.677348066298343,0.16859713868207385
9.710718232044199,0.05400622465998305
9.744088397790057,0.04222788517871131
9.777458563535912,0.178496048371277
9.810828729281768,0.4526339025786068
9.844198895027626,0.7929454105406442
9.877569060773482,1.0856974475777132
9.910939226519337,1.2146029875654765
9.944309392265193,1.1047378379056554
9.97767955801105,0.7520888572538759
10.011049723756907,0.22582847850423962
10.044419889502763,-0.3570369894401984
10.07779005524862,-0.8722817272341562
10.111160220994476,-1.226017898092286
10.144530386740332,-1.3747193639173259
10.17790055248619,-1.3239927955331856
10.211270718232045,-1.1131761372034579
10.244640883977901,-0.7974478630410765
10.278011049723757,-0.4359139002548087
10.311381215469615,-0.0866555984582475
10.34475138121547,0.19623275623152034
10.378121546961326,0.3690763848747548
10.411491712707184,0.40933856102139143
10.44486187845304,0.3256111538932169
10.478232044198895,0.15941688348451524
10.511602209944753,-0.025636538065922886
10.544972375690609,-0.16506233452614677
10.578342541436465,-0.2164760501828638
10.61171270718232,-0.17386452317864268
10.645082872928178,-0.06642995340385806
10.678453038674034,0.057258026502535635
10.71182320441989,0.1519625047317942
10.745193370165747,0.1944460524859656
10.778563535911603,0.18970723036401616
10.811933701657459,0.1629677918109998
10.845303867403315,0.1427542059392704
10.878674033149172,0.1444798563250557
10.912044198895028,0.16294789981098015
10.945414364640884,0.17692098907841342
10.978784530386742,0.1623400173667158
11.012154696132598,0.10647119822681118
11.045524861878453,0.015366533170732414
11.078895027624311,-0.088836830774297
11.112265193370167,-0.1786176941815992
11.145635359116023,-0.23362147531389243
11.179005524861878,-0.2485149709237913
11.212375690607736,-0.23262549024367674
11.245745856353592,-0.20235861421049636
11.279116022099448,-0.17096358606016837
11.312486187845305,-0.14120903232174886
11.345856353591161,-0.10472329185205154
11.379226519337017,-0.048215221281194216
11.412596685082875,0.03673145433338264
11.44596685082873,0.1454636455608554
11.479337016574586,0.2581959905454539
11.512707182320442,0.345771439224323
11.5460773480663,0.38124383404668977
11.579447513812156,0.3524677931845517
11.612817679558011,0.27020058628080346
11.646187845303869,0.16785264288290966
11.679558011049725,0.09212539181446314
11.71292817679558,0.0870780059825969
11.746298342541436,0.1766220149189069
11.779668508287294,0.351478693556331
11.81303867403315,0.5659756630368928
11.846408839779006,0.7475654072487187
11.879779005524863,0.817818583483831
11.91314917127072,0.7188956926327361
11.946519337016575,0.4361031307777826
11.979889502762433,0.007254756998729716
12.013259668508288,-0.4859443763994477
12.046629834254144,-0.9419499586636403
12.08,-1.2697225642248722
12.113370165745858,-1.4138484046276265
12.146740331491714,-1.365928661488631
12.18011049723757,-1.1601799559885497
12.213480662983427,-0.8574869471258855
12.246850828729283,-0.5254171296406859
12.280220994475139,-0.22126632447868974
12.313591160220996,0.017686157948264433
12.346961325966852,0.1759872606722523
12.380331491712708,0.25582073200026134
12.413701657458564,0.27009706560258256
12.447071823204421,0.23612395960878632
12.480441988950277,0.17207257517455246
12.513812154696133,0.09665125765771056
12.54718232044199,0.03052572421119137
12.580552486187846,-0.003095705654829909
12.613922651933702,0.018992067057149644
12.64729281767956,0.11375562804291274
12.680662983425416,0.2838524846531682
12.714033149171271,0.5113597779285962
12.747403314917127,0.7570002802268917
12.780773480662985,0.9667478437802136
12.81414364640884,1.0848365927291967
12.847513812154697,1.0695560451966568
12.880883977900554,0.9067828222422631
12.91425414364641,0.6164391136661976
12.947624309392266,0.24899339315042693
12.980994475138122,-0.12766073266630432
13.01436464088398,-0.4470332606559525
13.047734806629835,-0.6621699628115956
13.081104972375691,-0.7566526767378274
13.114475138121549,-0.7448275984101445
13.147845303867404,-0.662092559613573
13.18121546961326,-0.5500328366566648
13.214585635359118,-0.44268241297407157
13.247955801104974,-0.358657594056884
13.28132596685083,-0.30050765220878634
13.314696132596685,-0.25940139516927574
13.348066298342543,-0.22186275715363288
13.381436464088399,-0.17594940888089056
13.414806629834255,-0.11591308608923488
13.448176795580112,-0.04541101821661076
13.481546961325968,0.021052352348153197
13.514917127071824,0.05997459159604855
13.548287292817681,0.04592077273951069
13.581657458563537,-0.036008625805571993
13.615027624309393,-0.17583199274193473
13.648397790055249,-0.3296414087585568
13.681767955801106,-0.4237492604054216
13.715138121546962,-0.3758352723116707
13.748508287292818,-0.12881990615821048
13.781878453038676,0.3152467119601739
13.815248618784532,0.8778940246407291
13.848618784530387,1.41610759439821
13.881988950276245,1.7643593647389517
13.9153591160221,1.7933926245244582
13.948729281767957,1.462293272377734
13.982099447513813,0.8405000706429325
14.01546961325967,0.08790750316749764
14.048839779005526,-0.6006334088861827
14.082209944751382,-1.0639639090643496
14.11558011049724,-1.227949585455375
14.148950276243095,-1.1222529672160881
14.182320441988951,-0.8560613646182121
14.215690607734807,-0.5661767620473004
14.249060773480664,-0.36145356698819586
14.28243093922652,-0.2866223902045778
14.315801104972376,-0.31767570555489405
14.349171270718234,-0.3861521951909868
14.38254143646409,-0.41781069460321896
14.415911602209945,-0.3671024631777754
14.449281767955803,-0.23332981860254753
14.482651933701659,-0.05440629044209302
14.516022099447515,0.11538687242918817
14.54939226519337,0.23106895084075718
14.582762430939228,0.2738918779751197
14.616132596685084,0.2533907176470654
14.64950276243094,0.19645176112492155
14.682872928176797,0.13121081421531836
14.716243093922653,0.07475304302332783
14.749613259668509,0.030065707431108434
14.782983425414367,-0.008069992195887861
14.816353591160222,-0.0433006794879534
14.849723756906078,-0.07048263390626702
14.883093922651934,-0.07524609819563033
14.916464088397792,-0.04038132138165479
14.949834254143648,0.04460864920849966
14.983204419889503,0.17583092185056678
15.016574585635361,0.3329899745180857
15.049944751381217,0.48396566572040295
15.083314917127073,0.5940181202187987
15.116685082872928,0.6359768268431147
15.150055248618786,0.59775789200067
15.183425414364642,0.4849193442230078
15.216795580110498,0.31798036613486147
15.250165745856355,0.12605358694406457
15.283535911602211,-0.060688770498955755
15.316906077348067,-0.21731945546953157
15.350276243093925,-0.3278147081383627
15.38364640883978,-0.385894231809433
15.417016574585636,-0.39377312245528967
15.450386740331492,-0.3598303218264978
15.48375690607735,-0.2959985531979276
15.517127071823205,-0.21539579626623206
15.550497237569061,-0.13058531267476037
15.583867403314919,-0.05275729795444512
15.617237569060775,0.008192392468623954
15.65060773480663,0.04326600899280082
15.683977900552488,0.04463403137338695
15.717348066298344,0.0073292700009568185
15.7507182320442,-0.06781199776749777
15.784088397790056,-0.17127903722382348
15.817458563535913,-0.2839942764704349
15.85082872928177,-0.3798763591423729
15.884198895027625,-0.43197928107799727
15.917569060773483,-0.4206267740500437
15.950939226519338,-0.340683609347048
15.984309392265194,-0.2049120018835263
16.01767955801105,-0.04152727849681304
16.051049723756908,0.11373370147823399
16.084419889502765,0.228401611586224
16.11779005524862,0.2829778563360276
16.151160220994477,0.27599624190442945
16.18453038674033,0.22280908960108212
16.21790055248619,0.1489723040886792
16.251270718232046,0.0810419223518468
16.2846408839779,0.0382292732233098
16.318011049723758,0.0276611496378744
16.351381215469615,0.04444604832958434
16.38475138121547,0.07599136539406019
16.418121546961327,0.10857402985623982
16.451491712707185,0.13342600950531303
16.48486187845304,0.14982841489977552
16.518232044198896,0.16395646494448543
16.551602209944754,0.18411457213887172
16.584972375690608,0.21476720884231953
16.618342541436466,0.2525252112979731
16.651712707182323,0.2864714671815451
16.685082872928177,0.3030935427162979
16.718453038674035,0.2935484485012568
16.751823204419892,0.2593165446115881
16.785193370165747,0.21258654672758906
16.818563535911604,0.1701609078347273
16.851933701657458,0.1432788747688597
16.885303867403316,0.1286134945323623
16.918674033149173,0.10597499145773123
16.952044198895027,0.04537495605487015
16.985414364640885,-0.07866380483942377
17.018784530386743,-0.2718127604577455
17.052154696132597,-0.5111253117209613
17.085524861878454,-0.7476879170464586
17.118895027624312,-0.9207423401949584
17.152265193370166,-0.9782252871590711
17.185635359116024,-0.895805071373527
17.21900552486188,-0.6869436362454581
17.252375690607735,-0.3999324739565257
17.285745856353593,-0.10278971777837143
