Time (s),Filtered Signal
0.0,-0.0029057548884594523
0.033370165745856356,0.040341560935240654
0.06674033149171271,0.06599280775006229
0.10011049723756907,0.06140620539647828
0.13348066298342542,0.022082944087959275
0.16685082872928178,-0.048029316919992245
0.20022099447513814,-0.1383905767326889
0.2335911602209945,-0.23452555324474378
0.26696132596685085,-0.32050489826474693
0.30033149171270723,-0.38120457528644286
0.33370165745856356,-0.4048322763399789
0.3670718232044199,-0.385813032485289
0.4004419889502763,-0.32714406457651635
0.43381215469613266,-0.24069800131686644
0.467182320441989,-0.14441988362124508
0.5005524861878453,-0.05685334777924119
0.5339226519337017,0.008941267006584193
0.5672928176795581,0.04934139181028671
0.6006629834254145,0.07008531311448721
0.6340331491712707,0.0822186525867082
0.6674033149171271,0.09611318659686617
0.7007734806629835,0.1164994758915498
0.7341436464088398,0.14076892631716012
0.7675138121546962,0.1610007961649425
0.8008839779005525,0.16832834009073844
0.8342541436464089,0.15735678464760613
0.8676243093922653,0.12870138903778777
0.9009944751381216,0.08890118125429854
0.934364640883978,0.048203192599582424
0.9677348066298344,0.01738889914434786
1.0011049723756906,0.004786322468296577
1.0344751381215471,0.014162902660145025
1.0678453038674034,0.043745915675813644
1.1012154696132597,0.08640971351223782
1.1345856353591162,0.131040020273694
1.1679558011049724,0.16499945249528727
1.201325966850829,0.17732214916607977
1.2346961325966852,0.16185130212978496
1.2680662983425415,0.1192861160020076
1.301436464088398,0.057286193038635407
1.3348066298342542,-0.011580222226811038
1.3681767955801105,-0.07342615575762577
1.401546961325967,-0.11694729248559853
1.4349171270718233,-0.13633523182552454
1.4682872928176796,-0.1323788992556339
1.501657458563536,-0.11167183345457976
1.5350276243093923,-0.08446441061487509
1.5683977900552488,-0.06194819827465878
1.601767955801105,-0.0536345660377126
1.6351381215469614,-0.06519934052529888
1.6685082872928179,-0.09696610141265626
1.7018784530386741,-0.14322250059992372
1.7352486187845306,-0.1927164380686573
1.768618784530387,-0.23070143766627943
1.8019889502762432,-0.24254871254458557
1.8353591160220997,-0.2182155014249221
1.868729281767956,-0.15609988274916245
1.9020994475138122,-0.06456288632807007
1.9354696132596687,0.03996501394287906
1.968839779005525,0.13797853033347243
2.0022099447513813,0.2131756460329996
2.0355801104972375,0.25743425061864306
2.0689502762430942,0.27238394348353606
2.1023204419889505,0.26703312633620746
2.135690607734807,0.25276498547494547
2.169060773480663,0.238185640286133
2.2024309392265193,0.22619510253204536
2.235801104972376,0.21435790896713888
2.2691712707182323,0.19789410592996817
2.3025414364640886,0.17332406148507945
2.335911602209945,0.1406365830345883
2.369281767955801,0.10285696143976072
2.402651933701658,0.06349582091519362
2.436022099447514,0.023666142184004407
2.4693922651933704,-0.01908285649806918
2.5027624309392267,-0.06914636186832837
2.536132596685083,-0.1291222099261469
2.5695027624309392,-0.19613677265607593
2.602872928176796,-0.26081796930512197
2.636243093922652,-0.3103596947917431
2.6696132596685085,-0.33489048192171933
2.7029834254143648,-0.33413192739112624
2.736353591160221,-0.3203803529009874
2.7697237569060777,-0.3149686012592949
2.803093922651934,-0.33838720898543295
2.8364640883977903,-0.3978989278497329
2.8698342541436466,-0.4788499337516514
2.903204419889503,-0.5453166997095695
2.936574585635359,-0.5518732560842067
2.969944751381216,-0.4625973777547265
3.003314917127072,-0.268842770143912
3.0366850828729284,0.0033428868717384997
3.0700552486187846,0.3009225239294404
3.103425414364641,0.563928017356243
3.1367955801104976,0.7484207469152414
3.170165745856354,0.8410641973339634
3.20353591160221,0.8583841435535557
3.2369060773480665,0.832031929532815
3.2702762430939227,0.7887840454473358
3.3036464088397794,0.7364096276696415
3.3370165745856357,0.6627135900202034
3.370386740331492,0.5473871154723265
3.4037569060773483,0.37918509790544247
3.4371270718232045,0.1682913567595235
3.4704972375690613,-0.0532280097590085
3.5038674033149175,-0.24320467980976151
3.537237569060774,-0.36710797268224504
3.57060773480663,-0.4126237461241186
3.6039779005524863,-0.39406163110568926
3.6373480662983426,-0.34504515809690517
3.6707182320441993,-0.30359087694094244
3.7040883977900556,-0.29672839849517507
3.737458563535912,-0.331196929042727
3.770828729281768,-0.3933188768834551
3.8041988950276244,-0.456866279456563
3.837569060773481,-0.4946120329479592
3.8709392265193374,-0.48847097988711463
3.9043093922651937,-0.4346341575163143
3.93767955801105,-0.34280048399216867
3.9710497237569062,-0.23107532898078845
4.0044198895027625,-0.11931717085196762
4.037790055248619,-0.023497877472268135
4.071160220994475,0.047462628979784684
4.104530386740332,0.09215931530006245
4.1379005524861885,0.1150735006470014
4.171270718232044,0.12379812157961276
4.204640883977901,0.12606629503946248
4.238011049723757,0.12741293546736504
4.271381215469614,0.13011254636476405
4.30475138121547,0.13369588487331285
4.338121546961326,0.13678810388028392
4.371491712707183,0.13936378546301287
4.404861878453039,0.1441290945971779
4.438232044198895,0.15597868363831546
4.471602209944752,0.17940142468722065
4.504972375690608,0.2149344576523783
4.538342541436465,0.25659649410261665
4.5717127071823205,0.29208269814535237
4.605082872928177,0.30629528845684384
4.638453038674034,0.2870606352958976
4.67182320441989,0.23055748843854565
4.7051933701657465,0.14383692141922297
4.738563535911602,0.04304357673759804
4.771933701657459,-0.05201871608126482
4.805303867403316,-0.1245560638859095
4.8386740331491715,-0.16571038110606842
4.872044198895028,-0.1757328601306171
4.905414364640884,-0.16135286745325925
4.938784530386741,-0.13116914295424936
4.972154696132597,-0.09170254003333557
5.005524861878453,-0.04611388828141844
5.03889502762431,0.004092231867632895
5.072265193370166,0.05584493690299092
5.105635359116023,0.10215171026046406
5.1390055248618784,0.1325498989697479
5.172375690607735,0.13672526839483679
5.205745856353592,0.1097728962826105
5.239116022099448,0.05637405281506732
5.272486187845304,-0.008699519916770938
5.30585635359116,-0.06484899469423702
5.339226519337017,-0.09354679278355157
5.372596685082874,-0.08676269478992722
5.4059668508287295,-0.05203683939151846
5.439337016574586,-0.011258772206924292
5.472707182320442,0.007315416079512396
5.506077348066299,-0.01883289180911464
5.5394475138121555,-0.0953089672532398
5.572817679558011,-0.20606613201437565
5.606187845303868,-0.3185457688066168
5.639558011049724,-0.3980114859896726
5.672928176795581,-0.42571228797016497
5.706298342541437,-0.4123608186526002
5.739668508287293,-0.39868268950773306
5.77303867403315,-0.43926155260321664
5.806408839779006,-0.5735276804969943
5.839779005524862,-0.7955302305114418
5.873149171270718,-1.0380367771067436
5.906519337016575,-1.1832605161505225
5.939889502762432,-1.101858729777595
5.9732596685082875,-0.7076769388305136
6.006629834254144,-0.005037603010051387
6.04,0.8951074799499831
6.073370165745857,1.8019254807771865
6.1067403314917135,2.506454784103704
6.140110497237569,2.852959242065978
6.173480662983426,2.7889380395609047
6.206850828729282,2.372908187186659
6.240220994475139,1.739577228561092
6.273591160220995,1.041836592572923
6.306961325966851,0.39770253968968383
6.340331491712708,-0.13578415405022032
6.373701657458564,-0.555948212664245
6.40707182320442,-0.886174843552362
6.440441988950277,-1.1454562610302352
6.473812154696133,-1.3324210209625875
6.50718232044199,-1.4294125498919206
6.5405524861878455,-1.4200843068934925
6.573922651933702,-1.307430688910961
6.607292817679559,-1.1207994084973572
6.640662983425415,-0.9080803750671366
6.674033149171271,-0.7178811122771688
6.707403314917127,-0.581312316270948
6.740773480662984,-0.502111911027835
6.774143646408841,-0.45873222739041614
6.8075138121546965,-0.41610876193877244
6.840883977900553,-0.3411400572287201
6.874254143646409,-0.21554944612430707
6.907624309392266,-0.0419726060369355
6.9409944751381225,0.1578097895033668
6.974364640883978,0.35092850805535647
7.007734806629835,0.5045699300356645
7.041104972375691,0.5964368173579463
7.074475138121548,0.6211732897964392
7.107845303867403,0.5907406582983672
7.14121546961326,0.5287779601424556
7.174585635359117,0.4611892472064009
7.207955801104973,0.40672487442435523
7.241325966850829,0.3713738745592928
7.274696132596685,0.34872071576060076
7.308066298342542,0.32567840885181304
7.341436464088399,0.2905190105128392
7.3748066298342545,0.23919911398499902
7.408176795580111,0.17711492493756426
7.441546961325967,0.115943634295075
7.474917127071824,0.06769600940463158
7.5082872928176805,0.039206066438072645
7.541657458563536,0.029596728481042296
7.575027624309393,0.0314101803595429
7.608397790055249,0.034246444347783435
7.641767955801106,0.028866122299359122
7.675138121546962,0.01001623553257318
7.708508287292818,-0.02273456055750802
7.741878453038675,-0.0658457289229721
7.775248618784531,-0.1135281471517888
7.808618784530387,-0.159585303740217
7.841988950276244,-0.1989414840233164
7.8753591160221,-0.2286891869413434
7.908729281767957,-0.2485572157106422
7.9420994475138125,-0.26066930838507224
7.975469613259669,-0.268509982817527
8.008839779005525,-0.2752383669901428
8.042209944751383,-0.2818293771789816
8.075580110497238,-0.28578414439182115
8.108950276243094,-0.2811346925875808
8.14232044198895,-0.2600828134383424
8.175690607734808,-0.21595693848531836
8.209060773480664,-0.1465049743270999
8.24243093922652,-0.0561856179648613
8.275801104972377,0.043693040431727365
8.309171270718233,0.13739776428366954
8.342541436464089,0.20912754381237683
8.375911602209946,0.24778747939568255
8.409281767955802,0.2503768434993706
8.442651933701658,0.222697907966595
8.476022099447514,0.17718203365922613
8.509392265193371,0.12876422041908211
8.542762430939227,0.0903686097851154
8.576132596685083,0.06947042663439865
8.60950276243094,0.06658015013243436
8.642872928176796,0.07578520553110235
8.676243093922652,0.08700168012996803
8.709613259668508,0.08934938789480244
8.742983425414366,0.07488387499791001
8.776353591160222,0.04168934102883967
8.809723756906077,-0.004794907278357146
8.843093922651935,-0.053060114149315586
8.87646408839779,-0.08940479675481805
8.909834254143647,-0.10317364855035331
8.943204419889504,-0.09121523057091088
8.97657458563536,-0.059448963928121795
9.009944751381216,-0.02060905335959182
9.043314917127072,0.010945718057248702
9.07668508287293,0.02497179574904656
9.110055248618785,0.01894788508551471
9.143425414364641,-0.002011613725396323
9.176795580110499,-0.028555206155339897
9.210165745856354,-0.051744562207517476
9.24353591160221,-0.06641611408968572
9.276906077348068,-0.07167411281799077
9.310276243093924,-0.06875061005692586
9.34364640883978,-0.05806733923134594
9.377016574585635,-0.037773466234985745
9.410386740331493,-0.005033653485824548
9.443756906077349,0.040534678358323216
9.477127071823205,0.09351959865199422
9.510497237569062,0.14208393985966805
9.543867403314918,0.17138883805704339
9.577237569060774,0.17006891817481665
9.610607734806631,0.13661938246948996
9.643977900552487,0.08196623037399513
9.677348066298343,0.026053415731425052
9.710718232044199,-0.010626085410579349
9.744088397790057,-0.016656085706824062
9.777458563535912,0.00448135155853665
9.810828729281768,0.03568633556274126
9.844198895027626,0.05429556869176344
9.877569060773482,0.04297884596690829
9.910939226519337,-0.0019899034859607407
9.944309392265193,-0.06914369296877847
9.97767955801105,-0.1374326116868719
10.011049723756907,-0.18588733076307498
10.044419889502763,-0.20239119020422588
10.07779005524862,-0.18750658745609905
10.111160220994476,-0.1521675141049961
10.144530386740332,-0.11118791926048917
10.17790055248619,-0.07630081228940941
10.211270718232045,-0.05212049009394787
10.244640883977901,-0.03645771692828916
10.278011049723757,-0.024017481890783822
10.311381215469615,-0.010915370829952286
10.34475138121547,0.002654063009377583
10.378121546961326,0.012981162183930249
10.411491712707184,0.016094901324670473
10.44486187845304,0.011585864297308937
10.478232044198895,0.004459273262956597
10.511602209944753,0.0034920256340694703
10.544972375690609,0.01656989534162672
10.578342541436465,0.045440145112443944
10.61171270718232,0.08307430675481682
10.645082872928178,0.11576378151309284
10.678453038674034,0.1295405956574876
10.71182320441989,0.11785579876379088
10.745193370165747,0.08626258053203543
10.778563535911603,0.05104161021758045
10.811933701657459,0.031815554567440264
10.845303867403315,0.04156727721450791
10.878674033149172,0.07917151892571601
10.912044198895028,0.12852369369713904
10.945414364640884,0.1650764924592216
10.978784530386742,0.1668124266892657
11.012154696132598,0.12439940435208055
11.045524861878453,0.045672524551233995
11.078895027624311,-0.04759894602759289
11.112265193370167,-0.12895321104268015
11.145635359116023,-0.17799381666124428
11.179005524861878,-0.18767256349833722
11.212375690607736,-0.16503358391166859
11.245745856353592,-0.12565586666205822
11.279116022099448,-0.08503455534958046
11.312486187845305,-0.051398856144653005
11.345856353591161,-0.023450639684999074
11.379226519337017,0.0061714490406727775
11.412596685082875,0.043863431305989846
11.44596685082873,0.08842909240045388
11.479337016574586,0.12862492789306856
11.512707182320442,0.14656415790879762
11.5460773480663,0.12568499299354305
11.579447513812156,0.05953513719866673
11.612817679558011,-0.04306035256018824
11.646187845303869,-0.15934761175265869
11.679558011049725,-0.26030182299216537
11.71292817679558,-0.32122978290392173
11.746298342541436,-0.3304133033839907
11.779668508287294,-0.2918601479596421
11.81303867403315,-0.2212487201003474
11.846408839779006,-0.13759363585531553
11.879779005524863,-0.055135056067288614
11.91314917127072,0.020580764835764376
11.946519337016575,0.09110659684962626
11.979889502762433,0.15982297043995888
12.013259668508288,0.22667761325492658
12.046629834254144,0.28616763774850545
12.08,0.32945036026425467
12.113370165745858,0.34877954226215874
12.146740331491714,0.3411444726761968
12.18011049723757,0.3088213073015749
12.213480662983427,0.2568700392370333
12.246850828729283,0.18977590692384333
12.280220994475139,0.10993588984975447
12.313591160220996,0.01921088953991797
12.346961325966852,-0.07762362229593477
12.380331491712708,-0.170298656146111
12.413701657458564,-0.2438066029269745
12.447071823204421,-0.2829206523730674
12.480441988950277,-0.2784746735239686
12.513812154696133,-0.2321033523290582
12.54718232044199,-0.15677307806236693
12.580552486187846,-0.07259772902220465
12.613922651933702,0.0001406268324633756
12.64729281767956,0.04751769556224816
12.680662983425416,0.06522270611761731
12.714033149171271,0.05755586166044118
12.747403314917127,0.03331646200957138
12.780773480662985,0.0010468040698621585
12.81414364640884,-0.03396970186933445
12.847513812154697,-0.06980394770739229
12.880883977900554,-0.10559454628247598
12.91425414364641,-0.13864635185434013
12.947624309392266,-0.16291857903725412
12.980994475138122,-0.17008691626558964
13.01436464088398,-0.15292867660088186
13.047734806629835,-0.10943632158153993
13.081104972375691,-0.0454685871015418
13.114475138121549,0.025773759802282598
13.147845303867404,0.0877659104798719
13.18121546961326,0.12678499411967914
13.214585635359118,0.13755861897647076
13.247955801104974,0.12579264003064045
13.28132596685083,0.10613701546689096
13.314696132596685,0.09611408731405072
13.348066298342543,0.10837904293122538
13.381436464088399,0.14456679005705714
13.414806629834255,0.19348968420477286
13.448176795580112,0.23475664287979206
13.481546961325968,0.24664556493999837
13.514917127071824,0.2151750591554633
13.548287292817681,0.1406063795749999
13.581657458563537,0.03847377365042381
13.615027624309393,-0.06554901879169397
13.648397790055249,-0.1449837569990206
13.681767955801106,-0.1822321736734336
13.715138121546962,-0.17456655149110217
13.748508287292818,-0.1340313698051904
13.781878453038676,-0.08158473539966439
13.815248618784532,-0.038311804823825506
13.848618784530387,-0.017650272259988935
13.881988950276245,-0.021803590130552636
13.9153591160221,-0.04332819570545012
13.948729281767957,-0.07040752911450902
13.982099447513813,-0.0928128001505538
14.01546961325967,-0.10568219948441543
14.048839779005526,-0.10978734765417388
14.082209944751382,-0.10891959046901012
14.11558011049724,-0.10632771290531207
14.148950276243095,-0.1022173254914153
14.182320441988951,-0.09339923180441087
14.215690607734807,-0.0749564699235036
14.249060773480664,-0.042949953646857254
14.28243093922652,0.0030480919946921452
14.315801104972376,0.0585638347855425
14.349171270718234,0.11450946162411421
14.38254143646409,0.1592067678417383
14.415911602209945,0.18170368493053993
14.449281767955803,0.17544523283710012
14.482651933701659,0.1410335692489834
14.516022099447515,0.08689037955829944
14.54939226519337,0.027239401249953193
14.582762430939228,-0.022184655194368647
14.616132596685084,-0.04930606644983918
14.64950276243094,-0.04982764666533076
14.682872928176797,-0.028598449334593653
14.716243093922653,0.0024746166922263355
14.749613259668509,0.029248740953157465
14.782983425414367,0.04092273886520086
14.816353591160222,0.03394519107679822
14.849723756906078,0.012537904536749706
14.883093922651934,-0.014237012655029755
14.916464088397792,-0.03716868914419504
14.949834254143648,-0.05076649035071266
14.983204419889503,-0.05432079161526872
15.016574585635361,-0.049960886704718925
15.049944751381217,-0.03942512555190353
15.083314917127073,-0.02205747313512641
15.116685082872928,0.004338251973129787
15.150055248618786,0.04020261541693867
15.183425414364642,0.08078415746671534
15.216795580110498,0.1152982781690364
15.250165745856355,0.13002232673032868
15.283535911602211,0.11425510085482866
15.316906077348067,0.06614050500230714
15.350276243093925,-0.004862333977548612
15.38364640883978,-0.0804224357298093
15.417016574585636,-0.1397104691773531
15.450386740331492,-0.166779433745013
15.48375690607735,-0.1557378771851578
15.517127071823205,-0.11185663880095975
15.550497237569061,-0.04881416139110969
15.583867403314919,0.016144682403862583
15.617237569060775,0.06700136368464839
15.65060773480663,0.09230847957522846
15.683977900552488,0.08679865135688167
15.717348066298344,0.051705346930394094
15.7507182320442,-0.005696266821325664
15.784088397790056,-0.07319476208625013
15.817458563535913,-0.13558581763860122
15.85082872928177,-0.17758416270895483
15.884198895027625,-0.18738985641205186
15.917569060773483,-0.1600407821864481
15.950939226519338,-0.09937379014050214
15.984309392265194,-0.017606241877101494
16.01767955801105,0.06772323771866558
16.051049723756908,0.13868396091971338
16.084419889502765,0.18210514718118284
16.11779005524862,0.19307235549951884
16.151160220994477,0.17552181099305886
16.18453038674033,0.13992532656934634
16.21790055248619,0.0992698645265361
16.251270718232046,0.06507665188911761
16.2846408839779,0.04483405405474001
16.318011049723758,0.04124911923879616
16.351381215469615,0.052802743775538306
16.38475138121547,0.07476281389764054
16.418121546961327,0.1001452720170414
16.451491712707185,0.12071172341496963
16.48486187845304,0.12839794841595453
16.518232044198896,0.1172965246966656
16.551602209944754,0.0856666949779199
16.584972375690608,0.036944386373016315
16.618342541436466,-0.02115390960939851
16.651712707182323,-0.07952277629882522
16.685082872928177,-0.1315190114355043
16.718453038674035,-0.17593545464083357
16.751823204419892,-0.21731776652782148
16.785193370165747,-0.26289981457539946
16.818563535911604,-0.3171121105737185
16.851933701657458,-0.37613882221751593
16.885303867403316,-0.4255166249898032
16.918674033149173,-0.4428244137427063
16.952044198895027,-0.4053492797530464
16.985414364640885,-0.3001383984735392
17.018784530386743,-0.13223608572172207
17.052154696132597,0.07294518067997191
17.085524861878454,0.27510259142623894
17.118895027624312,0.43109605219700203
17.152265193370166,0.5092449523612982
