Frequency (Hz),Amplitude
0.0,10.944066846649255
0.01978021978021978,10.94345192561641
0.03956043956043956,10.94160937586641
0.05934065934065934,10.93854583167195
0.07912087912087912,10.93427233089863
0.0989010989010989,10.928804286079568
0.11868131868131868,10.922161443836163
0.13846153846153844,10.91436783256412
0.15824175824175823,10.905451698283827
0.17802197802197803,10.895445428537077
0.1978021978021978,10.88438546419836
0.21758241758241756,10.87231219905872
0.23736263736263735,10.859269867034827
0.2571428571428572,10.84530641685552
0.2769230769230769,10.830473374083489
0.2967032967032967,10.814825690341927
0.31648351648351647,10.798421579635201
0.3362637362637363,10.781322341679601
0.35604395604395606,10.763592172195958
0.3758241758241758,10.745297960160585
0.3956043956043956,10.726509072064932
0.4153846153846154,10.70729712329914
0.4351648351648351,10.687735736848499
0.45494505494505494,10.667900289577252
0.4747252747252747,10.647867646469193
0.4945054945054945,10.627715883299985
0.5142857142857143,10.607523998331285
0.5340659340659341,10.587371613740746
0.5538461538461538,10.567338667633793
0.5736263736263736,10.547505097621608
0.5934065934065934,10.527950517092972
0.6131868131868132,10.508753885454038
0.6329670329670329,10.489993173756558
0.6527472527472528,10.471745027280246
0.6725274725274726,10.454084426774603
0.6923076923076923,10.437084350197608
0.7120879120879121,10.420815436909056
0.7318681318681318,10.4053456563828
0.7516483516483516,10.390739983589832
0.7714285714285715,10.377060083271358
0.7912087912087912,10.364364005363377
0.810989010989011,10.352705893850217
0.8307692307692308,10.342135711310574
0.8505494505494506,10.332698981374953
0.8703296703296702,10.324436551236428
0.8901098901098901,10.31738437624701
0.9098901098901099,10.311573328489796
0.9296703296703297,10.307029031044086
0.9494505494505494,10.303771719458073
0.9692307692307692,10.301816131715
0.989010989010989,10.301171427726818
1.0087912087912088,10.301841139118876
1.0285714285714287,10.303823149784657
1.0483516483516484,10.307109707395997
1.0681318681318681,10.311687465757611
1.087912087912088,10.317537557599849
1.1076923076923075,10.324635697116339
1.1274725274725275,10.332952311278989
1.1472527472527472,10.342452698705937
1.1670329670329669,10.353097214623157
1.1868131868131868,10.364841480251597
1.2065934065934065,10.377636614770903
1.2263736263736265,10.391429487861215
1.2461538461538462,10.4061629907069
1.2659340659340659,10.42177632326098
1.2857142857142858,10.438205295516545
1.3054945054945055,10.45538264051023
1.3252747252747252,10.473238336791386
1.3450549450549452,10.491699938126784
1.3648351648351649,10.510692908271757
1.3846153846153846,10.530140958721878
1.4043956043956045,10.549966387460866
1.4241758241758242,10.570090416837795
1.443956043956044,10.590433528835879
1.4637362637362636,10.610915796133181
1.4835164835164834,10.631457207499087
1.5032967032967033,10.651977986217002
1.523076923076923,10.672398900369771
1.542857142857143,10.692641563968627
1.5626373626373626,10.712628728045864
1.5824175824175823,10.732284560964887
1.6021978021978023,10.751534917327248
1.621978021978022,10.770307594973302
1.6417582417582417,10.788532579680904
1.6615384615384616,10.806142277264115
1.6813186813186813,10.82307173286129
1.7010989010989013,10.839258837278688
1.720879120879121,10.854644520322488
1.7406593406593405,10.869172931108476
1.7604395604395604,10.882791605385611
1.7802197802197801,10.895451619947352
1.7999999999999998,10.90710773423361
1.8197802197802198,10.917718519247332
1.8395604395604395,10.927246473923375
1.8593406593406594,10.935658129094092
1.879120879120879,10.942924139197576
1.8989010989010988,10.949019361869372
1.9186813186813187,10.95392292555019
1.9384615384615385,10.957618285228577
1.9582417582417584,10.960093266421278
1.978021978021978,10.961340097474842
1.9978021978021978,10.96135543025064
2.0175824175824175,10.9601403492325
2.0373626373626372,10.957700369072327
2.0571428571428574,10.954045420564771
2.076923076923077,10.949189825017687
2.096703296703297,10.943152256961795
2.1164835164835165,10.935955695120796
2.1362637362637362,10.927627361542713
2.1560439560439564,10.918198648775627
2.175824175824176,10.9077050349561
2.195604395604396,10.896185986667486
2.215384615384615,10.883684849418978
2.2351648351648348,10.87024872559415
2.254945054945055,10.855928339722203
2.2747252747252746,10.840777890935465
2.2945054945054943,10.824854892494095
2.314285714285714,10.808219998284455
2.3340659340659338,10.790936816230955
2.353846153846154,10.773071708604059
2.3736263736263736,10.75469357925893
2.3934065934065933,10.735873647901514
2.413186813186813,10.716685211550743
2.4329670329670328,10.697203393448762
2.452747252747253,10.677504879763577
2.4725274725274726,10.657667644532607
2.4923076923076923,10.637770663408363
2.512087912087912,10.617893616890166
2.5318681318681318,10.598116583856374
2.5516483516483515,10.57851972634903
2.5714285714285716,10.559182966705901
2.5912087912087913,10.54018565828106
2.610989010989011,10.521606251142646
2.6307692307692307,10.503521954282748
2.6505494505494505,10.486008396016064
2.6703296703296706,10.469139284378937
2.6901098901098903,10.452986069464508
2.70989010989011,10.437617609740197
2.7296703296703297,10.423099844486876
2.7494505494505495,10.40949547457204
2.769230769230769,10.396863653818116
2.7890109890109893,10.3852596932501
2.808791208791209,10.374734780500155
2.8285714285714287,10.365335716610153
2.8483516483516484,10.35710467240372
2.8681318681318677,10.350078966497842
2.887912087912088,10.344290866889278
2.9076923076923076,10.339767417885371
2.9274725274725273,10.33653029395246
2.947252747252747,10.33459568183235
2.9670329670329667,10.333974192029759
2.986813186813187,10.33467080050683
3.0065934065934066,10.336684821138466
3.0263736263736263,10.340009909189659
3.046153846153846,10.344634095778822
3.0659340659340657,10.350539852994496
3.085714285714286,10.357704189042437
3.1054945054945056,10.366098772521553
3.1252747252747253,10.375690084664683
3.145054945054945,10.386439598139258
3.1648351648351647,10.39830398078638
3.184615384615385,10.411235322488666
3.2043956043956046,10.425181383199147
3.2241758241758243,10.440085860037643
3.243956043956044,10.4558886712676
3.2637362637362637,10.472526254905556
3.2835164835164834,10.489931879686587
3.3032967032967036,10.508035966110237
3.3230769230769233,10.526766415321019
3.342857142857143,10.546048943632757
3.3626373626373627,10.565807420583983
3.3824175824175824,10.585964208509257
3.4021978021978025,10.606440501724839
3.4219780219780223,10.627156663554148
3.441758241758242,10.64803255955445
3.4615384615384617,10.668987885449194
3.481318681318681,10.689942488416222
3.501098901098901,10.710816680529001
3.520879120879121,10.731531543292997
3.5406593406593405,10.752009222360195
3.5604395604395602,10.772173211640116
3.58021978021978,10.791948626153635
3.5999999999999996,10.811262463095511
3.61978021978022,10.830043850681582
3.6395604395604395,10.848224284457011
3.659340659340659,10.865737850831968
3.679120879120879,10.88252143769046
3.6989010989010986,10.898514931987535
3.718681318681319,10.913661404308863
3.7384615384615385,10.92790728041612
3.758241758241758,10.94120249984143
3.7780219780219784,10.953500661625352
3.7978021978021976,10.964759157315859
3.8175824175824173,10.97493929136095
3.8373626373626375,10.98400638903661
3.8571428571428568,10.991929892053557
3.876923076923077,10.998683441983593
3.896703296703296,11.004244951638
3.916483516483517,11.008596664518507
3.936263736263736,11.0117252024454
3.956043956043956,11.013621601448866
3.9758241758241755,11.014281335988546
3.9956043956043956,11.013704331543703
4.015384615384615,11.011894965592491
4.035164835164835,11.008862056974536
4.054945054945055,11.004618843606465
4.0747252747252745,10.99918294849649
4.094505494505494,10.992576333981239
4.114285714285715,10.984825244087201
4.134065934065934,10.975960134900705
4.153846153846154,10.96601559281447
4.173626373626373,10.955030240506865
4.193406593406594,10.94304663050217
4.213186813186813,10.930111126157124
4.232967032967033,10.916273769921752
4.252747252747253,10.90158813873124
4.2725274725274724,10.886111186401564
4.292307692307692,10.869903072924924
4.312087912087913,10.853026980592768
4.331868131868132,10.83554891691487
4.351648351648352,10.817537504352737
4.371428571428571,10.799063756945701
4.391208791208792,10.780200843978227
4.410989010989011,10.76102384091741
4.43076923076923,10.741609467941121
4.450549450549451,10.722035816478563
4.4703296703296695,10.702382064296803
4.49010989010989,10.68272817978796
4.50989010989011,10.663154616240988
4.52967032967033,10.643741997019534
4.549450549450549,10.624570792709292
4.569230769230769,10.605720991445859
4.589010989010989,10.5872717637819
4.608791208791209,10.569301123600773
4.628571428571428,10.551885586727774
4.648351648351649,10.535099829028484
4.6681318681318675,10.519016345911417
4.687912087912088,10.50370511526779
4.707692307692308,10.489233265979628
4.7274725274725276,10.475664754206473
4.747252747252747,10.463060049716882
4.767032967032967,10.45147583456091
4.786813186813187,10.440964716381236
4.806593406593407,10.431574958631598
4.826373626373626,10.423350229910193
4.846153846153847,10.416329374521467
4.8659340659340655,10.41054620625332
4.885714285714286,10.406029327197198
4.905494505494506,10.402801973249455
4.9252747252747255,10.400881887714203
4.945054945054945,10.400281224185257
4.964835164835165,10.401006479620841
4.984615384615385,10.403058458244208
5.004395604395604,10.406432266611231
5.024175824175824,10.411117339887712
5.043956043956045,10.417097499080201
5.0637362637362635,10.424351038669835
5.083516483516483,10.43285084381505
5.103296703296703,10.442564536020553
5.123076923076923,10.453454645921292
5.142857142857143,10.465478811606246
5.162637362637362,10.478590000709508
5.182417582417583,10.492736754329627
5.2021978021978015,10.507863450702763
5.221978021978022,10.523910586453013
5.241758241758242,10.540815073173588
5.2615384615384615,10.55851054705526
5.281318681318681,10.576927689272104
5.301098901098901,10.595994554856848
5.320879120879121,10.615636907847517
5.340659340659341,10.635778560559219
5.36043956043956,10.656341714928718
5.380219780219781,10.677247303989125
5.3999999999999995,10.698415331656875
5.41978021978022,10.71976520914748
5.43956043956044,10.741216086478634
5.4593406593406595,10.76268717766525
5.479120879120879,10.784098078358596
5.498901098901099,10.805369074827839
5.518681318681319,10.82642144332518
5.538461538461538,10.847177739013198
5.558241758241758,10.867562073763587
5.578021978021979,10.887500382258832
5.5978021978021975,10.906920675941416
5.617582417582418,10.925753284458569
5.637362637362637,10.943931084343532
5.6571428571428575,10.961389714756985
5.676923076923077,10.978067780184318
5.696703296703297,10.993907040046402
5.716483516483517,11.008852585233296
5.736263736263735,11.02285300161305
5.756043956043956,11.035860520600831
5.775824175824176,11.047831156899138
5.795604395604395,11.058724833536731
5.815384615384615,11.068505494344539
5.835164835164835,11.077141204010433
5.854945054945055,11.084604235853016
5.874725274725275,11.090871147447436
5.894505494505494,11.095922844225301
5.914285714285715,11.099744631155284
5.934065934065933,11.10232625259327
5.953846153846154,11.10366192036996
5.973626373626374,11.103750330161592
5.993406593406593,11.102594666165428
6.013186813186813,11.100202594077194
6.032967032967033,11.096586242343074
6.052747252747253,11.091762171634494
6.072527472527473,11.085751332470744
6.092307692307692,11.07857901089284
6.112087912087913,11.070274762072598
6.131868131868131,11.060872331724214
6.151648351648352,11.050409565172416
6.171428571428572,11.038928303922253
6.191208791208791,11.026474269571061
6.210989010989011,11.013096934904347
6.230769230769231,10.99884938202454
6.2505494505494505,10.983788147375543
6.270329670329671,10.967973053547595
6.29010989010989,10.951467027776765
6.309890109890111,10.9343359070919
6.329670329670329,10.916648230109772
6.349450549450549,10.898475015537171
6.36923076923077,10.879889527506553
6.3890109890109885,10.860967027950917
6.408791208791209,10.841784516312599
6.428571428571428,10.822420456980817
6.4483516483516485,10.802954494963055
6.468131868131868,10.783467160415231
6.487912087912088,10.76403956278464
6.507692307692308,10.744753075456215
6.527472527472527,10.72568901193593
6.547252747252747,10.706928294752428
6.567032967032967,10.688551118408396
6.5868131868131865,10.670636607863099
6.606593406593407,10.653262474174971
6.626373626373626,10.636504669074956
6.6461538461538465,10.620437040374005
6.665934065934065,10.605130990228881
6.685714285714286,10.590655138395034
6.705494505494506,10.577074992681537
6.725274725274725,10.564452628885983
6.745054945054945,10.552846382525555
6.764835164835165,10.54231055469022
6.7846153846153845,10.532895134323317
6.804395604395605,10.524645539182359
6.824175824175824,10.51760237764703
6.8439560439560445,10.511801233422416
6.863736263736263,10.507272475033574
6.883516483516484,10.504041091824398
6.903296703296704,10.502126557960976
6.923076923076923,10.501542725701224
6.942857142857143,10.502297748930946
6.962637362637362,10.50439403768752
6.9824175824175825,10.507828244099668
7.002197802197802,10.512591279871769
7.021978021978022,10.518668365138508
7.041758241758242,10.526039108216636
7.061538461538461,10.534677615490683
7.081318681318681,10.544552630393058
7.101098901098901,10.555627700182669
7.1208791208791204,10.567861368991943
7.140659340659341,10.581207395405796
7.16043956043956,10.595614992658733
7.1802197802197805,10.611029089391028
7.199999999999999,10.627390608792272
7.21978021978022,10.644636763881326
7.23956043956044,10.662701366625233
7.259340659340659,10.681515148584586
7.279120879120879,10.701006090787974
7.298901098901099,10.721099760580204
7.318681318681318,10.741719653256421
7.338461538461539,10.762787536382522
7.358241758241758,10.78422379480966
7.3780219780219785,10.80594777451197
7.397802197802197,10.827878123510496
7.417582417582418,10.849933128287342
7.437362637362638,10.872031044241004
7.457142857142857,10.894090418882108
7.476923076923077,10.916030406617216
7.496703296703297,10.937771074113291
7.516483516483516,10.959233695375861
7.536263736263736,10.980341035807678
7.556043956043957,11.001017624640133
7.575824175824176,11.021190015246784
7.595604395604395,11.040787032954908
7.615384615384615,11.059740010067939
7.635164835164835,11.077983007897595
7.654945054945055,11.095453025680154
7.674725274725275,11.112090196316506
7.694505494505494,11.127837968930505
7.7142857142857135,11.142643278285588
7.734065934065935,11.156456701135662
7.753846153846154,11.169232599613581
7.7736263736263735,11.18092925178023
7.793406593406592,11.191508969469105
7.813186813186814,11.20093820356694
7.832967032967034,11.209187636870276
7.852747252747252,11.216232264652158
7.872527472527472,11.222051463062686
7.892307692307693,11.226629045472846
7.912087912087912,11.229953306853323
7.931868131868132,11.232017056259643
7.951648351648351,11.232817637472577
7.971428571428572,11.232356937818842
7.991208791208791,11.230641385172257
8.010989010989011,11.227681933110416
8.03076923076923,11.223494034177154
8.05054945054945,11.218097601176897
8.07032967032967,11.211516956404632
8.09010989010989,11.203780768694468
8.10989010989011,11.194921978152124
8.129670329670331,11.184977708421938
8.149450549450549,11.173989166328326
8.169230769230769,11.162001528725934
8.189010989010988,11.14906381639162
8.20879120879121,11.135228754797078
8.22857142857143,11.120552621612788
8.248351648351647,11.105095080813722
8.268131868131867,11.088919003284445
8.287912087912087,11.07209027385826
8.307692307692308,11.054677584770298
8.327472527472528,11.036752215560535
8.347252747252746,11.01838779952874
8.367032967032966,10.99966007692015
8.386813186813187,10.98064663510834
8.406593406593407,10.9614266361403
8.426373626373627,10.942080532117828
8.446153846153845,10.922689769008615
8.465934065934066,10.903336479609118
8.485714285714286,10.88410316651816
8.505494505494505,10.865072376124441
8.525274725274725,10.846326364760065
8.545054945054945,10.82794675832491
8.564835164835165,10.810014206839899
8.584615384615384,10.792608035538597
8.604395604395604,10.775805894253441
8.624175824175826,10.75968340699131
8.643956043956043,10.744313823720526
8.663736263736263,10.729767676503538
8.683516483516483,10.716112442203656
8.703296703296704,10.703412214066033
8.723076923076924,10.691727384520568
8.742857142857142,10.681114341573323
8.762637362637362,10.67162518114231
8.782417582417583,10.66330743764989
8.802197802197803,10.656203835107672
8.821978021978023,10.65035206081889
8.84175824175824,10.64578456367896
8.86153846153846,10.642528378878035
8.881318681318682,10.640604980602033
8.901098901098901,10.640030164093327
8.920879120879121,10.640813958173256
8.940659340659339,10.642960569049222
8.96043956043956,10.646468355935554
8.98021978021978,10.651329838713304
9.0,10.657531737546927
9.01978021978022,10.665055044069653
9.03956043956044,10.67387512345135
9.05934065934066,10.683961846376752
9.079120879120879,10.695279749694953
9.098901098901099,10.70778822425534
9.11868131868132,10.721441728227092
9.138461538461538,10.736190024009515
9.158241758241758,10.751978436683386
9.178021978021977,10.76874813182869
9.197802197802199,10.786436410443946
9.217582417582419,10.804977018644824
9.237362637362637,10.824300469795695
9.257142857142856,10.844334376733887
9.276923076923078,10.865003791781676
9.296703296703297,10.886231552302187
9.316483516483517,10.907938629639117
9.336263736263735,10.930044479384147
9.356043956043957,10.95246739103529
9.375824175824176,10.975124835241918
9.395604395604396,10.997933806973935
9.415384615384616,11.020811163100108
9.435164835164835,11.043673953011238
9.454945054945055,11.066439741074602
9.474725274725275,11.089026919854701
9.494505494505495,11.111355013179427
9.514285714285714,11.133344968268405
9.534065934065934,11.154919436270633
9.553846153846154,11.176003040679518
9.573626373626373,11.196522633204975
9.593406593406593,11.216407536783214
9.613186813186815,11.235589775495479
9.632967032967032,11.254004291246655
9.652747252747252,11.271589147123558
9.672527472527472,11.288285717411714
9.692307692307693,11.304038864297699
9.712087912087913,11.318797101323566
9.731868131868131,11.332512743689902
9.75164835164835,11.345142045525861
9.771428571428572,11.356645324258821
9.791208791208792,11.3669870722236
9.810989010989012,11.376136055651878
9.83076923076923,11.38406540117814
9.850549450549451,11.390752669988608
9.87032967032967,11.396179919726233
9.89010989010989,11.400333754247297
9.90989010989011,11.403205361304845
9.92967032967033,11.404790538211946
9.94945054945055,11.405089705513229
9.96923076923077,11.404107908667852
9.989010989010989,11.401854807721447
10.008791208791209,11.398344654918386
10.028571428571428,11.393596260180965
10.048351648351648,11.38763294435803
10.068131868131868,11.380482480123705
10.08791208791209,11.372177020387264
10.107692307692307,11.362753014059086
10.127472527472527,11.352251109004808
10.147252747252747,11.340716042011973
10.167032967032966,11.328196515590589
10.186813186813188,11.314745061431974
10.206593406593406,11.300417890360166
10.226373626373626,11.285274728627101
10.246153846153845,11.269378640428165
10.265934065934067,11.252795836548401
10.285714285714286,11.235595469093546
10.305494505494504,11.217849412313058
10.325274725274724,11.199632029586589
10.345054945054946,11.181019926720204
10.364835164835165,11.162091691784644
10.384615384615385,11.14292762182532
10.404395604395603,11.12360943688185
10.424175824175824,11.104219981874277
10.443956043956044,11.084842917041847
10.463736263736264,11.065562397758475
10.483516483516484,11.046462744694814
10.503296703296703,11.027628105448857
10.523076923076923,11.009142108923145
10.542857142857143,10.99108751388457
10.562637362637362,10.973545853300017
10.582417582417584,10.956597076194367
10.602197802197802,10.940319188923773
10.621978021978022,10.924787897892813
