Time (s),Filtered Signal
0.0,-0.008947376494650664
0.033370165745856356,-0.0386283813863241
0.06674033149171271,-0.05663354990461473
0.10011049723756907,-0.05106419797958504
0.13348066298342542,-0.01188910362710796
0.16685082872928178,0.06504136291190478
0.20022099447513814,0.17383305270546542
0.2335911602209945,0.29713972857237214
0.26696132596685085,0.4093642005593638
0.30033149171270723,0.4839050299698085
0.33370165745856356,0.5016162836730005
0.3670718232044199,0.4569075571160691
0.4004419889502763,0.3590651229497869
0.43381215469613266,0.2286517142345788
0.467182320441989,0.09092723967158406
0.5005524861878453,-0.03090637346287205
0.5339226519337017,-0.12041624639382847
0.5672928176795581,-0.16983220616928973
0.6006629834254145,-0.17972078850068102
0.6340331491712707,-0.1576060542620667
0.6674033149171271,-0.11634123351362714
0.7007734806629835,-0.07222393467495504
0.7341436464088398,-0.04232920871506606
0.7675138121546962,-0.04079802618014886
0.8008839779005525,-0.07474110496845707
0.8342541436464089,-0.14131355527932354
0.8676243093922653,-0.22760151490504826
0.9009944751381216,-0.3139476093387639
0.934364640883978,-0.37970930519362234
0.9677348066298344,-0.40917177888146283
1.0011049723756906,-0.39524297753699483
1.0344751381215471,-0.33973390637717776
1.0678453038674034,-0.25076788958120305
1.1012154696132597,-0.13913834639149802
1.1345856353591162,-0.015553351207363382
1.1679558011049724,0.1102766407652281
1.201325966850829,0.22912021923166256
1.2346961325966852,0.33156756566073015
1.2680662983425415,0.40843264826369274
1.301436464088398,0.4525150921725814
1.3348066298342542,0.460964531121429
1.3681767955801105,0.43694063754408335
1.401546961325967,0.3894957941124902
1.4349171270718233,0.3314137944510924
1.4682872928176796,0.27563923798153933
1.501657458563536,0.2314963184591101
1.5350276243093923,0.20193040079418287
1.5683977900552488,0.18258609040752508
1.601767955801105,0.16292154573530696
1.6351381215469614,0.12904992565438544
1.6685082872928179,0.0677522064377279
1.7018784530386741,-0.02898244084259239
1.7352486187845306,-0.15973074246365837
1.768618784530387,-0.31098943294558445
1.8019889502762432,-0.45771071358393683
1.8353591160220997,-0.5682443321184217
1.868729281767956,-0.6134258543781065
1.9020994475138122,-0.5773259351085052
1.9354696132596687,-0.46538298650218374
1.968839779005525,-0.3056268628158873
2.0022099447513813,-0.1410542480920509
2.0355801104972375,-0.015166369436446276
2.0689502762430942,0.04370318028248785
2.1023204419889505,0.0324334367330179
2.135690607734807,-0.027145045350155786
2.169060773480663,-0.09882466389879209
2.2024309392265193,-0.14803699691909958
2.235801104972376,-0.1558771891673836
2.2691712707182323,-0.12481831843994895
2.3025414364640886,-0.0740362003460377
2.335911602209945,-0.027431132105872162
2.369281767955801,-0.0008436807584401578
2.402651933701658,0.00511014171715107
2.436022099447514,0.0035363231193604543
2.4693922651933704,0.012763214297032342
2.5027624309392267,0.04596912709731871
2.536132596685083,0.10450025191768321
2.5695027624309392,0.17790027134484432
2.602872928176796,0.24981385748221932
2.636243093922652,0.30597161862694605
2.6696132596685085,0.3399117368079243
2.7029834254143648,0.35395959248476444
2.736353591160221,0.35594001964654326
2.7697237569060777,0.35433187136498834
2.803093922651934,0.3548836165191152
2.8364640883977903,0.3601382261837782
2.8698342541436466,0.3710485767821623
2.903204419889503,0.38843178109544885
2.936574585635359,0.4123315643766937
2.969944751381216,0.4391905429133275
3.003314917127072,0.4588442195693829
3.0366850828729284,0.4542704959300956
3.0700552486187846,0.40597440174357563
3.103425414364641,0.3002673598436742
3.1367955801104976,0.13793706044072143
3.170165745856354,-0.06145349017293788
3.20353591160221,-0.2631987696975371
3.2369060773480665,-0.4291970273850333
3.2702762430939227,-0.5338523382904365
3.3036464088397794,-0.5772258140554768
3.3370165745856357,-0.5884156640847399
3.370386740331492,-0.6154433125485056
3.4037569060773483,-0.7037139285773156
3.4371270718232045,-0.8711186680665159
3.4704972375690613,-1.0911656777776881
3.5038674033149175,-1.293941720566388
3.537237569060774,-1.3879511764686
3.57060773480663,-1.2963031386055086
3.6039779005524863,-0.9926825485291718
3.6373480662983426,-0.520484341272802
3.6707182320441993,0.01558565551441542
3.7040883977900556,0.48428124433026243
3.737458563535912,0.775538270525948
3.770828729281768,0.84127598883643
3.8041988950276244,0.7121334160298058
3.837569060773481,0.4835354324251723
3.8709392265193374,0.277594331715584
3.9043093922651937,0.1969160816973014
3.93767955801105,0.28849996149295715
3.9710497237569062,0.5304544493340612
4.0044198895027625,0.8443297555309681
4.037790055248619,1.1260417166345524
4.071160220994475,1.2824836573283231
4.104530386740332,1.2606544829494255
4.1379005524861885,1.0606218045095286
4.171270718232044,0.7303541847034116
4.204640883977901,0.3466033630109868
4.238011049723757,-0.010279357556420284
4.271381215469614,-0.27903159923548104
4.30475138121547,-0.43107304830741233
4.338121546961326,-0.472100228715595
4.371491712707183,-0.43302397387600994
4.404861878453039,-0.3550180575988385
4.438232044198895,-0.27485488313072715
4.471602209944752,-0.2156069120033042
4.504972375690608,-0.1847970187893319
4.538342541436465,-0.1786717559550895
4.5717127071823205,-0.18904519520878615
4.605082872928177,-0.20897119052421445
4.638453038674034,-0.23506279779616027
4.67182320441989,-0.2664654986003342
4.7051933701657465,-0.3021032236228668
4.738563535911602,-0.33824424035552736
4.771933701657459,-0.3678248916490798
4.805303867403316,-0.3818931277690127
4.8386740331491715,-0.37253465155037074
4.872044198895028,-0.33602577587885524
4.905414364640884,-0.2748334792015978
4.938784530386741,-0.19747949993903763
4.972154696132597,-0.11611546868032792
5.005524861878453,-0.04264139689400226
5.03889502762431,0.01509611118861591
5.072265193370166,0.05544991405585536
5.105635359116023,0.08259137867562014
5.1390055248618784,0.10386583299078336
5.172375690607735,0.12615090644048363
5.205745856353592,0.15285043510203036
5.239116022099448,0.18272215729626937
5.272486187845304,0.2107741715600535
5.30585635359116,0.23051340838502796
5.339226519337017,0.2363706492126609
5.372596685082874,0.2253143623956024
5.4059668508287295,0.1972829777647116
5.439337016574586,0.15470556325367144
5.472707182320442,0.10170464651919098
5.506077348066299,0.04348012014684283
5.5394475138121555,-0.013996246102787397
5.572817679558011,-0.06422027896433327
5.606187845303868,-0.1007140728322459
5.639558011049724,-0.11810812095701848
5.672928176795581,-0.1135542774932692
5.706298342541437,-0.08791554600687077
5.739668508287293,-0.04610907978453838
5.77303867403315,0.0037152129229939056
5.806408839779006,0.05196961779404591
5.839779005524862,0.08981487510136829
5.873149171270718,0.11109940593781008
5.906519337016575,0.1136399414229802
5.939889502762432,0.0996970801108906
5.9732596685082875,0.07561707073555775
6.006629834254144,0.05061788356025568
6.04,0.034766912969346815
6.073370165745857,0.036425064571986604
6.1067403314917135,0.05972937759290064
6.140110497237569,0.10286690539777502
6.173480662983426,0.15781698998390803
6.206850828729282,0.21188184386895678
6.240220994475139,0.25076558575808855
6.273591160220995,0.262371666948236
6.306961325966851,0.24011436536378405
6.340331491712708,0.18460822267837992
6.373701657458564,0.1031592421956044
6.40707182320442,0.007317843864759357
6.440441988950277,-0.09052190508344343
6.473812154696133,-0.18021672001577366
6.50718232044199,-0.25567144024286054
6.5405524861878455,-0.31498202104054773
6.573922651933702,-0.35923208808244916
6.607292817679559,-0.3906581444671061
6.640662983425415,-0.4109440010232913
6.674033149171271,-0.4201801850647296
6.707403314917127,-0.41670420704250744
6.740773480662984,-0.39775186013985786
6.774143646408841,-0.360636275436195
6.8075138121546965,-0.3040306519052667
6.840883977900553,-0.22889511885585254
6.874254143646409,-0.13871719746556121
6.907624309392266,-0.03902915359096147
6.9409944751381225,0.06350110134297768
6.974364640883978,0.1619373949849913
7.007734806629835,0.2495533860802791
7.041104972375691,0.3199298447232137
7.074475138121548,0.3670492546376834
7.107845303867403,0.38589836347896983
7.14121546961326,0.37385041524399876
7.174585635359117,0.3325506505415291
7.207955801104973,0.26942943808472763
7.241325966850829,0.1976842866218956
7.274696132596685,0.13390290923947226
7.308066298342542,0.09346339905035006
7.341436464088399,0.0850783417750711
7.3748066298342545,0.10670965978167758
7.408176795580111,0.144981021488805
7.441546961325967,0.1789829384047628
7.474917127071824,0.1874438783673833
7.5082872928176805,0.15654794052203086
7.541657458563536,0.08515462287521595
7.575027624309393,-0.01478172883002126
7.608397790055249,-0.12263967171840662
7.641767955801106,-0.2162981451847071
7.675138121546962,-0.27891753134389585
7.708508287292818,-0.3027896748065141
7.741878453038675,-0.2894275314468453
7.775248618784531,-0.24686255041834604
7.808618784530387,-0.18604678628336624
7.841988950276244,-0.11800892182007601
7.8753591160221,-0.05239692816162669
7.908729281767957,0.002981665571096364
7.9420994475138125,0.042426256645344856
7.975469613259669,0.06290815613628527
8.008839779005525,0.06475431745760117
8.042209944751383,0.051798964587036915
8.075580110497238,0.03044287707251752
8.108950276243094,0.007655064352196752
8.14232044198895,-0.011351766613799216
8.175690607734808,-0.024705743914739776
8.209060773480664,-0.03391574752267248
8.24243093922652,-0.042302067593337336
8.275801104972377,-0.0525852480389244
8.309171270718233,-0.0648840683231434
8.342541436464089,-0.07623387260401676
8.375911602209946,-0.08199698093661104
8.409281767955802,-0.0785240165924575
8.442651933701658,-0.06564443055037673
8.476022099447514,-0.04747549784746821
8.509392265193371,-0.030798129633708787
8.542762430939227,-0.02155635771750449
8.576132596685083,-0.02122350087151567
8.60950276243094,-0.02512689734854497
8.642872928176796,-0.023999750010702474
8.676243093922652,-0.008344622184397457
8.709613259668508,0.026478918159950786
8.742983425414366,0.07720158077749027
8.776353591160222,0.1335366678684555
8.809723756906077,0.18288096434497958
8.843093922651935,0.21651144482196522
8.87646408839779,0.23391016356972366
8.909834254143647,0.24262551167488672
8.943204419889504,0.2533888169519194
8.97657458563536,0.27285055275751885
9.009944751381216,0.29781654661805496
9.043314917127072,0.31434901486996275
9.07668508287293,0.3027336915790679
9.110055248618785,0.2462964391618117
9.143425414364641,0.13995659269912417
9.176795580110499,-0.005646533983921248
9.210165745856354,-0.16655817485763585
9.24353591160221,-0.3134293628880113
9.276906077348068,-0.42138088672496354
9.310276243093924,-0.4775311403972973
9.34364640883978,-0.48331052772581307
9.377016574585635,-0.4513005003094018
9.410386740331493,-0.398721035577107
9.443756906077349,-0.3407222266652116
9.477127071823205,-0.28607607805249413
9.510497237569062,-0.23631859363016305
9.543867403314918,-0.18779704931735997
9.577237569060774,-0.13513471509832348
9.610607734806631,-0.07452187393750549
9.643977900552487,-0.005735470341581665
9.677348066298343,0.06750851640150779
9.710718232044199,0.13865112054936862
9.744088397790057,0.20022178756540301
9.777458563535912,0.24585091689907823
9.810828729281768,0.2717166710529682
9.844198895027626,0.2770888807284581
9.877569060773482,0.26402412737763054
9.910939226519337,0.2365611215166135
9.944309392265193,0.19982213762163298
9.97767955801105,0.15924433040191732
10.011049723756907,0.1199094251134278
10.044419889502763,0.0858325754335766
10.07779005524862,0.05920981821319665
10.111160220994476,0.03988854759369473
10.144530386740332,0.025463484841158446
10.17790055248619,0.012230824280936643
10.211270718232045,-0.0031973785966372104
10.244640883977901,-0.022250378203881174
10.278011049723757,-0.04350114520999079
10.311381215469615,-0.06300708341470357
10.34475138121547,-0.07580616353427301
10.378121546961326,-0.0779220485477278
10.411491712707184,-0.06798198210366337
10.44486187845304,-0.04774096284082432
10.478232044198895,-0.021329910263898477
10.511602209944753,0.00636453967203575
10.544972375690609,0.03141519888299822
10.578342541436465,0.05191091301442715
10.61171270718232,0.06796027247985979
10.645082872928178,0.08073864639176817
10.678453038674034,0.09106717812809537
10.71182320441989,0.09817888670759926
10.745193370165747,0.09925778022648346
10.778563535911603,0.0900772542066312
10.811933701657459,0.06666793441140488
10.845303867403315,0.02749324106884965
10.878674033149172,-0.024749911014857993
10.912044198895028,-0.08266078606362248
10.945414364640884,-0.13558813415941615
10.978784530386742,-0.1728389854150062
11.012154696132598,-0.18759748100202317
11.045524861878453,-0.17995365884039394
11.078895027624311,-0.15757090105990154
11.112265193370167,-0.13337899816279117
11.145635359116023,-0.12092697183352086
11.179005524861878,-0.12909608933444738
11.212375690607736,-0.15825420652714575
11.245745856353592,-0.19944373034192156
11.279116022099448,-0.23704940230204208
11.312486187845305,-0.2540690941578716
11.345856353591161,-0.2381251083568799
11.379226519337017,-0.1860530898237485
11.412596685082875,-0.10538138980705272
11.44596685082873,-0.01209933792955176
11.479337016574586,0.07456405421579217
11.512707182320442,0.13854515384789626
11.5460773480663,0.17229725897441506
11.579447513812156,0.17924057104257224
11.612817679558011,0.17249908707300884
11.646187845303869,0.17036192270115874
11.679558011049725,0.18989879131934814
11.71292817679558,0.24062250036358732
11.746298342541436,0.32002885154996874
11.779668508287294,0.4124200927713771
11.81303867403315,0.49175732802673217
11.846408839779006,0.5283771849613741
11.879779005524863,0.49821390976805696
11.91314917127072,0.3918954944802226
11.946519337016575,0.22032449809104873
11.979889502762433,0.013861879728097487
12.013259668508288,-0.18566887392324183
12.046629834254144,-0.33787166922971357
12.08,-0.41673426569535704
12.113370165745858,-0.41835492479159797
12.146740331491714,-0.3602730634154711
12.18011049723757,-0.2729876483960119
12.213480662983427,-0.18767031294294714
12.246850828729283,-0.12544642210123677
12.280220994475139,-0.09239056833289516
12.313591160220996,-0.08139431393777943
12.346961325966852,-0.07891313820863498
12.380331491712708,-0.07276518226899166
12.413701657458564,-0.057315636055241315
12.447071823204421,-0.03421166468242042
12.480441988950277,-0.009270951669646713
12.513812154696133,0.012063925291561691
12.54718232044199,0.02793188992855871
12.580552486187846,0.04027703655530119
12.613922651933702,0.052356476479470365
12.64729281767956,0.065408487803765
12.680662983425416,0.07677864173279669
12.714033149171271,0.08082359762540911
12.747403314917127,0.07213058453870276
12.780773480662985,0.04908533520755777
12.81414364640884,0.015523036972964054
12.847513812154697,-0.020689976751037915
12.880883977900554,-0.05143864884343003
12.91425414364641,-0.07233495815549805
12.947624309392266,-0.08454393802792855
12.980994475138122,-0.0933494543619107
13.01436464088398,-0.10425062244371577
13.047734806629835,-0.1188316159456071
13.081104972375691,-0.13282813001777297
13.114475138121549,-0.13765383755310553
13.147845303867404,-0.12480794630207709
13.18121546961326,-0.09102235248199898
13.214585635359118,-0.04148366826210085
13.247955801104974,0.010775799596783077
13.28132596685083,0.049507025572391165
13.314696132596685,0.06214362876818859
13.348066298342543,0.045932536291040965
13.381436464088399,0.010278013614045789
13.414806629834255,-0.02624628929589784
13.448176795580112,-0.04336531516382737
13.481546961325968,-0.02793115492925835
13.514917127071824,0.019998557454197017
13.548287292817681,0.08699352619590049
13.581657458563537,0.1525072244277151
13.615027624309393,0.19887805241100043
13.648397790055249,0.22024768551581783
13.681767955801106,0.2256851048208346
13.715138121546962,0.2343570399841516
13.748508287292818,0.26450280335904985
13.781878453038676,0.3213847756919504
13.815248618784532,0.390505477233768
13.848618784530387,0.4403935782360234
13.881988950276245,0.4348305831213554
13.9153591160221,0.34951727800517324
13.948729281767957,0.18535945158787162
13.982099447513813,-0.028482999583503837
14.01546961325967,-0.24400845125091136
14.048839779005526,-0.4123547965891552
14.082209944751382,-0.5020876255430076
14.11558011049724,-0.50937625208875
14.148950276243095,-0.45584003082833696
14.182320441988951,-0.37606438664589176
14.215690607734807,-0.30159441917752644
14.249060773480664,-0.24916562410989093
14.28243093922652,-0.21789250810136146
14.315801104972376,-0.19513571955662823
14.349171270718234,-0.1666246495302006
14.38254143646409,-0.12510186699053275
14.415911602209945,-0.07348958092895408
14.449281767955803,-0.021985381889593734
14.482651933701659,0.018390353597448842
14.516022099447515,0.04191289854704825
14.54939226519337,0.05080370906326314
14.582762430939228,0.05343970665803434
14.616132596685084,0.05948978419182825
14.64950276243094,0.07474213684191006
14.682872928176797,0.09828381295210817
14.716243093922653,0.12329316578463946
14.749613259668509,0.14079777735304355
14.782983425414367,0.14430963003024805
14.816353591160222,0.13295288341688663
14.849723756906078,0.11160936449548682
14.883093922651934,0.08818462428417298
14.916464088397792,0.06952721115806156
14.949834254143648,0.05814059475302837
14.983204419889503,0.05136475755310793
15.016574585635361,0.043420189387730554
15.049944751381217,0.029214891535603686
15.083314917127073,0.007839706762362833
15.116685082872928,-0.01626302851659663
15.150055248618786,-0.03533262739118309
15.183425414364642,-0.04268311534098898
15.216795580110498,-0.03717880345960628
15.250165745856355,-0.02516939703585115
15.283535911602211,-0.01832566116693028
15.316906077348067,-0.027880359399998625
15.350276243093925,-0.05783379648181931
15.38364640883978,-0.10061229783516296
15.417016574585636,-0.13785766594614937
15.450386740331492,-0.14674258521311087
15.48375690607735,-0.10950762651446515
15.517127071823205,-0.02212937026225998
15.550497237569061,0.10190762920311548
15.583867403314919,0.23478289576796768
15.617237569060775,0.34346871177609783
15.65060773480663,0.4011372007894599
15.683977900552488,0.3961030276852064
15.717348066298344,0.33465933199185216
15.7507182320442,0.23693583887314598
15.784088397790056,0.1280292023149656
15.817458563535913,0.02861349379535441
15.85082872928177,-0.050897214494003626
15.884198895027625,-0.11063855523475691
15.917569060773483,-0.15690461935829808
15.950939226519338,-0.19608232499372252
15.984309392265194,-0.2303019308246693
16.01767955801105,-0.2567899603192863
16.051049723756908,-0.27063325865716215
16.084419889502765,-0.26881378393127875
16.11779005524862,-0.25291034679662017
16.151160220994477,-0.22890254577969252
16.18453038674033,-0.2043300810769007
16.21790055248619,-0.1845643467905204
16.251270718232046,-0.17032068419446178
16.2846408839779,-0.15767533139305395
16.318011049723758,-0.14036102806830406
16.351381215469615,-0.11291440552905505
16.38475138121547,-0.07299863751319421
16.418121546961327,-0.02195942190606314
16.451491712707185,0.036178931698835785
16.48486187845304,0.09627660670889639
16.518232044198896,0.1532113286005305
16.551602209944754,0.2022624174515238
16.584972375690608,0.23916308634336264
16.618342541436466,0.2604631476145317
16.651712707182323,0.2644230622748349
16.685082872928177,0.2519753966595055
16.718453038674035,0.226923847235139
16.751823204419892,0.19483702120277493
16.785193370165747,0.1608835274000538
16.818563535911604,0.12763588450303623
16.851933701657458,0.09412007186171491
16.885303867403316,0.05688429547376946
16.918674033149173,0.012805954764970012
16.952044198895027,-0.03771725098969682
16.985414364640885,-0.0890212662016113
17.018784530386743,-0.13120492829127345
17.052154696132597,-0.15391457358805002
17.085524861878454,-0.1513053130137471
17.118895027624312,-0.12570151959295695
17.152265193370166,-0.08784599726188647
17.185635359116024,-0.05319901170111918
