Frequency (Hz),Amplitude
0.0,2.5208488910897398
0.020066889632107024,2.520288244274852
0.04013377926421405,2.5186078128103557
0.060200668896321065,2.5158121246452736
0.0802675585284281,2.511908729708443
0.10033444816053512,2.506908204877683
0.12040133779264213,2.5008241608306956
0.14046822742474915,2.4936732506662285
0.1605351170568562,2.4854751801432933
0.1806020066889632,2.4762527193395054
0.20066889632107024,2.466031715474359
0.22073578595317725,2.454841106578273
0.24080267558528426,2.4427129356113566
0.2608695652173913,2.4296823645453824
0.2809364548494983,2.415787687816268
0.3010033444816054,2.4010703444304684
0.3210702341137124,2.3855749278649965
0.34113712374581934,2.3693491927358727
0.3612040133779264,2.3524440570212377
0.3812709030100334,2.3349135984130087
0.4013377926421405,2.316815043133391
0.42140468227424743,2.2982087452909807
0.4414715719063545,2.279158154566815
0.4615384615384615,2.259729769717656
0.4816053511705685,2.2399930750670647
0.5016722408026756,2.2200204568342268
0.5217391304347826,2.1998870958364676
0.5418060200668896,2.179670832811646
0.5618729096989966,2.1594520023601156
0.5819397993311036,2.1393132313296603
0.6020066889632107,2.119339197389377
0.6220735785953176,2.099616343596984
0.6421404682274248,2.0802325449952344
0.6622073578595318,2.061276723719736
0.6822742474916387,2.0428384098015617
0.7023411371237458,2.0250072458409027
0.7224080267558528,2.007872435039644
0.7424749163879598,1.9915221337246178
0.7625418060200668,1.9760427914627405
0.7826086956521738,1.9615184441298246
0.802675585284281,1.9480299677822208
0.8227424749163879,1.93565430379401
0.8428093645484949,1.9244636683269245
0.862876254180602,1.9145247616299392
0.882943143812709,1.905897994731944
0.903010033444816,1.898636752599107
0.923076923076923,1.892786713593327
0.9431438127090299,1.8883852449379044
0.963210702341137,1.8854608927720988
0.983277591973244,1.8840329832320333
1.0033444816053512,1.8841113478883666
1.0234113712374582,1.8856961829455974
1.0434782608695652,1.88877804708553
1.0635451505016722,1.8933379979998313
1.0836120401337792,1.899347862816763
1.1036789297658862,1.9067706330989134
1.1237458193979932,1.9155609711534107
1.1438127090301002,1.9256658112769058
1.1638795986622072,1.937025037398976
1.1839464882943145,1.9495722174483137
1.2040133779264215,1.9632353746207183
1.2240802675585283,1.9779377764788066
1.2441471571906353,1.9935987243091593
1.2642140468227423,2.010134327218921
1.2842809364548495,2.027458247875533
1.3043478260869565,2.045482409392321
1.3244147157190636,2.0641176554727374
1.3444816053511706,2.0832743584119737
1.3645484949832773,2.10286297181579
1.3846153846153846,2.122794526867149
1.4046822742474916,2.1429810726178933
1.4247491638795986,2.1633360620974798
1.4448160535117056,2.1837746870272783
1.4648829431438126,2.204214164633711
1.4849498327759196,2.224573980503676
1.5050167224080266,2.2447760916607233
1.5250836120401337,2.264745094101675
1.5451505016722407,2.2844083589593245
1.5652173913043477,2.303696141282682
1.5852842809364547,2.3225416651822943
1.605351170568562,2.340881188799881
1.625418060200669,2.358654052249451
1.6454849498327757,2.3758027113574105
1.6655518394648827,2.3922727597136526
1.6856187290969897,2.408012941243236
1.705685618729097,2.4229751552245826
1.725752508361204,2.437114455419012
1.745819397993311,2.450389044739202
1.765886287625418,2.4627602666719923
1.7859531772575248,2.4741925944827536
1.806020066889632,2.484653619063529
1.826086956521739,2.494114036143668
1.846153846153846,2.5025476334577768
1.866220735785953,2.509931278359671
1.8862876254180598,2.5162449062804506
1.9063545150501673,2.5214715103521415
1.926421404682274,2.5255971324530084
1.9464882943143813,2.528610855875821
1.966555183946488,2.530504799773113
1.9866220735785953,2.531274115493228
2.0066889632107023,2.530916984885454
2.026755852842809,2.5294346206206146
2.0468227424749164,2.5268312685436873
2.0668896321070234,2.523114212045816
2.0869565217391304,2.5182937784132537
2.1070234113712374,2.5123833470786603
2.1270903010033444,2.50539935966491
2.1471571906354514,2.497361331670621
2.1672240802675584,2.4882918655998036
2.1872909698996654,2.478216665282284
2.2073578595317724,2.4671645510662676
2.2274247491638794,2.455167475486993
2.2474916387959865,2.4422605389241245
2.267558528428094,2.4284820046537026
2.2876254180602005,2.4138733125752383
2.3076923076923075,2.3984790907497207
2.3277591973244145,2.3823471637175433
2.3478260869565215,2.365528556374953
2.367892976588629,2.3480774919727336
2.3879598662207355,2.3300513825606073
2.408026755852843,2.311510809935659
2.4280936454849495,2.292519494865104
2.4481605351170566,2.273144252046013
2.468227424749164,2.2534549279431113
2.4882943143812706,2.2335243183191937
2.508361204013378,2.2134280619531363
2.5284280936454846,2.193244506743805
2.548494983277592,2.1730545441454194
2.568561872909699,2.152941407696486
2.5886287625418056,2.1329904313213355
2.608695652173913,2.1132887631357438
2.6287625418060196,2.0939250307157353
2.648829431438127,2.0749889542329845
2.668896321070234,2.0565709045622524
2.688963210702341,2.0387614044635725
2.709030100334448,2.021650572262272
2.7290969899665547,2.005327509108099
2.749163879598662,1.9898796328836903
2.769230769230769,1.9753919641192188
2.789297658862876,1.9619463717891192
2.809364548494983,1.9496207895171291
2.82943143812709,1.9384884153613438
2.849498327759197,1.9286169108231708
2.869565217391304,1.9200676168327644
2.8896321070234112,1.9128948060096949
2.9096989966555182,1.9071449912937197
2.9297658862876252,1.9028563109307288
2.9498327759197323,1.9000580086824292
2.9698996655518393,1.8987700259764948
2.9899665551839463,1.899002719583993
3.0100334448160533,1.9007567144470887
3.0301003344481603,1.9040228967067447
3.0501672240802673,1.9087825470818587
3.0702341137123748,1.9150076098457047
3.0903010033444813,1.9226610880508188
3.1103678929765888,1.9316975516561312
3.1304347826086953,1.942063742036928
3.1505016722408024,1.9536992541571434
3.1705685618729094,1.9665372765148228
3.1906354515050164,1.980505368810656
3.210702341137124,1.9955262580379542
3.2307692307692304,2.011518635197207
3.250836120401338,2.0283979369129366
3.270903010033445,2.0460770986770895
3.2909698996655514,2.064467269071067
3.311036789297659,2.0834784769592
3.3311036789297654,2.1030202461622607
3.351170568561873,2.123002154408959
3.3712374581939795,2.143334335359151
3.391304347826087,2.1639279241603933
3.411371237458194,2.184695448331938
3.4314381270903005,2.205551166780137
3.451505016722408,2.226411360464296
3.471571906354515,2.247194578688957
3.491638795986622,2.26782184523782
3.511705685618729,2.288216828627897
3.531772575250836,2.3083059806885697
3.551839464882943,2.328018647495308
3.5719063545150496,2.347287156441714
3.591973244147157,2.366046882943024
3.612040133779264,2.3842362999491584
3.632107023411371,2.401797013122722
3.652173913043478,2.4186737842189663
3.672240802675585,2.4348145448992926
3.692307692307692,2.450170402923591
3.712374581939799,2.4646956424029374
3.732441471571906,2.4783477195547734
3.752508361204013,2.491087255188437
3.7725752508361197,2.5028780249589033
3.7926421404682276,2.5136869482601036
3.8127090301003346,2.523484076484225
3.832775919732441,2.5322425812485716
3.852842809364548,2.539938743084256
3.872909698996655,2.5465519409898376
3.8929765886287626,2.552064643175514
3.9130434782608696,2.5564623992578435
3.933110367892976,2.5597338341094904
3.953177257525083,2.5618706435211003
3.9732441471571907,2.5628675917918535
3.9933110367892977,2.5627225113295116
4.013377926421405,2.561436304308722
4.033444816053511,2.559012946406421
4.053511705685618,2.555459492603716
4.073578595317726,2.550786085013791
4.093645484949833,2.5450059626629726
4.113712374581939,2.538135473116515
4.133779264214047,2.53019408579957
4.153846153846153,2.521204406816265
4.173913043478261,2.511192195013678
4.193979933110368,2.5001863789713727
4.214046822742475,2.488219074518468
4.234113712374581,2.4753256022880943
4.254180602006689,2.4615445047100306
4.274247491638796,2.446917561715487
4.294314381270903,2.4314898042804107
4.314381270903009,2.4153095247639222
4.334448160535117,2.398428282804362
4.354515050167224,2.380900905316136
4.374581939799331,2.3627854788849856
4.394648829431437,2.344143332588225
4.414715719063545,2.325039008971242
4.434782608695651,2.305540220595926
4.454849498327759,2.285717789246161
4.474916387959866,2.265645564539086
4.494983277591973,2.245400318360287
4.5150501672240795,2.225061611233347
4.535117056856188,2.2047116264696167
4.555183946488294,2.184434967749418
4.575250836120401,2.164318415692285
4.595317725752508,2.1444506390176183
4.615384615384615,2.124921856118872
4.635451505016722,2.105823443316882
4.655518394648829,2.0872474867635775
4.6755852842809364,2.0692862759751427
4.695652173913043,2.0520317383131785
4.71571906354515,2.0355748154193716
4.735785953177258,2.020004784637501
4.7558528428093645,2.005408530794149
4.775919732441471,1.9918697762895536
4.795986622073578,1.9794682801711965
4.816053511705686,1.9682790195850304
4.8361204013377925,1.9583713695513285
4.856187290969899,1.9498082991979622
4.8762541806020065,1.942645604198956
4.896321070234113,1.9369311960162088
4.916387959866221,1.9327044684655106
4.936454849498328,1.9299957610185101
4.956521739130435,1.9288259360779303
4.976588628762541,1.9292060842803624
4.996655518394649,1.9311373678356205
5.016722408026756,1.9346110072323728
5.036789297658863,1.9396084116184693
5.056856187290969,1.946101448127255
5.076923076923077,1.9540528406958828
5.096989966555184,1.9634166848040893
5.117056856187291,1.974139061286519
5.137123745819398,1.9861587300925632
5.157190635451505,1.9994078836481874
5.177257525083611,2.013812939290591
5.197324414715719,2.0292953509984692
5.217391304347826,2.045772422171547
5.237458193979933,2.06315810333157
5.257525083612039,2.081363761119639
5.277591973244148,2.100298907655814
5.297658862876254,2.1198718820326503
5.317725752508361,2.1399904782932917
5.337792642140468,2.1605625165920723
5.357859531772575,2.181496356282168
5.377926421404682,2.20270135138555
5.397993311036789,2.2240882502670467
5.418060200668896,2.24556954237001
5.438127090301003,2.2670597556048095
5.458193979933109,2.288475708449859
5.478260869565218,2.3097367210706845
5.498327759197324,2.3307647898277413
5.518394648829431,2.3514847294683934
5.538461538461538,2.3718242871196047
5.558528428093646,2.3917142319463007
5.578595317725752,2.411088424043094
5.598662207357859,2.4298838658049964
5.618729096989966,2.448040738692742
5.638795986622073,2.4655024279828046
5.65886287625418,2.482215537780075
5.678929765886288,2.498129898278594
5.698996655518394,2.5131985669861914
5.719063545150501,2.5273778253845083
5.739130434782608,2.54062717227696
5.759197324414716,2.5529093148833564
5.7792642140468224,2.5641901585699087
5.799331103678929,2.5744387959556465
5.8193979933110365,2.583627496008739
5.839464882943144,2.591731693637181
5.8595317725752505,2.598729980185148
5.879598662207358,2.6046040951677156
5.8996655518394645,2.6093389195096544
5.919732441471571,2.6129224704978697
5.9397993311036785,2.615345898608777
5.959866220735786,2.6166034863309373
5.9799331103678925,2.6166926490670397
5.999999999999999,2.61561393816704
6.020066889632107,2.6133710461137905
6.040133779264214,2.609970813853208
6.060200668896321,2.6054232402304502
6.080267558528428,2.5997414934612424
6.100334448160535,2.5929419245312424
6.120401337792642,2.5850440823749445
6.1404682274247495,2.576070730637252
6.160535117056856,2.5660478657639842
6.180602006688963,2.5550047361000465
6.200668896321069,2.5429738615942172
6.2207357859531776,2.529991053615066
6.240802675585284,2.5160954342713624
6.260869565217391,2.5013294545003557
6.280936454849498,2.4857389100362344
6.301003344481605,2.469372954196648
6.321070234113712,2.452284106225847
6.341137123745819,2.434528253707168
6.361204013377926,2.4161646473045324
6.381270903010033,2.3972558858126387
6.40133779264214,2.3778678891900915
6.421404682274248,2.3580698569224285
6.441471571906354,2.337934208718368
6.461538461538461,2.3175365041917657
6.481605351170568,2.296955337835535
6.501672240802676,2.2762722052695183
6.521739130434782,2.2555713364629324
6.54180602006689,2.23493949142053
6.561872909698996,2.2144657137129764
6.581939799331103,2.19424103726266
6.60200668896321,2.174358142009276
6.622073578595318,2.1549109545191
6.642140468227424,2.135994190312609
6.662207357859531,2.1177028357082417
6.682274247491639,2.1001315683473356
6.702341137123746,2.083374117294141
6.722408026755852,2.067522565691624
6.742474916387959,2.0526666013655057
6.762541806020066,2.038892723440235
6.782608695652174,2.026283415856184
6.80267558528428,2.0149163015147695
6.822742474916388,2.0048632934496005
6.842809364548494,1.996189761723566
6.862876254180601,1.9889537364710934
6.882943143812709,1.9832051684371068
6.903010033444816,1.97898526833885
6.9230769230769225,1.9763259452795066
6.94314381270903,1.9752493622362384
6.963210702341137,1.9757676233839918
6.983277591973244,1.9778826038488957
7.0033444816053505,1.9815859276462757
7.023411371237458,1.9868590943507234
7.0434782608695645,1.9936737498082469
7.063545150501672,2.0019920912759774
7.083612040133779,2.011767393072652
7.103678929765886,2.022944635390437
7.123745819397993,2.035461216518669
7.143812709030099,2.049247727431328
7.1638795986622075,2.064228767470184
7.183946488294314,2.0803237806121633
7.204013377926421,2.097447893379692
7.224080267558528,2.1155127376389213
7.2441471571906355,2.1344272441200296
7.264214046822742,2.1540983952826473
7.2842809364548495,2.174431928956308
7.304347826086956,2.195332986863043
7.324414715719063,2.216706704566826
7.34448160535117,2.238458741520846
7.364548494983278,2.2604957516607285
7.384615384615384,2.282725796412039
7.404682274247491,2.3050587030564595
7.424749163879598,2.3274063721636145
7.444816053511706,2.3496830382823584
7.464882943143812,2.3718054883411903
7.48494983277592,2.393693242275112
7.505016722408026,2.4152687003190687
7.525083612040134,2.436457261222416
7.545150501672239,2.4571874153786757
7.565217391304348,2.4773908165567176
7.585284280936455,2.4970023355861795
7.605351170568561,2.5159600990081925
7.625418060200669,2.5342055153656924
7.645484949832775,2.551683291484558
7.665551839464882,2.568341440794389
7.685618729096991,2.5841312854589082
7.705685618729096,2.599007453833561
7.725752508361204,2.6129278745416844
7.74581939799331,2.625853768260477
7.765886287625418,2.6377496381326173
7.785953177257525,2.6485832595669034
7.806020066889631,2.658325670060051
7.826086956521739,2.666951159559211
7.846153846153847,2.674437261789132
7.866220735785952,2.68076474688688
7.88628762541806,2.685917615618349
7.906354515050166,2.6898830953932182
7.926421404682274,2.692651638245525
7.946488294314381,2.6942169209052342
7.966555183946488,2.6945758470492183
7.986622073578595,2.6937285517872223
8.006688963210701,2.691678408407503
8.02675585284281,2.68843203737708
8.046822742474916,2.683999317560621
8.066889632107022,2.67839339958915
8.08695652173913,2.6716307212730497
8.107023411371236,2.6637310249117565
8.127090301003344,2.654717376303192
8.147157190635452,2.6446161851980596
8.167224080267557,2.633457226875107
8.187290969899665,2.6212736644315817
8.207357859531772,2.608102071286256
8.227424749163879,2.5939824532781914
8.247491638795987,2.5789582696104536
8.267558528428093,2.5630764517319924
8.2876254180602,2.546387419070861
8.307692307692307,2.528945090325332
8.327759197324415,2.510806888785323
8.347826086956522,2.492033739893328
8.367892976588628,2.4726900589625767
8.387959866220736,2.4528437266510363
8.408026755852843,2.4325660494470966
8.42809364548495,2.4119317020620703
8.448160535117056,2.39101864825413
8.468227424749163,2.3699080362416596
8.488294314381271,2.348684064517276
8.508361204013378,2.3274338135697956
8.528428093645484,2.3062470387876464
8.548494983277592,2.2852159196873774
8.568561872909697,2.2644347606242943
8.588628762541806,2.2439996383425593
8.608695652173914,2.22400799215714
8.628762541806019,2.2045581532761456
8.648829431438127,2.185748810814453
8.668896321070234,2.167678413452282
8.68896321070234,2.150444507476414
8.709030100334449,2.134143014104577
8.729096989966555,2.118867451504805
8.749163879598662,2.104708109713456
8.769230769230768,2.0917511896223147
8.789297658862875,2.080077920197614
8.809364548494983,2.069763670928024
8.82943143812709,2.060877078959467
8.849498327759196,2.053479212238948
8.869565217391303,2.0476227910375577
8.889632107023411,2.0433514902732037
8.909698996655518,2.040699343978785
8.929765886287624,2.0396902710180758
8.949832775919733,2.040337737789474
8.96989966555184,2.042644569328492
8.989966555183946,2.0466029151670764
9.010033444816054,2.05219437084726
9.030100334448159,2.059390250475414
9.050167224080267,2.0681520005039435
9.070234113712376,2.0784317403683747
9.09030100334448,2.090172911954833
9.110367892976589,2.1033110173009857
9.130434782608695,2.1177744225204265
9.150501672240802,2.1334852056653792
9.17056856187291,2.1503600270002154
9.190635451505017,2.1683110017793816
9.210702341137123,2.187246557899327
9.23076923076923,2.2070722635012237
9.250836120401337,2.227691612524291
9.270903010033445,2.249006759156164
9.290969899665551,2.2709191949404635
9.311036789297658,2.293330364865413
9.331103678929765,2.3161422209953013
9.351170568561873,2.339257714077477
9.37123745819398,2.362581225053366
9.391304347826086,2.3860189395359392
9.411371237458194,2.4094791691195234
9.4314381270903,2.4328726239017016
9.451505016722408,2.4561126408670595
9.471571906354516,2.479115372855352
9.49163879598662,2.501799942756148
9.511705685618729,2.5240885673781706
9.531772575250837,2.5459066551689844
9.551839464882942,2.5671828816379403
9.57190635451505,2.5878492459860647
9.591973244147155,2.607841112088626
9.612040133779264,2.6270972366234067
9.632107023411372,2.6455597867995344
9.652173913043477,2.663174349825153
9.672240802675585,2.6798899359606065
9.692307692307692,2.695658976739824
9.712374581939798,2.7104373197061755
9.732441471571907,2.724184220799998
9.752508361204013,2.736862335351892
9.77257525083612,2.7484377084768368
9.792642140468226,2.758879765527264
9.812709030100335,2.7681613031460706
9.832775919732441,2.776258481360906
9.852842809364548,2.7831508170770216
9.872909698996656,2.7888211792545725
9.89297658862876,2.7932557859966103
9.91304347826087,2.7964442037229547
9.933110367892976,2.798379348561985
9.953177257525082,2.7990574900543783
9.97324414715719,2.798478257229161
9.993311036789297,2.7966446470810813
10.013377926421404,2.7935630354475647
10.033444816053512,2.7892431902525656
10.053511705685617,2.7836982870507145
10.073578595317725,2.7769449267681523
10.093645484949834,2.7690031554930856
10.113712374581938,2.7598964861190143
10.133779264214047,2.7496519215838915
10.153846153846153,2.738299979377578
10.17391304347826,2.725874716905764
10.193979933110368,2.7124137571983593
10.214046822742475,2.6979583143322743
10.234113712374581,2.682553217799537
10.254180602006688,2.6662469348897493
10.274247491638796,2.649091589968317
10.294314381270903,2.631142979316342
10.31438127090301,2.612460579953176
10.334448160535118,2.5931075505869616
10.354515050167223,2.5731507225318495
10.37458193979933,2.5526605780945237
10.394648829431437,2.531711213570415
10.414715719063544,2.510380283606789
10.434782608695652,2.4887489232952387
10.454849498327757,2.4669016439626477
10.474916387959865,2.4449261982546964
10.494983277591974,2.422913409772704
10.515050167224079,2.4009569622619984
10.535117056856187,2.3791531431928497
10.555183946488295,2.3576005365650463
10.5752508361204,2.3363996599508874
10.595317725752508,2.315652541218618
10.615384615384615,2.2954622311008372
10.635451505016722,2.2759322488369413
10.65551839464883,2.2571659595658256
10.675585284280936,2.2392658839968624
10.695652173913043,2.2223329431467675
10.71571906354515,2.2064656435659917
10.735785953177256,2.1917592114248423
10.755852842809364,2.178304686976148
10.775919732441471,2.1661879941044555
10.795986622073578,2.1554890027155715
10.816053511705684,2.146280604390747
10.836120401337793,2.1386278237834553
10.856187290969899,2.13258698944143
