Time (s),Filtered Signal
0.0,0.010810615533976449
0.033370535714285714,-0.1185208704836525
0.06674107142857143,-0.24497549002919108
0.10011160714285713,-0.3519670919544347
0.13348214285714285,-0.4053893784407447
0.16685267857142858,-0.3635468924870396
0.20022321428571427,-0.19695233938573697
0.23359375,0.09206217455910849
0.2669642857142857,0.4608154552560289
0.30033482142857143,0.834756449879398
0.33370535714285715,1.1306482424279605
0.36707589285714287,1.2849038684995033
0.40044642857142854,1.2749269668358372
0.43381696428571426,1.1245516302625267
0.4671875,0.8919402101904765
0.5005580357142857,0.6459052730939728
0.5339285714285714,0.44102295215104964
0.5672991071428571,0.3013950038784563
0.6006696428571429,0.21824148718335595
0.6340401785714286,0.1602245453122321
0.6674107142857143,0.09048015084006808
0.70078125,-0.017294119834206725
0.7341517857142857,-0.1695408348173436
0.7675223214285715,-0.3523866965602193
0.8008928571428571,-0.5383600534245361
0.8342633928571428,-0.6964955414293952
0.8676339285714285,-0.8019028282051164
0.9010044642857142,-0.8420969715521545
0.934375,-0.8190104312321628
0.9677455357142857,-0.7469633663997682
1.0011160714285714,-0.6477528990523033
1.0344866071428571,-0.5444759044565537
1.0678571428571428,-0.4557650097414443
1.1012276785714286,-0.3917958404459454
1.1345982142857143,-0.3527983152471715
1.16796875,-0.3301023303094883
1.2013392857142857,-0.3092232963305184
1.2347098214285714,-0.27423723285211477
1.2680803571428572,-0.2125778357935376
1.3014508928571429,-0.11922804064763477
1.3348214285714286,0.000895605576104574
1.3681919642857143,0.1334482477585315
1.4015625,0.25839608351274085
1.4349330357142858,0.3560467776742106
1.4683035714285715,0.4132197713557173
1.5016741071428572,0.42711577751397145
1.535044642857143,0.40545280891461766
1.5684151785714286,0.3632319492073071
1.6017857142857141,0.31795041223407405
1.6351562499999999,0.28527860425410007
1.6685267857142856,0.2761896046211455
1.7018973214285713,0.2952241455419276
1.735267857142857,0.33909470934111147
1.7686383928571427,0.39554544510770784
1.8020089285714285,0.44362296373573573
1.8353794642857142,0.45707198043090447
1.86875,0.41160725523437175
1.9021205357142856,0.2945364150336438
1.9354910714285714,0.11290400843620009
1.968861607142857,-0.10433828713158255
2.002232142857143,-0.3127117263517422
2.0356026785714287,-0.4658183098283007
2.0689732142857142,-0.5310100422071077
2.10234375,-0.5004555837967769
2.1357142857142857,-0.39282892078789083
2.169084821428571,-0.24516995552187007
2.202455357142857,-0.0988724945660961
2.2358258928571426,0.014048965882776947
2.2691964285714286,0.07916363607971666
2.302566964285714,0.10017400000809545
2.3359375,0.09313896813708149
2.3693080357142855,0.07782083199650355
2.4026785714285714,0.06982469199694114
2.436049107142857,0.0760142382632464
2.469419642857143,0.09400958740696515
2.5027901785714284,0.11509456690218231
2.5361607142857143,0.12889637709582552
2.56953125,0.1278598484589208
2.6029017857142858,0.10986393150841342
2.6362723214285713,0.07822834133041756
2.669642857142857,0.03950021762212025
2.7030133928571427,0.00029510186479058217
2.7363839285714286,-0.0353023247005479
2.769754464285714,-0.0667430289075722
2.803125,-0.09625175447449759
2.8364955357142856,-0.12692558695788125
2.8698660714285715,-0.16071371722993377
2.903236607142857,-0.19719274953491275
2.936607142857143,-0.23357681012435771
2.9699776785714285,-0.2658060282996607
3.0033482142857144,-0.2900938024729736
3.03671875,-0.3041633210386476
3.070089285714286,-0.3076221149107772
3.1034598214285714,-0.30140477533896765
3.1368303571428573,-0.2867110818103971
3.170200892857143,-0.2640997494182725
3.2035714285714283,-0.2332260346776143
3.2369419642857142,-0.19325192074600256
3.2703124999999997,-0.1435328242386366
3.3036830357142857,-0.08409588768101685
3.337053571428571,-0.015714675508162405
3.370424107142857,0.06020589296991231
3.4037946428571426,0.14154801458879282
3.4371651785714286,0.22504082778730555
3.470535714285714,0.30575221086565285
3.50390625,0.3771202515912695
3.5372767857142855,0.43203427698734037
3.5706473214285714,0.4649621411546317
3.604017857142857,0.4744472362291428
3.637388392857143,0.4648083591396043
3.6707589285714284,0.4458450477343458
3.7041294642857143,0.4299130138915874
3.7375,0.4268170232263407
3.7708705357142858,0.43823043009103
3.8042410714285713,0.4542045117520642
3.837611607142857,0.4541557857258585
3.8709821428571427,0.41321956525401143
3.9043526785714286,0.31238733994765505
3.937723214285714,0.14847006923415024
3.97109375,-0.060951191354513046
4.004464285714286,-0.28086469669164915
4.0378348214285715,-0.4700436304139965
4.0712053571428575,-0.5956538082476756
4.1045758928571425,-0.6446638439287553
4.1379464285714285,-0.626775343217222
4.171316964285714,-0.5677832313617194
4.2046875,-0.49705595133932884
4.238058035714285,-0.43552259753620604
4.271428571428571,-0.3897529150172936
4.304799107142857,-0.35404130633518094
4.338169642857142,-0.3180542809369177
4.371540178571428,-0.2749965035733338
4.404910714285714,-0.2256659185543727
4.43828125,-0.1766905552487204
4.471651785714285,-0.13479702912798724
4.505022321428571,-0.10109877746228713
4.538392857142857,-0.06905772166117406
4.571763392857143,-0.02740392873374456
4.605133928571428,0.033602195527158644
4.638504464285714,0.11600641132934451
4.671875,0.21144385296427837
4.705245535714286,0.3034242615851195
4.738616071428571,0.37368363916738306
4.771986607142857,0.4096846051573026
4.805357142857143,0.4097531601009398
4.838727678571429,0.3833731411370552
4.872098214285714,0.3463700198453322
4.90546875,0.3131383357188662
4.938839285714286,0.28959509929497884
4.972209821428572,0.27039101889582867
5.005580357142857,0.24201219124992737
5.038950892857143,0.19052887346532918
5.072321428571429,0.11025216187105207
5.105691964285715,0.008773910421803189
5.1390625,-0.0946247652499546
5.172433035714286,-0.17698455830851284
5.2058035714285715,-0.22249612810364058
5.2391741071428575,-0.23075321130276227
5.2725446428571425,-0.21790235930077664
5.3059151785714285,-0.20943084466891818
5.339285714285714,-0.2275178804731352
5.3726562499999995,-0.27890991710473584
5.406026785714285,-0.3495304128926245
5.439397321428571,-0.4091376710904353
5.472767857142857,-0.42450683482980056
5.506138392857142,-0.37513645878672414
5.539508928571428,-0.263699998314783
5.572879464285714,-0.11555354772234389
5.60625,0.03314060756550372
5.639620535714285,0.15315659693420533
5.672991071428571,0.23671773337321864
5.706361607142857,0.30063931263523996
5.739732142857143,0.375395246802973
5.773102678571428,0.48483989598459365
5.806473214285714,0.6269477782658427
5.83984375,0.7665235465024248
5.873214285714286,0.8455315822335551
5.906584821428571,0.8077814782797833
5.939955357142857,0.6267189965574168
5.973325892857143,0.3224920943353219
6.006696428571429,-0.040904989877469544
6.040066964285714,-0.37794242718091664
6.0734375,-0.6132861408268601
6.106808035714286,-0.7085605978739313
6.140178571428572,-0.6727096445561144
6.173549107142857,-0.5528111962448443
6.206919642857143,-0.4112230513522575
6.240290178571429,-0.30024745762191263
6.273660714285715,-0.2450794435095303
6.30703125,-0.240654802482137
6.340401785714286,-0.2611821226408856
6.3737723214285715,-0.27595979212557603
6.407142857142857,-0.2635990643743062
6.4405133928571425,-0.21904472503542544
6.4738839285714285,-0.1521181840478153
6.507254464285714,-0.08031717752921264
6.5406249999999995,-0.02044923570644078
6.573995535714285,0.017106997194657938
6.607366071428571,0.030154671396933293
6.640736607142857,0.023479696054005874
6.674107142857142,0.00670497814338931
6.707477678571428,-0.0075121026742143455
6.740848214285714,-0.005140934654176904
6.77421875,0.026614484264410217
6.807589285714285,0.09522389110040369
6.840959821428571,0.1983456466794092
6.874330357142857,0.32142693805789874
6.907700892857143,0.43972291550083703
6.941071428571428,0.5251331799630573
6.974441964285714,0.5555877698432657
7.0078125,0.5229943026966628
7.041183035714286,0.43612009165239984
7.074553571428571,0.3170707216090096
7.107924107142857,0.19295425183277695
7.141294642857143,0.08635039596738713
7.174665178571429,0.008449615539445614
7.208035714285714,-0.04269559889525601
7.24140625,-0.07861466357829831
7.274776785714286,-0.1134406861660033
7.308147321428572,-0.15656928289407493
7.341517857142857,-0.20798826785068922
7.374888392857143,-0.25816060122073886
7.408258928571429,-0.29245963900327293
7.441629464285715,-0.2982029074975655
7.475,-0.2711016774765871
7.508370535714286,-0.21807171935578704
7.5417410714285715,-0.15494511387550253
7.575111607142857,-0.1000548441429724
7.6084821428571425,-0.06673875153301134
7.6418526785714285,-0.05837182643353798
7.675223214285714,-0.06819753034678773
7.7085937499999995,-0.08369949526392763
7.741964285714285,-0.09296071066165892
7.775334821428571,-0.08966462019183857
7.808705357142857,-0.07444224578541915
7.842075892857142,-0.05243200299882648
7.875446428571428,-0.02891483391971513
7.908816964285714,-0.0056759634779201444
7.9421875,0.0199334941379585
7.975558035714285,0.052871402114586
8.008928571428571,0.09648300877728623
8.042299107142856,0.14893033136865483
8.075669642857143,0.2019287840889014
8.109040178571428,0.24265147763993902
8.142410714285715,0.2581758595489675
8.17578125,0.24062173649789223
8.209151785714285,0.19071020251609208
8.242522321428572,0.11807555780004146
8.275892857142857,0.038050038140237524
8.309263392857142,-0.03379890714643616
8.342633928571429,-0.08707920633670316
8.376004464285714,-0.11962378847331215
8.409375,-0.13688343185349258
8.442745535714286,-0.14796760134026593
8.47611607142857,-0.16014926045938682
8.509486607142858,-0.17442584427666782
8.542857142857143,-0.18439184285480503
8.576227678571428,-0.17927206424395797
8.609598214285715,-0.1499962314462063
8.64296875,-0.09551629216717955
8.676339285714285,-0.026048245508415675
8.709709821428572,0.038995087493835234
8.743080357142857,0.07823685911794245
8.776450892857143,0.07795562307768697
8.809821428571428,0.03972551449646757
8.843191964285714,-0.017900361840034833
8.8765625,-0.0652464450092644
8.909933035714285,-0.07306603092098313
8.94330357142857,-0.025071425615623203
8.976674107142857,0.07411561487815294
9.010044642857142,0.199384545128226
9.04341517857143,0.3140475789526133
9.076785714285714,0.38352205142679646
9.11015625,0.3879568263330685
9.143526785714286,0.32862972900525617
9.176897321428571,0.22592835739671932
9.210267857142856,0.11043941792114659
9.243638392857143,0.011304368799832343
9.277008928571428,-0.05346216575375133
9.310379464285715,-0.08139383499342402
9.34375,-0.08381773654853757
9.377120535714285,-0.07930598903095462
9.410491071428572,-0.08522495412159813
9.443861607142857,-0.11069027482118969
9.477232142857142,-0.1535232126222593
9.510602678571429,-0.2021506435890112
9.543973214285714,-0.24131255639789112
9.57734375,-0.25877770710251813
9.610714285714286,-0.2498805681043298
9.64408482142857,-0.21793114364095997
9.677455357142858,-0.17087171068683654
9.710825892857143,-0.11667491303718862
9.744196428571428,-0.06058231807748666
9.777566964285715,-0.00589638789833171
9.8109375,0.04256418128463774
9.844308035714285,0.07541447286665655
9.877678571428572,0.07936491057987358
9.911049107142857,0.04280746477477357
9.944419642857143,-0.035782125804488335
9.977790178571428,-0.141266205757696
10.011160714285714,-0.24175838047131187
10.04453125,-0.2969174684951344
10.077901785714285,-0.2722921833302796
10.11127232142857,-0.15396618026130113
10.144642857142857,0.04303693782867906
10.178013392857142,0.2768277600742806
10.21138392857143,0.49109777854943726
10.244754464285714,0.6334044074374002
10.278125,0.6722209503102464
10.311495535714286,0.6061643231648473
10.344866071428571,0.46211941265708495
10.378236607142856,0.2836103644316271
10.411607142857143,0.11462479384466544
10.444977678571428,-0.014505099592745976
10.478348214285715,-0.0940712264330031
10.51171875,-0.13320573214911263
10.545089285714285,-0.15146699012693896
10.578459821428572,-0.16823363262747687
10.611830357142857,-0.1944749818939665
10.645200892857142,-0.22972331501012158
10.678571428571429,-0.26451080392160686
10.711941964285714,-0.28632724254044883
10.745312499999999,-0.2860860681697074
10.778683035714286,-0.26234029379848756
10.81205357142857,-0.2217440790187543
10.845424107142858,-0.17591782835349917
10.878794642857143,-0.13631844102896531
10.912165178571428,-0.10944458945209604
10.945535714285715,-0.09446502936680265
10.97890625,-0.08422660018773083
11.012276785714285,-0.06902974663042584
11.045647321428572,-0.04126222900932931
11.079017857142857,0.0013807865983430164
11.112388392857143,0.0555471802644852
11.145758928571428,0.11459952603797889
11.179129464285714,0.17203621834291072
11.2125,0.22375478459398346
11.245870535714285,0.26778561274050044
11.27924107142857,0.3018924727529395
11.312611607142857,0.32104952908514817
11.345982142857142,0.31715453548450845
11.37935267857143,0.28203860344076154
11.412723214285714,0.21258254300876353
11.44609375,0.11498357577757098
11.479464285714286,0.0051904754945217004
11.512834821428571,-0.09556670938177264
11.546205357142856,-0.1684511084594412
11.579575892857143,-0.20421965948017842
11.612946428571428,-0.20630311580178204
11.646316964285715,-0.18818158159776113
11.6796875,-0.16642371945576703
11.713058035714285,-0.15297425884180416
11.746428571428572,-0.15056034346741434
11.779799107142857,-0.15331365576303208
11.813169642857142,-0.15185689028106172
11.846540178571429,-0.13973732800161826
11.879910714285714,-0.1174939624186514
11.913281249999999,-0.09212332681327202
11.946651785714286,-0.07240210962606489
11.98002232142857,-0.06289048394189563
12.013392857142858,-0.060158380881389355
12.046763392857143,-0.05351130060091123
12.080133928571428,-0.03003040618830724
12.113504464285715,0.0185417272509043
12.146875,0.09049284984805468
12.180245535714285,0.17309233341035715
12.213616071428572,0.2465121585736125
12.246986607142857,0.29117364035532456
12.280357142857143,0.2954181281119153
12.313727678571428,0.2601876945880448
12.347098214285714,0.1986424742651959
12.38046875,0.13084081329747158
12.413839285714285,0.07581644438838753
12.44720982142857,0.04457402721285494
12.480580357142857,0.03707489121021137
12.513950892857142,0.04435086914002741
12.54732142857143,0.05437344059876952
12.580691964285714,0.05846892839635227
12.6140625,0.05487816043068595
12.647433035714286,0.04767280106821878
12.680803571428571,0.041868012330816225
12.714174107142856,0.037817851001550315
12.747544642857143,0.028565503576811875
12.780915178571428,0.002299132526760052
12.814285714285713,-0.05085680021561438
12.84765625,-0.13124448245210635
12.881026785714285,-0.22579223947521604
12.914397321428572,-0.3108585420576127
12.947767857142857,-0.36141228626985566
12.981138392857142,-0.36261797131778767
13.014508928571429,-0.31813153961268176
13.047879464285714,-0.25048812879493065
13.081249999999999,-0.1924824312080857
13.114620535714286,-0.17276096032654453
13.14799107142857,-0.20189422302286833
13.181361607142858,-0.26547055276401094
13.214732142857143,-0.32799441462156037
13.248102678571428,-0.34668804688929367
13.281473214285715,-0.28970915936462394
13.31484375,-0.15091374664677
13.348214285714285,0.0456263712706781
13.381584821428572,0.25384477436527336
13.414955357142857,0.42344107888386334
13.448325892857143,0.5195624934576749
13.481696428571428,0.5358535674346643
13.515066964285714,0.49538851025384556
13.5484375,0.43952379337450015
13.581808035714285,0.40992153737468784
13.61517857142857,0.43146306421580927
13.648549107142857,0.5026607059702204
13.681919642857142,0.5964674027886537
13.71529017857143,0.6700860350050778
13.748660714285714,0.6793708263635929
13.78203125,0.5926210687984672
13.815401785714286,0.3997984046498882
13.848772321428571,0.11547283952579322
13.882142857142856,-0.22407470250619765
13.915513392857143,-0.5680289681004099
13.948883928571428,-0.8608687050171403
13.982254464285713,-1.0535737163856125
14.015625,-1.1148248072600966
14.048995535714285,-1.039915375579836
14.082366071428572,-0.8541392074374542
14.115736607142857,-0.6077649000028883
14.149107142857142,-0.3622026649656401
14.182477678571429,-0.1709486265034904
14.215848214285714,-0.06223671190954246
14.249218749999999,-0.030739175038207535
14.282589285714286,-0.04229043800905302
14.31595982142857,-0.04986780750271314
14.349330357142858,-0.013894448789292323
14.382700892857143,0.08192191650778793
14.416071428571428,0.22561791545945156
14.449441964285715,0.38402212387501417
14.4828125,0.5176099531682912
14.516183035714285,0.5960499622238187
14.549553571428572,0.6079621644696901
14.582924107142857,0.5618354484596428
14.616294642857143,0.4793065752677323
14.649665178571428,0.3850269085425648
14.683035714285714,0.29795586755946835
14.71640625,0.2272434317936579
14.749776785714285,0.1730767303932722
14.78314732142857,0.1304999722471062
14.816517857142857,0.09336985010722673
14.849888392857142,0.05644729735080404
14.88325892857143,0.015402068193555683
14.916629464285714,-0.03395941575573171
14.95,-0.09555827599150851
14.983370535714286,-0.17124481763201455
15.016741071428571,-0.25813964629495223
15.050111607142856,-0.3470369856116969
15.083482142857143,-0.42368304065702916
15.116852678571428,-0.4733478176692834
15.150223214285713,-0.4871418197422116
15.18359375,-0.4670708125835471
15.216964285714285,-0.4267636656366834
15.250334821428572,-0.3864137725322022
15.283705357142857,-0.3632147946214468
15.317075892857142,-0.36125996672941585
15.350446428571429,-0.36609065497248644
15.383816964285714,-0.34782195811374145
15.417187499999999,-0.27311919243872046
15.450558035714286,-0.12168929640376137
15.48392857142857,0.10026808992515673
15.517299107142858,0.3569554218691988
15.550669642857143,0.593321554227064
15.584040178571428,0.7555259871446571
15.617410714285715,0.812764724539247
15.65078125,0.7702822087050267
15.684151785714285,0.6670038240517786
15.717522321428572,0.5582315354154858
15.750892857142857,0.49083734840419085
15.784263392857143,0.4819769723697587
15.817633928571428,0.5108657881504668
15.851004464285714,0.5273908291702921
15.884375,0.47398084875343943
15.917745535714285,0.31148788970011115
15.95111607142857,0.03821157398656226
15.984486607142857,-0.30583214920651797
16.017857142857142,-0.651104869953131
16.05122767857143,-0.9221588566629163
16.084598214285712,-1.0631597682005085
16.11796875,-1.0554382889742981
16.151339285714286,-0.9208894664217231
16.18470982142857,-0.7110070190420431
16.218080357142856,-0.4869256848822862
16.251450892857143,-0.2987910448322985
16.28482142857143,-0.17212481301736413
16.318191964285713,-0.10519591154382467
16.3515625,-0.07653072541485256
16.384933035714287,-0.05778527654020156
16.41830357142857,-0.025859680768997893
16.451674107142857,0.030351899357195254
16.485044642857144,0.10989957380517433
16.518415178571427,0.2044682260651178
16.551785714285714,0.3041772451455593
16.58515625,0.401237722345455
16.618526785714284,0.49013806572206564
16.65189732142857,0.5652590118672786
16.685267857142858,0.6181952874899398
16.71863839285714,0.6370498781732468
16.752008928571428,0.6087903878081447
16.785379464285715,0.5241173123799556
16.81875,0.3829535275694928
16.852120535714285,0.19814135258307175
16.88549107142857,-0.004607384824843205
16.91886160714286,-0.19120030239363003
16.95223214285714,-0.3271782584932989
16.98560267857143,-0.38699734864096613
17.018973214285715,-0.36175977772368784
17.05234375,-0.26296772764185034
17.085714285714285,-0.12099629567472982
17.119084821428572,0.021606929206036147
17.152455357142856,0.12056343108136876
17.185825892857142,0.14158618720252378
17.21919642857143,0.07034238342103614
17.252566964285712,-0.08230659691868811
17.2859375,-0.28181400529469164
17.319308035714286,-0.47845944377052346
17.35267857142857,-0.620919931921982
17.386049107142856,-0.6710637442070507
17.419419642857143,-0.615313412249156
17.45279017857143,-0.4686546368426602
17.486160714285713,-0.26958345324014005
17.51953125,-0.06734970585916683
17.552901785714287,0.09428433530489419
17.58627232142857,0.19104282073262724
17.619642857142857,0.22477981068675265
