Time (s),Filtered Signal
0.0,0.016907442723408384
0.0334075723830735,-0.015295079349754069
0.066815144766147,-0.02895507283977543
0.1002227171492205,-0.013265829301530566
0.133630289532294,0.030441548428127307
0.1670378619153675,0.09009621250653371
0.200445434298441,0.14891792047262267
0.23385300668151449,0.192930131967929
0.267260579064588,0.2163157094537481
0.3006681514476615,0.22233053278769968
0.334075723830735,0.21983975958083776
0.3674832962138085,0.21760941866728348
0.400890868596882,0.219315321055896
0.4342984409799555,0.22160784483856696
0.46770601336302897,0.21596303913797968
0.5011135857461025,0.193255712135507
0.534521158129176,0.14877212578743437
0.5679287305122495,0.08521893738294099
0.601336302895323,0.012239802721508338
0.6347438752783965,-0.057378941051871024
0.66815144766147,-0.11299865119633341
0.7015590200445435,-0.1503133939890692
0.734966592427617,-0.17234881573179567
0.7683741648106905,-0.18682158977147723
0.801781737193764,-0.2013091676125413
0.8351893095768375,-0.21882317319449848
0.868596881959911,-0.2361218297775072
0.9020044543429845,-0.24557754617129382
0.9354120267260579,-0.23948626929308084
0.9688195991091315,-0.2144334104186354
1.002227171492205,-0.1733889900453706
1.0356347438752784,-0.12450674706309696
1.069042316258352,-0.07739416130474641
1.1024498886414256,-0.038927086105023864
1.135857461024499,-0.010831021186827616
1.1692650334075725,0.009799528380331358
1.202672605790646,0.027528175298213196
1.2360801781737194,0.0449834448890366
1.269487750556793,0.060777332726941795
1.3028953229398665,0.07016331115833034
1.33630289532294,0.0680831080038015
1.3697104677060135,0.052898226847091286
1.403118040089087,0.028708704572154742
1.4365256124721606,0.004891131860638306
1.469933184855234,-0.007104009362017549
1.5033407572383075,0.0016855649149539545
1.536748329621381,0.03383303272938561
1.5701559020044544,0.08399510577230827
1.603563474387528,0.14041339017090806
1.6369710467706016,0.188804186873228
1.670378619153675,0.21704585523486855
1.7037861915367485,0.21886238045132053
1.737193763919822,0.19526094782737158
1.7706013363028954,0.15347696623768153
1.804008908685969,0.10411640255734018
1.8374164810690425,0.05768434955128521
1.8708240534521159,0.021664269645885786
1.9042316258351895,-0.0010670074996795408
1.937639198218263,-0.012199148908305726
1.9710467706013366,-0.016497911937148186
2.00445434298441,-0.019428867621177962
2.0378619153674835,-0.024736596262496587
2.071269487750557,-0.03288370367199397
2.1046770601336307,-0.040994200336792866
2.138084632516704,-0.04437649543522326
2.1714922048997773,-0.039025708376835444
2.204899777282851,-0.024038147345225788
2.2383073496659245,-0.002857166362987376
2.271714922048998,0.017270549796781554
2.3051224944320716,0.027528713472687916
2.338530066815145,0.020683621406155206
2.3719376391982183,-0.005998901686037373
2.405345211581292,-0.0492152449604231
2.4387527839643655,-0.1002112977958823
2.472160356347439,-0.1475345812782391
2.5055679287305126,-0.18113588712388723
2.538975501113586,-0.1962923864003901
2.5723830734966593,-0.1956175796999132
2.605790645879733,-0.18798321958640343
2.6391982182628064,-0.18444024054472816
2.67260579064588,-0.19270650057715713
2.7060133630289536,-0.21274172001915148
2.739420935412027,-0.23572524722557828
2.7728285077951007,-0.2472944620980825
2.806236080178174,-0.2338044786039382
2.8396436525612474,-0.18871376206936338
2.873051224944321,-0.11594637509665098
2.9064587973273945,-0.028477398006958945
2.939866369710468,0.057241064284027525
2.9732739420935417,0.1283015809069088
3.006681514476615,0.1804032963147445
3.0400890868596884,0.21860439705601928
3.073496659242762,0.2536275346906424
3.1069042316258355,0.29574847953900685
3.140311804008909,0.3493008654745272
3.1737193763919826,0.4102309177629345
3.207126948775056,0.46739199187497615
3.2405345211581293,0.5064309382011608
3.273942093541203,0.5142007818889344
3.3073496659242765,0.48201294924361276
3.34075723830735,0.4072535231038984
3.3741648106904236,0.29396822791616156
3.407572383073497,0.15318356655001175
3.4409799554565703,0.00292965219222838
3.474387527839644,-0.13309818670652984
3.5077951002227175,-0.22955840054836418
3.541202672605791,-0.2664429781335882
3.5746102449888646,-0.23734395105241593
3.608017817371938,-0.1555819398558365
3.6414253897550113,-0.05444269530628405
3.674832962138085,0.020541021783105053
3.7082405345211584,0.026048888756066195
3.7416481069042318,-0.06251204316871035
3.7750556792873056,-0.23903234516694785
3.808463251670379,-0.4649495101098127
3.8418708240534527,-0.6796843952413577
3.875278396436526,-0.8201651935825401
3.9086859688195994,-0.8422479873260196
3.942093541202673,-0.7357160712134896
3.9755011135857465,-0.5270095894693339
4.00890868596882,-0.26884443696585586
4.042316258351893,-0.021196725339395064
4.075723830734967,0.1685902678792957
4.109131403118041,0.2789612304490224
4.142538975501114,0.3163063003914996
4.1759465478841875,0.3067536985614209
4.209354120267261,0.2823630278397205
4.242761692650334,0.26808490813907626
4.276169265033408,0.27448773119393644
4.309576837416482,0.29791301368924167
4.342984409799555,0.3262030726530149
4.3763919821826285,0.34610970016947684
4.409799554565702,0.3486775119979125
4.443207126948775,0.33083958423950033
4.476614699331849,0.2938615817294899
4.510022271714923,0.24075889975950396
4.543429844097996,0.17472782477868254
4.5768374164810695,0.09932015857151646
4.610244988864143,0.019580130352280817
4.643652561247216,-0.057341516747301834
4.67706013363029,-0.12312045313850847
4.710467706013364,-0.1705758112908819
4.743875278396437,-0.19615420595239746
4.77728285077951,-0.20112286848720554
4.810690423162584,-0.19068998583384741
4.844097995545657,-0.17141239691349688
4.877505567928731,-0.14819543737229982
4.910913140311805,-0.12243590470456871
4.944320712694878,-0.09228221066635484
4.977728285077951,-0.05486597067278924
5.011135857461025,-0.009263122626534238
5.044543429844098,0.041525273625843205
5.077951002227172,0.09080269711251347
5.111358574610246,0.13062013812411988
5.144766146993319,0.1551340824184856
5.178173719376392,0.16298773361585606
5.211581291759466,0.15734005491244019
5.244988864142539,0.14352885263150444
5.278396436525613,0.12575562304985785
5.311804008908687,0.10476025398049733
5.34521158129176,0.07784493155681549
5.378619153674833,0.04118581296055839
5.412026726057907,-0.006974875416058183
5.445434298440981,-0.06412403687090791
5.478841870824054,-0.12349608651476425
5.512249443207128,-0.1763060347820938
5.545657015590201,-0.21509952181193867
5.579064587973274,-0.23671257408008348
5.612472160356348,-0.24363145401854877
5.645879732739422,-0.24321878400676597
5.679287305122495,-0.24497116745058792
5.712694877505569,-0.2565391924625397
5.746102449888642,-0.27968773085655646
5.779510022271715,-0.30768572498026714
5.812917594654789,-0.32558423237544826
5.846325167037863,-0.3141628562606813
5.879732739420936,-0.256915694352879
5.91314031180401,-0.14775198329196512
5.946547884187083,0.003976119442210964
5.979955456570156,0.17403802045601197
6.01336302895323,0.3302071623789733
6.046770601336304,0.44314121667279055
6.080178173719377,0.496658646067015
6.1135857461024505,0.49272247882094367
6.146993318485524,0.44882127886588175
6.180400890868597,0.3891088485748902
6.213808463251671,0.3336588314656316
6.247216035634745,0.29092158968293996
6.280623608017818,0.25663638182327897
6.3140311804008915,0.21911221133033884
6.347438752783965,0.16769122381431767
6.380846325167038,0.09985220614083973
6.414253897550112,0.023373732396639847
6.447661469933186,-0.0473097451762099
6.481069042316259,-0.09838241964407554
6.5144766146993325,-0.1235824111930342
6.547884187082406,-0.12718381726304762
6.581291759465479,-0.121631178265843
6.614699331848553,-0.1212327987528204
6.648106904231627,-0.13520544500847773
6.6815144766147,-0.1634708132499655
6.7149220489977735,-0.19707045551383745
6.748329621380847,-0.2227860688572987
6.78173719376392,-0.2296239025870164
6.815144766146994,-0.21405685872266364
6.848552338530068,-0.18158764630790247
6.881959910913141,-0.14397762153537694
6.915367483296214,-0.11356579516615939
6.948775055679288,-0.09748853835307301
6.982182628062361,-0.09460590389431019
7.015590200445435,-0.09654492443361767
7.048997772828509,-0.0922142078384597
7.082405345211582,-0.07348697077110691
7.115812917594655,-0.03929187596234744
7.149220489977729,0.003765729716054154
7.182628062360802,0.044424267258769315
7.216035634743876,0.07192131333326914
7.24944320712695,0.08087322544558975
7.282850779510023,0.07367792646737276
7.316258351893096,0.059402911743340066
7.34966592427617,0.04969477335841782
7.383073496659243,0.05354912201409895
7.416481069042317,0.07326059664163935
7.449888641425391,0.10333133781759367
7.4832962138084635,0.132791227638609
7.516703786191537,0.1498650755841782
7.550111358574611,0.14690191451425377
7.583518930957685,0.1234279738152187
7.616926503340758,0.08610578333394026
7.650334075723832,0.04581267414066627
7.683741648106905,0.013294225465199929
7.717149220489978,-0.004665300236675617
7.750556792873052,-0.007039457492682968
7.783964365256126,0.002144174240332756
7.817371937639199,0.016340886734781315
7.850779510022273,0.029477296098250907
7.884187082405346,0.0379856751239714
7.917594654788419,0.041105893862418426
7.951002227171493,0.039640876974582184
7.984409799554567,0.03417777898801766
8.01781737193764,0.024037594028006055
8.051224944320714,0.007723846102058024
8.084632516703786,-0.015345451476770888
8.118040089086861,-0.04294639217800184
8.151447661469934,-0.06938351854948675
8.184855233853007,-0.08685289285991094
8.218262806236082,-0.08852231388786104
8.251670378619155,-0.07199382834505227
8.285077951002227,-0.041438598197133046
8.318485523385302,-0.007159848220400941
8.351893095768375,0.017578107210282475
8.385300668151448,0.021401165178278017
8.418708240534523,-0.0005257194011615904
8.452115812917596,-0.044007762737078605
8.485523385300668,-0.0966747798760447
8.518930957683743,-0.14202965199793527
8.552338530066816,-0.16519684744570245
8.585746102449889,-0.15814456756614914
8.619153674832964,-0.12237205451644351
8.652561247216036,-0.06809911600658086
8.68596881959911,-0.010371938488814032
8.719376391982184,0.03637075290810436
8.752783964365257,0.06323324701999179
8.78619153674833,0.06950796134930716
8.819599109131405,0.06209796041129951
8.853006681514477,0.05198503181496512
8.88641425389755,0.04916665163021232
8.919821826280625,0.0581517486647555
8.953229398663698,0.07593813630174494
8.98663697104677,0.0933676659392577
9.020044543429846,0.09927185243476504
9.053452115812918,0.08556889536105934
9.086859688195991,0.051070122602142005
9.120267260579066,0.0023996914918526257
9.153674832962139,-0.04821093911253416
9.187082405345212,-0.0871172845355999
9.220489977728286,-0.10359408131175812
9.25389755011136,-0.09269370678365701
9.287305122494432,-0.055962081201565
9.320712694877507,-0.00036825730891592093
9.35412026726058,0.06367126577331346
9.387527839643653,0.12442632400756735
9.420935412026727,0.17086536359428087
9.4543429844098,0.1945689523143359
9.487750556792873,0.19144883636629573
9.521158129175948,0.16280934624099466
9.55456570155902,0.11509718778047456
9.587973273942094,0.05799050903900376
9.621380846325168,0.001227148106074037
9.654788418708241,-0.048646280933442
9.688195991091314,-0.09012243373948124
9.721603563474389,-0.12616390692573473
9.755011135857462,-0.16129557831857946
9.788418708240535,-0.1976365417032281
9.82182628062361,-0.23182690256236213
9.855233853006682,-0.2545657706132244
9.888641425389755,-0.2533753998905068
9.92204899777283,-0.21772742425663202
9.955456570155903,-0.14448891849695128
9.988864142538976,-0.04131302165416304
10.02227171492205,0.073722614399527
10.055679287305123,0.17649987721973412
10.089086859688196,0.24392652372554718
10.12249443207127,0.26118975709378117
10.155902004454344,0.22648878313526302
10.189309576837417,0.15141685418876133
10.222717149220491,0.05685395943251897
10.256124721603564,-0.033936672087251804
10.289532293986637,-0.10217462350315126
10.322939866369712,-0.13771214865447298
10.356347438752785,-0.1392355927835118
10.389755011135858,-0.11131200046027775
10.423162583518932,-0.06058401102660057
10.456570155902005,0.0064510033602312436
10.489977728285078,0.08296733993795669
10.523385300668153,0.15952431301451261
10.556792873051226,0.2222899116562314
10.590200445434299,0.2540851091481698
10.623608017817373,0.23903859783861048
10.657015590200446,0.1694280521674016
10.69042316258352,0.051582475035943036
10.723830734966594,-0.09250646164804432
10.757238307349667,-0.22970560252681957
10.790645879732741,-0.32556037755560213
10.824053452115814,-0.35594155767125835
10.857461024498887,-0.31576568783443537
10.890868596881962,-0.22089944584409088
10.924276169265035,-0.10213691825240673
10.957683741648108,0.0063941341927775805
10.991091314031182,0.07954078286094726
11.024498886414255,0.10900531260305414
11.057906458797328,0.10376353246791177
11.091314031180403,0.08347818300034682
11.124721603563476,0.06850754312135297
11.158129175946549,0.07133909490550247
11.191536748329623,0.09304338223817478
11.224944320712696,0.12543223444412413
11.25835189309577,0.15670104397380671
11.291759465478844,0.1770187732378979
11.325167037861917,0.18134962707720045
11.35857461024499,0.16898802959001255
11.391982182628064,0.14134990509497117
11.425389755011137,0.10022012085651928
11.45879732739421,0.04768386021996473
11.492204899777285,-0.012730622551236566
11.525612472160358,-0.07526047384443407
11.55902004454343,-0.13271688877168367
11.592427616926505,-0.17874445591336366
11.625835189309578,-0.2100524862809559
11.659242761692651,-0.22696025259197602
11.692650334075726,-0.23174518402452657
11.726057906458799,-0.22590949666027885
11.759465478841872,-0.20836889222617533
11.792873051224946,-0.17603349486333603
11.82628062360802,-0.1266324893003492
11.859688195991092,-0.06203100867840352
11.893095768374167,0.010208005607647433
11.92650334075724,0.0783064698817627
11.959910913140313,0.13028235846920894
11.993318485523387,0.15845581189542596
12.02672605790646,0.16211107114977172
12.060133630289533,0.14702676482308383
12.093541202672608,0.12231324637002959
12.12694877505568,0.09635787680846841
12.160356347438753,0.07394153744452817
12.193763919821828,0.055728205728102775
12.227171492204901,0.03995231615133335
12.260579064587974,0.025027999526988486
12.293986636971049,0.011492335935074533
12.327394209354122,0.002207664065020867
12.360801781737194,0.000741684831500389
12.39420935412027,0.008821005696939166
12.427616926503342,0.024274151332883912
12.461024498886415,0.04071325668650328
12.49443207126949,0.04941317072787098
12.527839643652563,0.042777830886614285
12.561247216035635,0.017928986603857687
12.59465478841871,-0.02126526599158781
12.628062360801783,-0.06483286500714927
12.661469933184856,-0.09997201497408129
12.69487750556793,-0.11570155966314308
12.728285077951004,-0.10694274240505831
12.761692650334076,-0.07630511582000638
12.795100222717151,-0.032900594516223014
12.828507795100224,0.011137564603681743
12.861915367483297,0.04481108731178718
12.895322939866372,0.0614027343127753
12.928730512249444,0.0596769758759384
12.962138084632517,0.043239533554507444
12.995545657015592,0.018859865709773608
13.028953229398665,-0.005399317612788091
13.062360801781738,-0.02185823303456602
13.095768374164813,-0.024783738074720712
13.129175946547885,-0.011973252893021367
13.162583518930958,0.013924089020594178
13.195991091314033,0.04512993075973478
13.229398663697106,0.07032430517066543
13.262806236080179,0.07823084739676237
13.296213808463254,0.0621736504233014
13.329621380846326,0.023642209481941505
13.3630289532294,-0.02712143129981676
13.396436525612474,-0.07437917603386959
13.429844097995547,-0.10304424266541014
13.46325167037862,-0.105164652636895
13.496659242761694,-0.08370196111785086
13.530066815144767,-0.05157573663835238
13.56347438752784,-0.02607398892682098
13.596881959910915,-0.02098580845891732
13.630289532293988,-0.04006554504183457
13.66369710467706,-0.07499251543332279
13.697104677060135,-0.10896666123236018
13.730512249443208,-0.12440286019007499
13.763919821826281,-0.1111587064050406
13.797327394209356,-0.07138863090003283
13.830734966592429,-0.018681542780160293
13.864142538975502,0.028132455663598985
13.897550111358576,0.05357402643368531
13.93095768374165,0.05246784726068692
13.964365256124722,0.032080554845881716
13.997772828507797,0.008623390938189339
14.03118040089087,-5.035240173640393e-05
14.064587973273943,0.01791729687173984
14.097995545657017,0.06377881466947248
14.13140311804009,0.12828298120344084
14.164810690423163,0.19588426459477984
14.198218262806238,0.25073401034612386
14.23162583518931,0.28173418060159555
14.265033407572384,0.28485275165833335
14.298440979955458,0.2624506586936914
14.331848552338531,0.22067937349179195
14.365256124721604,0.1665138113328302
14.398663697104679,0.10567073266697138
14.432071269487752,0.041918789429027194
14.465478841870825,-0.02242733895345495
14.4988864142539,-0.0854480492305098
14.532293986636972,-0.14467769400138328
14.565701559020045,-0.1967570442529048
14.59910913140312,-0.23780105305904248
14.632516703786193,-0.2642516705015742
14.665924276169266,-0.2737918882139644
14.69933184855234,-0.2659507382035954
14.732739420935413,-0.2422712596222297
14.766146993318486,-0.20615327082772197
14.79955456570156,-0.16253353610165203
14.832962138084634,-0.11740882099203932
14.866369710467707,-0.07702965800697115
14.899777282850781,-0.04663791424269242
14.933184855233854,-0.028955657683857626
14.966592427616927,-0.02303480525307365
15.0,-0.024181727450677707
