Time (s),Filtered Signal
0.0,0.010717431349435348
0.033370165745856356,-0.21218313645086162
0.06674033149171271,-0.37559230390309456
0.10011049723756907,-0.43651901023410433
0.13348066298342542,-0.38070070774077364
0.16685082872928178,-0.22583224159893736
0.20022099447513814,-0.0148747183256035
0.2335911602209945,0.19843866181656153
0.26696132596685085,0.3667458561309126
0.30033149171270723,0.46247915665693523
0.33370165745856356,0.4827410824120315
0.3670718232044199,0.44462005218034073
0.4004419889502763,0.37415144132838674
0.43381215469613266,0.29455696143005883
0.467182320441989,0.21887437875332613
0.5005524861878453,0.14918250374308722
0.5339226519337017,0.0811488979634953
0.5672928176795581,0.01044126687865236
0.6006629834254145,-0.06251767961951803
0.6340331491712707,-0.13137504555785048
0.6674033149171271,-0.1861316821301173
0.7007734806629835,-0.21735568567360378
0.7341436464088398,-0.22040625907718073
0.7675138121546962,-0.19810615686609206
0.8008839779005525,-0.16093611988962095
0.8342541436464089,-0.12449453577464671
0.8676243093922653,-0.10470571114551366
0.9009944751381216,-0.11210499824268119
0.934364640883978,-0.14723155438305
0.9677348066298344,-0.1992263816246687
1.0011049723756906,-0.24879442155000106
1.0344751381215471,-0.27490551172939703
1.0678453038674034,-0.26275317911976204
1.1012154696132597,-0.2095784496017236
1.1345856353591162,-0.12565000685679092
1.1679558011049724,-0.029809505436567553
1.201325966850829,0.0584344334918336
1.2346961325966852,0.12656519030963637
1.2680662983425415,0.1728769631032068
1.301436464088398,0.2048270249035228
1.3348066298342542,0.23313305841092266
1.3681767955801105,0.26498481469155727
1.401546961325967,0.29998724585842207
1.4349171270718233,0.33067579217947407
1.4682872928176796,0.3467625696196924
1.501657458563536,0.34032148968178627
1.5350276243093923,0.3089902586091382
1.5683977900552488,0.2558477090441151
1.601767955801105,0.18678149780221137
1.6351381215469614,0.10753098308496258
1.6685082872928179,0.022421524104187303
1.7018784530386741,-0.06465797618385256
1.7352486187845306,-0.14822834996358153
1.768618784530387,-0.22021415585853235
1.8019889502762432,-0.2714322615593902
1.8353591160220997,-0.29530855206146833
1.868729281767956,-0.2917755454901516
1.9020994475138122,-0.26871198223411646
1.9354696132596687,-0.23943306335672399
1.968839779005525,-0.21705145971781128
2.0022099447513813,-0.20857380287480853
2.0355801104972375,-0.2119882512084518
2.0689502762430942,-0.21795985904431114
2.1023204419889505,-0.215057279468791
2.135690607734807,-0.19541495589252458
2.169060773480663,-0.15769911667551223
2.2024309392265193,-0.10616969237556903
2.235801104972376,-0.04716991566702782
2.2691712707182323,0.014190609227187534
2.3025414364640886,0.0749647452993322
2.335911602209945,0.13276265957030434
2.369281767955801,0.1834537257522611
2.402651933701658,0.22051796984267114
2.436022099447514,0.2371036216401843
2.4693922651933704,0.22975383719307405
2.5027624309392267,0.2013706108260315
2.536132596685083,0.16125098030584703
2.5695027624309392,0.12176309843216797
2.602872928176796,0.0932756655596018
2.636243093922652,0.08001899010746275
2.6696132596685085,0.07903284904307793
2.7029834254143648,0.08263780336388965
2.736353591160221,0.08300049686563428
2.7697237569060777,0.07636522546168008
2.803093922651934,0.06482574403881163
2.8364640883977903,0.054837254903486864
2.8698342541436466,0.053295502619274265
2.903204419889503,0.06317049269667323
2.936574585635359,0.08089209154695123
2.969944751381216,0.09689552107454953
3.003314917127072,0.09931169842926424
3.0366850828729284,0.07934376425321608
3.0700552486187846,0.0360177691065025
3.103425414364641,-0.0219048125792215
3.1367955801104976,-0.07803245631366408
3.170165745856354,-0.11405435054260234
3.20353591160221,-0.11706694588532288
3.2369060773480665,-0.08556295834761753
3.2702762430939227,-0.031245908506431348
3.3036464088397794,0.02479400046406858
3.3370165745856357,0.06066588132528465
3.370386740331492,0.06367631786796946
3.4037569060773483,0.03698776186711487
3.4371270718232045,-0.0010971027708726096
3.4704972375690613,-0.026204587533922432
3.5038674033149175,-0.02195322889721531
3.537237569060774,0.007850354073240076
3.57060773480663,0.036172940889956144
3.6039779005524863,0.022519818746002795
3.6373480662983426,-0.06735538575379128
3.6707182320441993,-0.24079189322377986
3.7040883977900556,-0.4676944721694531
3.737458563535912,-0.6873377589673463
3.770828729281768,-0.8312274918741381
3.8041988950276244,-0.8519725317051456
3.837569060773481,-0.7440157494335154
3.8709392265193374,-0.5453590945243727
3.9043093922651937,-0.3188205108923202
3.93767955801105,-0.12205491087139954
3.9710497237569062,0.018296132238399893
4.0044198895027625,0.11500637885729502
4.037790055248619,0.20726695222355668
4.071160220994475,0.33393480625816435
4.104530386740332,0.5079874589163368
4.1379005524861885,0.706076359495642
4.171270718232044,0.8783933216271367
4.204640883977901,0.972878382417981
4.238011049723757,0.9604179862925879
4.271381215469614,0.8479544934943305
4.30475138121547,0.6736864940263527
4.338121546961326,0.48828124340635554
4.371491712707183,0.3327385511070026
4.404861878453039,0.22394043401391106
4.438232044198895,0.1535532418946912
4.471602209944752,0.0984651963394888
4.504972375690608,0.03560555970317486
4.538342541436465,-0.04678039521998316
4.5717127071823205,-0.14597031779249214
4.605082872928177,-0.24932512414766925
4.638453038674034,-0.34246007885849306
4.67182320441989,-0.4160638422833468
4.7051933701657465,-0.4682457359666377
4.738563535911602,-0.5023339274155085
4.771933701657459,-0.5224808678249723
4.805303867403316,-0.5300972834633603
4.8386740331491715,-0.5230079783175955
4.872044198895028,-0.49726182859530965
4.905414364640884,-0.45001171456536215
4.938784530386741,-0.3816099786412381
4.972154696132597,-0.29594373346199
5.005524861878453,-0.199268832908796
5.03889502762431,-0.09854460468737568
5.072265193370166,-0.00019408073313989573
5.105635359116023,0.0903945405535944
5.1390055248618784,0.1688917949887131
5.172375690607735,0.2320166426679222
5.205745856353592,0.27770006118558704
5.239116022099448,0.3052776314323391
5.272486187845304,0.31540510771286384
5.30585635359116,0.3095466303961709
5.339226519337017,0.28923365019399455
5.372596685082874,0.25556152824421635
5.4059668508287295,0.2093473573033336
5.439337016574586,0.1519846445136235
5.472707182320442,0.08650748844660591
5.506077348066299,0.01806313344450445
5.5394475138121555,-0.046838224859797925
5.572817679558011,-0.10226582542153616
5.606187845303868,-0.14514246138652223
5.639558011049724,-0.17650607823042647
5.672928176795581,-0.20068237831452354
5.706298342541437,-0.22231934403668346
5.739668508287293,-0.24254832691601624
5.77303867403315,-0.25638634636100677
5.806408839779006,-0.2532617300372396
5.839779005524862,-0.22114474858572072
5.873149171270718,-0.15279865452780703
5.906519337016575,-0.05118197127558881
5.939889502762432,0.06904162183040426
5.9732596685082875,0.18535307979246107
6.006629834254144,0.2754821776670805
6.04,0.32634918904889837
6.073370165745857,0.33960784124848
6.1067403314917135,0.3307951894975286
6.140110497237569,0.32196199400800696
6.173480662983426,0.33084446174323706
6.206850828729282,0.36155633518945623
6.240220994475139,0.4013589001999974
6.273591160220995,0.4253603384324576
6.306961325966851,0.407244967507323
6.340331491712708,0.3311877578448779
6.373701657458564,0.19948473586284252
6.40707182320442,0.03248205698174766
6.440441988950277,-0.13892016401204618
6.473812154696133,-0.2844845822666758
6.50718232044199,-0.38445028436551454
6.5405524861878455,-0.43402315571579797
6.573922651933702,-0.44160151866914144
6.607292817679559,-0.422787715674036
6.640662983425415,-0.39365485006050904
6.674033149171271,-0.36610068607509183
6.707403314917127,-0.3462151579888022
6.740773480662984,-0.33480993355746724
6.774143646408841,-0.3286386314321307
6.8075138121546965,-0.32143730516807184
6.840883977900553,-0.304955523267842
6.874254143646409,-0.2706759321985093
6.907624309392266,-0.21250906066131026
6.9409944751381225,-0.12975500927163597
6.974364640883978,-0.028864173183390216
7.007734806629835,0.07732605516976673
7.041104972375691,0.1731094569857484
7.074475138121548,0.2449826804195551
7.107845303867403,0.2861465048652917
7.14121546961326,0.2984510446760505
7.174585635359117,0.2909353826322003
7.207955801104973,0.275646728174954
7.241325966850829,0.2625946533528301
7.274696132596685,0.2559843984046381
7.308066298342542,0.2532215788362069
7.341436464088399,0.24694466452458053
7.3748066298342545,0.22907390775282402
7.408176795580111,0.19507170350659808
7.441546961325967,0.1465743244199324
7.474917127071824,0.09126314678732536
7.5082872928176805,0.03999776832731
7.541657458563536,0.0023726561268982435
7.575027624309393,-0.017458525517687725
7.608397790055249,-0.0228784345313051
7.641767955801106,-0.02375675262405754
7.675138121546962,-0.032420287627883904
7.708508287292818,-0.05809969555674366
7.741878453038675,-0.1021502457268545
7.775248618784531,-0.15627523474576197
7.808618784530387,-0.2048556338207197
7.841988950276244,-0.23067638738380167
7.8753591160221,-0.2216771050365502
7.908729281767957,-0.17576126790173388
7.9420994475138125,-0.10160312522387623
7.975469613259669,-0.015368902386812275
8.008839779005525,0.06479541880083256
8.042209944751383,0.1238801718127337
8.075580110497238,0.15284755625833904
8.108950276243094,0.14893650204305328
8.14232044198895,0.11455633542889618
8.175690607734808,0.05615279680332304
8.209060773480664,-0.016388796272572625
8.24243093922652,-0.09035305674760245
8.275801104972377,-0.15184015316748253
8.309171270718233,-0.18888688318187996
8.342541436464089,-0.1952486899215129
8.375911602209946,-0.17302725176421266
8.409281767955802,-0.1323975801854536
8.442651933701658,-0.08795784535962073
8.476022099447514,-0.05301213134324505
8.509392265193371,-0.0343307241580114
8.542762430939227,-0.029840859849740095
8.576132596685083,-0.030292189733539712
8.60950276243094,-0.023990726755255796
8.642872928176796,-0.0022653300469992117
8.676243093922652,0.036850203384217205
8.709613259668508,0.08816544229177242
8.742983425414366,0.14190407971371796
8.776353591160222,0.18776133748564933
8.809723756906077,0.2185302125266593
8.843093922651935,0.2319632860714124
8.87646408839779,0.2305825855478079
8.909834254143647,0.22000563277992172
8.943204419889504,0.20664621038235806
8.97657458563536,0.19545639457470404
9.009944751381216,0.1880797215148406
9.043314917127072,0.18170174642315304
9.07668508287293,0.16901196253541703
9.110055248618785,0.13973650570024926
9.143425414364641,0.0838557303093572
9.176795580110499,-0.004134454392557619
9.210165745856354,-0.12136032574701162
9.24353591160221,-0.2548602828725098
9.276906077348068,-0.38325891081226104
9.310276243093924,-0.4818251158132107
9.34364640883978,-0.5295064493067461
9.377016574585635,-0.5155877681681553
9.410386740331493,-0.44355428645341477
9.443756906077349,-0.33058488700263766
9.477127071823205,-0.20257650147927977
9.510497237569062,-0.08621905042578704
9.543867403314918,-0.0008286988280647771
9.577237569060774,0.04711504640150201
9.610607734806631,0.06473189675348429
9.643977900552487,0.06866247397499335
9.677348066298343,0.07796566389727576
9.710718232044199,0.10690322620242616
9.744088397790057,0.16022894243462177
9.777458563535912,0.23220057714238967
9.810828729281768,0.30892858008084556
9.844198895027626,0.37271869137801633
9.877569060773482,0.4069790265596469
9.910939226519337,0.40062167843025104
9.944309392265193,0.351149378734592
9.97767955801105,0.26566222849440346
10.011049723756907,0.15921092871663578
10.044419889502763,0.05063211955075085
10.07779005524862,-0.042905730905817493
10.111160220994476,-0.11060703161473762
10.144530386740332,-0.15011720160221145
10.17790055248619,-0.16627083050267655
10.211270718232045,-0.16744366591777296
10.244640883977901,-0.1614910298821126
10.278011049723757,-0.15317084012926976
10.311381215469615,-0.14386305993051962
10.34475138121547,-0.1330407381745882
10.378121546961326,-0.12012985860848929
10.411491712707184,-0.1055044039006565
10.44486187845304,-0.09019250338464198
10.478232044198895,-0.07481949339580113
10.511602209944753,-0.058792259910163125
10.544972375690609,-0.040493336809794826
10.578342541436465,-0.018509507667503
10.61171270718232,0.0068375324610954556
10.645082872928178,0.03268479080128143
10.678453038674034,0.05421661731921087
10.71182320441989,0.06651929982209256
10.745193370165747,0.0668058431750128
10.778563535911603,0.05585188087861649
10.811933701657459,0.03789815274712628
10.845303867403315,0.019121327275128663
10.878674033149172,0.005523561605835581
10.912044198895028,0.0012674066875568246
10.945414364640884,0.008000402251605166
10.978784530386742,0.02495989640692223
11.012154696132598,0.049214317349339724
11.045524861878453,0.07561886565578621
11.078895027624311,0.09673347436145942
11.112265193370167,0.10346234965041336
11.145635359116023,0.08701353287431529
11.179005524861878,0.04195675071654173
11.212375690607736,-0.030767162089013467
11.245745856353592,-0.12237942770963772
11.279116022099448,-0.21730215365622035
11.312486187845305,-0.29655501402043283
11.345856353591161,-0.3423467632824261
11.379226519337017,-0.3423449665100368
11.412596685082875,-0.29249115295157124
11.44596685082873,-0.19794670140758897
11.479337016574586,-0.07229958812234255
11.512707182320442,0.06467375338790728
11.5460773480663,0.19043156286841023
11.579447513812156,0.28393547262863683
11.612817679558011,0.3301138692809161
11.646187845303869,0.3234999657530588
11.679558011049725,0.26990624312273365
11.71292817679558,0.1853336736988348
11.746298342541436,0.09207244289203909
11.779668508287294,0.012879446380703978
11.81303867403315,-0.035131061182218745
11.846408839779006,-0.04498060658226255
11.879779005524863,-0.02118120447799398
11.91314917127072,0.02258955612687573
11.946519337016575,0.06873908925306614
11.979889502762433,0.10204787145882194
12.013259668508288,0.11463148292641165
12.046629834254144,0.10767963077260569
12.08,0.08937110814547339
12.113370165745858,0.06997994471258838
12.146740331491714,0.05641883649596798
12.18011049723757,0.04872752463487766
12.213480662983427,0.040137275734405814
12.246850828729283,0.020691329488227668
12.280220994475139,-0.01727043055549387
12.313591160220996,-0.07435404267545964
12.346961325966852,-0.14236590847626196
12.380331491712708,-0.2064984465256247
12.413701657458564,-0.25059502191090577
12.447071823204421,-0.26328070905660517
12.480441988950277,-0.2423720003052356
12.513812154696133,-0.19570129383292623
12.54718232044199,-0.13797015010226865
12.580552486187846,-0.08487820137874959
12.613922651933702,-0.046924527924956695
12.64729281767956,-0.02547217593520039
12.680662983425416,-0.012776658323818859
12.714033149171271,0.003968731325591354
12.747403314917127,0.03622757285002831
12.780773480662985,0.08802777851703192
12.81414364640884,0.1527507861881099
12.847513812154697,0.21424773206137265
12.880883977900554,0.25208890232419123
12.91425414364641,0.24920065527272175
12.947624309392266,0.19914575717278146
12.980994475138122,0.11014822641481117
13.01436464088398,0.003799605288002181
13.047734806629835,-0.09184100697604002
13.081104972375691,-0.15273308525933807
13.114475138121549,-0.1689093929309753
13.147845303867404,-0.14945917184713306
13.18121546961326,-0.1192975521744548
13.214585635359118,-0.10800934688897036
13.247955801104974,-0.13506261942471562
13.28132596685083,-0.1982244153333622
13.314696132596685,-0.27141284404211663
13.348066298342543,-0.3142788448454338
13.381436464088399,-0.29014671550738336
13.414806629834255,-0.18433778218681388
13.448176795580112,-0.01389947436418336
13.481546961325968,0.17674445230246777
13.514917127071824,0.33312205492717434
13.548287292817681,0.4134137580683621
13.581657458563537,0.40588524491195427
13.615027624309393,0.3326406054771201
13.648397790055249,0.23786080797822962
13.681767955801106,0.16633305849877836
13.715138121546962,0.1428211197707915
13.748508287292818,0.16220083989048717
13.781878453038676,0.1946677763074819
13.815248618784532,0.2027171312628549
13.848618784530387,0.1609523344597111
13.881988950276245,0.06887478323549971
13.9153591160221,-0.04914603502718611
13.948729281767957,-0.15585261438590467
13.982099447513813,-0.21839164618563192
14.01546961325967,-0.2222523587007357
14.048839779005526,-0.17562328026417406
14.082209944751382,-0.10321858935396966
14.11558011049724,-0.0337952410229202
14.148950276243095,0.01196402857265372
14.182320441988951,0.02770704125706581
14.215690607734807,0.020043977557898576
14.249060773480664,0.001791172803273609
14.28243093922652,-0.015770543411976676
14.315801104972376,-0.02769378947923753
14.349171270718234,-0.03565431467085404
14.38254143646409,-0.04479294444502661
14.415911602209945,-0.05962289817842474
14.449281767955803,-0.08132587843435671
14.482651933701659,-0.10744941167665646
14.516022099447515,-0.13354124445520887
14.54939226519337,-0.15537648622793962
14.582762430939228,-0.17041803163178296
14.616132596685084,-0.17782497628643604
14.64950276243094,-0.17726463603016196
14.682872928176797,-0.1675118385868911
14.716243093922653,-0.14596608391127433
14.749613259668509,-0.10968641454409823
14.782983425414367,-0.05759944173217456
14.816353591160222,0.007287963460031939
14.849723756906078,0.07702789395462602
14.883093922651934,0.13997105377050378
14.916464088397792,0.1837863158356896
14.949834254143648,0.1990446279853335
14.983204419889503,0.18194545287680672
15.016574585635361,0.1353027005105772
15.049944751381217,0.06778181926107443
15.083314917127073,-0.007971942088822029
15.116685082872928,-0.0775830406739278
15.150055248618786,-0.12721464581734998
15.183425414364642,-0.14591699373193787
15.216795580110498,-0.12814296325166055
15.250165745856355,-0.07603333730718073
15.283535911602211,-0.0004108237384654545
15.316906077348067,0.08079057379198615
15.350276243093925,0.14720961186032042
15.38364640883978,0.18284987375112732
15.417016574585636,0.1824011494785899
15.450386740331492,0.15401006631082625
15.48375690607735,0.11661323826803274
15.517127071823205,0.09244303955610776
15.550497237569061,0.09782358952901828
15.583867403314919,0.13644890335725046
15.617237569060775,0.19826913288486686
15.65060773480663,0.26437705777767284
15.683977900552488,0.31529518592759076
15.717348066298344,0.338409982508537
15.7507182320442,0.33091277789336543
15.784088397790056,0.2972116967216525
15.817458563535913,0.24296868046665454
15.85082872928177,0.16986582769424216
15.884198895027625,0.0747081702509106
15.917569060773483,-0.04628781140445706
15.950939226519338,-0.19060490098520497
15.984309392265194,-0.3445224017489047
16.01767955801105,-0.48402001890484114
16.051049723756908,-0.5821089524061694
16.084419889502765,-0.6194478759789348
16.11779005524862,-0.5930082942866257
16.151160220994477,-0.5183213421533738
16.18453038674033,-0.42394849945703483
16.21790055248619,-0.34050823809076813
16.251270718232046,-0.28898683660090263
16.2846408839779,-0.2731713255962639
16.318011049723758,-0.27907081834056485
16.351381215469615,-0.28121661508109685
16.38475138121547,-0.25307509627139935
16.418121546961327,-0.177464972315744
16.451491712707185,-0.053186408905050934
16.48486187845304,0.10427375635050136
16.518232044198896,0.2678469079520263
16.551602209944754,0.4076850496847227
16.584972375690608,0.5004489814942185
16.618342541436466,0.5359545366884159
16.651712707182323,0.5191850324679831
16.685082872928177,0.4673844054308729
16.718453038674035,0.40357539540407117
16.751823204419892,0.348850905593967
16.785193370165747,0.3159243328260846
16.818563535911604,0.3058037081391555
16.851933701657458,0.30839307609631306
16.885303867403316,0.306664675386238
16.918674033149173,0.2830456667532725
16.952044198895027,0.22600428064965747
16.985414364640885,0.13465968491756816
17.018784530386743,0.01971588096901546
17.052154696132597,-0.0998444721454939
17.085524861878454,-0.20331353409258462
17.118895027624312,-0.2756410180129432
17.152265193370166,-0.3126313145107271
17.185635359116024,-0.32163925667696475
