Time (s),Filtered Signal
0.0,0.059697428642360335
0.03337008452774715,-0.02859748057273624
0.0667401690554943,-0.08931142773317685
0.10011025358324147,-0.1061021870616775
0.1334803381109886,-0.0818577966926745
0.16685042263873576,-0.036753059548362846
0.20022050716648293,0.0016385721988650317
0.23359059169423008,0.011583762065256489
0.2669606762219772,-0.012541624012045418
0.30033076074972437,-0.05799538842489148
0.3337008452774715,-0.10060800093185451
0.36707092980521866,-0.11747590346511984
0.40044101433296586,-0.0989444777726086
0.433811098860713,-0.05365410619206409
0.46718118338846015,-0.003892224178750073
0.5005512679162073,0.026563574232893527
0.5339213524439544,0.02604623013546909
0.5672914369717016,0.0031000582485816138
0.6006615214994487,-0.015363267163159618
0.6340316060271959,0.004325220089493749
0.667401690554943,0.08599902331587912
0.7007717750826902,0.2294224308310372
0.7341418596104373,0.40514948016615643
0.7675119441381845,0.5615949784376679
0.8008820286659317,0.6422184274211662
0.8342521131936789,0.6061025874549141
0.867622197721426,0.44336145631470386
0.9009922822491732,0.17885138168628156
0.9343623667769203,-0.13712457924130866
0.9677324513046675,-0.4465035326924952
1.0011025358324146,-0.7013744646347522
1.0344726203601617,-0.8746911856212259
1.0678427048879089,-0.9608536547613621
1.101212789415656,-0.9686780278427175
1.1345828739434032,-0.9124450496155281
1.1679529584711503,-0.8060280357861864
1.2013230429988975,-0.6615982062811239
1.2346931275266446,-0.4908432874414457
1.2680632120543918,-0.3054588858434528
1.301433296582139,-0.11535410551565373
1.334803381109886,0.07409135490038915
1.3681734656376332,0.26267939143140107
1.4015435501653803,0.45181235120760654
1.4349136346931275,0.637533288255535
1.4682837192208746,0.8041784130310003
1.5016538037486218,0.9237386650889857
1.535023888276369,0.9639640369023407
1.568393972804116,0.9035884738957732
1.6017640573318634,0.7480310418758507
1.6351341418596106,0.5365113067629599
1.6685042263873577,0.3338574077478006
1.7018743109151049,0.2071982504353693
1.735244395442852,0.19621397870357993
1.7686144799705992,0.29104520213250323
1.8019845644983463,0.4305684099208056
1.8353546490260935,0.5250768887778083
1.8687247335538406,0.4951668434668765
1.9020948180815878,0.30915677932303354
1.935464902609335,0.0003129684533317445
1.968834987137082,-0.34591864996958765
2.002205071664829,-0.6295255401376496
2.0355751561925763,-0.7801179697524009
2.0689452407203235,-0.7856598964555989
2.1023153252480706,-0.6919246556856047
2.1356854097758178,-0.5747394706535951
2.169055494303565,-0.5015204111802264
2.202425578831312,-0.5031462200408967
2.235795663359059,-0.5694311658599108
2.2691657478868064,-0.6665185874843114
2.3025358324145535,-0.7618853260667814
2.3359059169423007,-0.8399078979711293
2.369276001470048,-0.8990744717797002
2.402646085997795,-0.9351063993413071
2.436016170525542,-0.9239669017978717
2.4693862550532892,-0.8191561438216626
2.5027563395810364,-0.5688866404504263
2.5361264241087835,-0.14615277700235774
2.5694965086365307,0.42424284838822374
2.602866593164278,1.057814588121225
2.636236677692025,1.6289905946083867
2.669606762219772,2.010455596432227
2.7029768467475193,2.1170762094588307
2.7363469312752664,1.935698399848673
2.7697170158030135,1.5284749596601255
2.8030871003307607,1.0091969274770036
2.836457184858508,0.5034851145152346
2.869827269386255,0.10941287068408831
2.903197353914002,-0.12694404471175574
2.9365674384417493,-0.2146282155417902
2.9699375229694964,-0.20279516053241406
3.0033076074972436,-0.15715475161862916
3.0366776920249907,-0.13808454554616284
3.070047776552738,-0.18648564394595707
3.103417861080485,-0.31791212729822316
3.136787945608232,-0.5221690167466834
3.1701580301359793,-0.7658643525765082
3.203528114663727,-0.997832984270722
3.236898199191474,-1.1589580903727037
3.270268283719221,-1.1967798537439465
3.3036383682469683,-1.0820663036959384
3.3370084527747155,-0.8217697744484475
3.3703785373024626,-0.4626933675631768
3.4037486218302098,-0.08293127956570087
3.437118706357957,0.22781405868608195
3.470488790885704,0.39429101915253
3.503858875413451,0.38092091203715234
3.5372289599411983,0.2079192572510886
3.5705990444689455,-0.048960398862501135
3.6039691289966926,-0.27833945352412687
3.63733921352444,-0.3690839498705821
3.670709298052187,-0.2507789151703189
3.704079382579934,0.076792282024086
3.7374494671076812,0.5382740836134496
3.7708195516354284,1.0054502565387442
3.8041896361631755,1.3402956166980153
3.8375597206909227,1.4420333754333894
3.87092980521867,1.2804287225618316
3.904299889746417,0.9034943911051044
3.937669974274164,0.4179350302476817
3.9710400588019112,-0.049420011143634174
4.004410143329658,-0.39475039460742023
4.0377802278574055,-0.5695873039080479
4.071150312385153,-0.5911993059429956
4.1045203969129,-0.5278016770465646
4.137890481440647,-0.46475610885962637
4.171260565968394,-0.46557819034053627
4.204630650496141,-0.5441800709389986
4.238000735023888,-0.6604854814743238
4.2713708195516356,-0.7414598028814858
4.304740904079383,-0.717910888394397
4.33811098860713,-0.5597269144824661
4.371481073134877,-0.2926125027578144
4.404851157662624,0.011932551526546592
4.438221242190371,0.2687326433784929
4.471591326718118,0.4176865149728053
4.504961411245866,0.4503487690717128
4.538331495773613,0.41136586817052867
4.57170158030136,0.37396361728322114
4.605071664829107,0.4013321822100139
4.638441749356854,0.5127547033283203
4.671811833884601,0.671216778876433
4.7051819184123485,0.79892307863816
4.738552002940096,0.8135860811672794
4.771922087467843,0.6682097112578502
4.80529217199559,0.3754120902859849
4.838662256523337,0.004881834465881915
4.872032341051084,-0.3445825376724313
4.905402425578831,-0.5852838300819795
4.9387725101065785,-0.6748568365862501
4.972142594634326,-0.6297995913193725
5.005512679162073,-0.513490678631747
5.03888276368982,-0.4053473994497684
5.072252848217567,-0.3656963136775221
5.105622932745314,-0.4120087271999534
5.138993017273061,-0.5161902217135849
5.1723631018008085,-0.6225064314731296
5.205733186328556,-0.6762436107955138
5.239103270856303,-0.6488053176529346
5.27247335538405,-0.547623231614897
5.305843439911797,-0.40748043886911606
5.339213524439544,-0.26930257269176494
5.372583608967291,-0.15831529103493408
5.4059536934950385,-0.07286910720014941
5.439323778022786,0.011147026062516573
5.472693862550533,0.1239010113432655
5.50606394707828,0.28294613019267456
5.539434031606027,0.48269002412270096
5.572804116133774,0.6974745624141855
5.606174200661521,0.8958536155786754
5.6395442851892685,1.0570847634211418
5.672914369717016,1.1793728312197556
5.706284454244763,1.274209714822695
5.73965453877251,1.3498355546427299
5.773024623300257,1.3943800549651657
5.806394707828004,1.370792115958885
5.839764792355751,1.229654488635263
5.873134876883499,0.9354398467352592
5.906504961411246,0.4928119613522088
5.939875045938993,-0.04224573406076222
5.97324513046674,-0.5748774654765918
6.006615214994487,-1.0038486542569733
6.039985299522234,-1.259953431694219
6.073355384049981,-1.3325879640935872
6.106725468577729,-1.271931457301107
6.140095553105476,-1.1654272722803023
6.173465637633223,-1.0989672322793227
6.20683572216097,-1.1198566597840807
6.240205806688717,-1.2174602742795757
6.273575891216464,-1.3292992478546002
6.3069459757442115,-1.3691849468584663
6.340316060271959,-1.264751513864465
6.373686144799706,-0.9884467798602659
6.407056229327454,-0.5698593907478909
6.440426313855201,-0.08606127507195553
6.473796398382948,0.3640619863903805
6.507166482910695,0.6902275955218273
6.540536567438442,0.8353186181124136
6.5739066519661895,0.7884747066736749
6.607276736493937,0.5864787269239216
6.640646821021684,0.3057524614884286
6.674016905549431,0.04673096500086079
6.707386990077178,-0.08865289678724098
6.740757074604925,-0.02432613571569944
6.774127159132672,0.2637223929151144
6.8074972436604195,0.7320845466161404
6.840867328188167,1.2746396463445306
6.874237412715914,1.7501886758317804
6.907607497243661,2.0258167218314953
6.940977581771408,2.020190160443996
6.974347666299155,1.729105225810517
7.007717750826902,1.2224965364136318
7.0410878353546495,0.6150050132466884
7.074457919882397,0.024455276857551903
7.107828004410144,-0.4626871607151578
7.141198088937891,-0.8054179268911278
7.174568173465638,-1.0008852988016308
7.207938257993385,-1.0663002096214258
7.241308342521132,-1.024321944991131
7.27467842704888,-0.9001531485405161
7.308048511576627,-0.7276662947255288
7.341418596104374,-0.5539660442010625
7.374788680632121,-0.4324944507194779
7.408158765159868,-0.40368872552011115
7.441528849687615,-0.47309737819744874
7.4748989342153624,-0.6018786892380477
7.50826901874311,-0.7195248394040893
7.541639103270857,-0.7559247471612207
7.575009187798604,-0.6772696897566454
7.608379272326351,-0.5059862655909563
7.641749356854098,-0.312130271847498
7.675119441381845,-0.17871446540767147
7.7084895259095925,-0.15775886632597663
7.74185961043734,-0.23939033247921956
7.775229694965087,-0.3501638467518725
7.808599779492834,-0.382499597818977
7.841969864020581,-0.2423095904732079
7.875339948548328,0.10627954323066068
7.908710033076075,0.618496691340343
7.9420801176038225,1.1783237340318662
7.97545020213157,1.6362369041973608
8.008820286659317,1.861037288443093
8.042190371187063,1.7865765095871164
8.075560455714811,1.4361213598600944
8.108930540242557,0.9148948420754872
8.142300624770305,0.37258168450480966
8.175670709298052,-0.051109766956030624
8.2090407938258,-0.27736311889719
8.242410878353546,-0.315184037650976
8.275780962881294,-0.25241787300589974
8.30915104740904,-0.21348214359757248
8.342521131936788,-0.301139908835657
8.375891216464534,-0.5476461003175243
8.409261300992283,-0.8975231945823336
8.442631385520029,-1.2306512416416326
8.476001470047777,-1.416022271641592
8.509371554575523,-1.3718654157546686
8.542741639103271,-1.104120906431149
8.57611172363102,-0.7047955020608331
8.609481808158765,-0.310567663456648
8.642851892686513,-0.04125294199096283
8.67622197721426,0.05227878799461962
8.709592061742008,0.0059078343307189555
8.742962146269754,-0.08156682961668127
8.776332230797502,-0.10013565425032851
8.809702315325248,0.01902181951374953
8.843072399852996,0.27623926202329485
8.876442484380743,0.6120520408078615
8.90981256890849,0.9431490974154514
8.943182653436237,1.2035192663391057
8.976552737963985,1.3684195049227874
9.009922822491731,1.4506618327974043
9.04329290701948,1.4752770941022713
9.076662991547225,1.4503769460134404
9.110033076074973,1.3529020202213766
9.14340316060272,1.1383095063483852
9.176773245130468,0.7691656775479916
9.210143329658214,0.24687370380317997
9.243513414185962,-0.3713170487352156
9.276883498713708,-0.9807687102962821
9.310253583241456,-1.4616799347190401
9.343623667769203,-1.7216584495766538
9.37699375229695,-1.729758658633409
9.410363836824697,-1.5264944522411736
9.443733921352445,-1.2050775074958555
9.477104005880191,-0.8722361873307646
9.51047409040794,-0.6062844528560173
9.543844174935685,-0.43122544638144783
9.577214259463434,-0.31800866221597723
9.61058434399118,-0.21112428515879386
9.643954428518928,-0.06654150985267382
9.677324513046674,0.11856836972774512
9.710694597574422,0.29988988291489427
9.744064682102168,0.40738712272882804
9.777434766629916,0.3834174233229503
9.810804851157663,0.21762717319987537
9.84417493568541,-0.04028674600543326
9.877545020213157,-0.2976104854304179
9.910915104740905,-0.457240341848886
9.944285189268651,-0.4579426010343451
9.9776552737964,-0.2955747146378792
10.011025358324146,-0.01573862084949867
10.044395442851894,0.31505889672906356
10.07776552737964,0.6406935813337484
10.111135611907388,0.9303147945406596
10.144505696435134,1.170284983159623
10.177875780962882,1.3429766551180702
10.211245865490628,1.4117431794479736
10.244615950018376,1.327397055168054
10.277986034546123,1.0563319632694623
10.31135611907387,0.61392033898012
10.344726203601617,0.080095592998262
10.378096288129365,-0.41793156031419354
10.411466372657111,-0.7524269542381549
10.44483645718486,-0.8500010044933115
10.478206541712606,-0.7264702648831987
10.511576626240354,-0.4822700369951287
10.5449467107681,-0.25860835363382173
10.578316795295848,-0.1745823298406637
10.611686879823594,-0.2751758702776898
10.645056964351342,-0.5143990134940083
10.678427048879088,-0.7801462177253797
10.711797133406836,-0.9472414940883545
10.745167217934583,-0.9328988445650613
10.77853730246233,-0.7298337335334176
10.811907386990077,-0.4046225981133204
10.845277471517825,-0.0653826565710113
10.878647556045571,0.18466777960210404
10.91201764057332,0.28754572380569005
10.945387725101066,0.24963130306579404
10.978757809628814,0.13459756754698116
11.01212789415656,0.03535464730752398
11.045497978684308,0.036827638616896176
11.078868063212054,0.1830382456435305
11.112238147739802,0.4593221605596653
11.145608232267548,0.7952083782155855
11.178978316795297,1.087094355640926
11.212348401323043,1.2336466638116812
11.24571848585079,1.172189976644787
11.279088570378537,0.9029064325529337
11.312458654906285,0.49089981311451153
11.345828739434031,0.04399379984320528
11.37919882396178,-0.32602771739992886
11.412568908489526,-0.5435669592745788
11.445938993017274,-0.5944485263137965
11.47930907754502,-0.5261748307191323
11.512679162072768,-0.4239077808327917
11.546049246600514,-0.37309679677489915
11.579419331128262,-0.4246804587866866
11.612789415656009,-0.5766905232135593
11.646159500183757,-0.7783133070085795
11.679529584711503,-0.9527726381166961
11.71289966923925,-1.0280711457966818
11.746269753766997,-0.9626452099816574
11.779639838294745,-0.7567890667434667
11.813009922822491,-0.447996522225549
11.84638000735024,-0.09529459355882297
11.879750091877986,0.23914469676312267
11.913120176405734,0.5042924082367853
11.94649026093348,0.6679344013020165
11.979860345461228,0.7191366791812742
12.013230429988974,0.6681131190270125
12.046600514516722,0.5445656703437852
12.079970599044469,0.393305434538683
12.113340683572217,0.2653310337027957
12.146710768099963,0.20447500841565458
12.180080852627711,0.2330925462618902
12.213450937155457,0.3426422435746833
12.246821021683205,0.4943792578136447
12.280191106210951,0.631551901269008
12.3135611907387,0.6992773199421786
12.346931275266446,0.6643944176764802
12.380301359794194,0.5271348993341798
12.41367144432194,0.3197919037875318
12.447041528849688,0.09321395634006562
12.480411613377434,-0.10274296742087204
12.513781697905182,-0.23627604044770223
12.547151782432929,-0.3013597589200583
12.580521866960677,-0.3141227353999812
12.613891951488423,-0.3012823281974486
12.647262036016171,-0.28721028172136664
12.680632120543917,-0.2856613480532026
12.714002205071665,-0.2986562829899343
12.747372289599411,-0.32082355763733733
12.78074237412716,-0.3451514342819665
12.814112458654908,-0.3666676055130162
12.847482543182654,-0.38314892524374944
12.880852627710402,-0.394404992321332
12.914222712238148,-0.4021346903795466
12.947592796765896,-0.41069339790975384
12.980962881293642,-0.42701463406121226
13.01433296582139,-0.45751993385086226
13.047703050349137,-0.5018617926573342
13.081073134876885,-0.5464263678648389
13.114443219404631,-0.5622654275320542
13.147813303932379,-0.5109429468633649
13.181183388460125,-0.3580681915104558
13.214553472987873,-0.09004909648507016
13.24792355751562,0.27292981615473727
13.281293642043368,0.6742682058259576
13.314663726571114,1.0319033888737208
13.348033811098862,1.2610516323246437
13.381403895626608,1.3018589211291216
13.414773980154356,1.1419647758123663
13.448144064682102,0.8244929518985488
13.48151414920985,0.43666477825511635
13.514884233737597,0.08176172124706008
13.548254318265345,-0.1555384359302369
13.581624402793091,-0.236911720188013
13.614994487320839,-0.18006322498748215
13.648364571848585,-0.04675554018572283
13.681734656376333,0.08497912610041175
13.71510474090408,0.1519060899423749
13.748474825431828,0.12667010110594604
13.781844909959574,0.021130171508491915
13.815214994487322,-0.1270367977297321
13.848585079015068,-0.2759192771540664
13.881955163542816,-0.39792930795887993
13.915325248070562,-0.4871568224766223
13.94869533259831,-0.5539203794302165
13.982065417126057,-0.6113207925849095
14.015435501653805,-0.6617270573867273
14.048805586181551,-0.6900480912942688
14.082175670709299,-0.6667265879644096
14.115545755237045,-0.5589937712892578
14.148915839764793,-0.3458842417304076
14.18228592429254,-0.031433313531154014
14.215656008820288,0.3489345826904568
14.249026093348034,0.7320220915216596
14.282396177875782,1.0408945411839094
14.315766262403528,1.2062549175067572
14.349136346931276,1.1887124735606525
14.382506431459023,0.9937565025320709
14.41587651598677,0.6725784750734104
14.449246600514517,0.3066188206909716
14.482616685042265,-0.019618844379360678
14.515986769570011,-0.2472596803466173
14.54935685409776,-0.3613551161981188
14.582726938625505,-0.39067805977056835
14.616097023153253,-0.38897266245830614
14.649467107681,-0.4063383841192723
14.682837192208748,-0.4644123957380401
14.716207276736494,-0.5473901972127695
14.749577361264242,-0.6130997405339533
14.782947445791988,-0.6181006246118255
14.816317530319736,-0.5434452890230865
14.849687614847483,-0.4073190678504907
14.88305769937523,-0.2576616040839679
14.916427783902977,-0.14850332104715958
14.949797868430725,-0.11248278181131068
14.983167952958471,-0.14415843571376372
15.01653803748622,-0.2031027056229359
15.049908122013965,-0.23532059419653412
15.083278206541713,-0.2017787720501589
15.11664829106946,-0.09889993004972024
15.150018375597208,0.04013587695637555
15.183388460124954,0.16449301846078218
15.216758544652702,0.23545916626961588
15.250128629180448,0.25084925832930777
15.283498713708196,0.24984784705546836
15.316868798235943,0.2938265759459726
15.35023888276369,0.43170438774244013
15.383608967291437,0.6678386362686307
15.416979051819185,0.950563166489421
15.450349136346931,1.1894274974831445
15.48371922087468,1.293949394701154
15.517089305402425,1.214709705967451
15.550459389930174,0.9658730604950204
15.58382947445792,0.6179207163126147
15.617199558985668,0.2650684187344551
15.650569643513414,-0.015396484824016125
15.683939728041162,-0.1917611963755738
15.717309812568908,-0.28239167586347175
15.750679897096656,-0.3374434516964609
15.784049981624403,-0.4101273829616865
15.81742006615215,-0.5327620421474668
15.850790150679897,-0.7073516906783495
15.884160235207645,-0.9110602546952229
15.917530319735391,-1.1095553522041552
15.95090040426314,-1.269373199145389
15.984270488790886,-1.363992803295594
16.017640573318634,-1.3740548777826038
16.05101065784638,-1.286251798578352
16.084380742374126,-1.0954488770128663
16.117750826901876,-0.8108296525752626
16.151120911429622,-0.46197998475325946
16.18449099595737,-0.09839838849529958
16.217861080485115,0.22182506944810676
16.251231165012864,0.452168683896556
16.28460124954061,0.577952469482211
16.317971334068357,0.6252402342936795
16.351341418596103,0.6507986673270462
16.384711503123853,0.7150514521364313
16.4180815876516,0.8501861571361474
16.451451672179346,1.0402090721713784
16.484821756707092,1.224995165832706
16.51819184123484,1.327952996190744
16.551561925762588,1.2937067280482328
16.584932010290334,1.1161698620357383
16.61830209481808,0.8423631030573773
16.65167217934583,0.5503908033482424
16.685042263873576,0.31347151313525035
16.718412348401323,0.1683474472691352
16.75178243292907,0.10285600338368919
16.78515251745682,0.06673915653271945
16.818522601984565,-0.0017960148821883754
16.85189268651231,-0.14770629755697878
16.885262771040058,-0.3817031116720453
16.918632855567807,-0.6794867489924004
16.952002940095554,-0.9946521993917753
16.9853730246233,-1.276543620052636
17.018743109151046,-1.4839411391429904
17.052113193678796,-1.5899386981719095
17.085483278206542,-1.5796908915691665
17.11885336273429,-1.4469386768855244
17.15222344726204,-1.1947783347118215
17.185593531789785,-0.8414291957591689
17.21896361631753,-0.42609053014073994
17.252333700845277,-0.007525409523923164
17.285703785373027,0.3489538323462583
17.319073869900773,0.5932177606947475
17.35244395442852,0.7108997170716193
17.385814038956266,0.7310226238413264
