Time (s),Filtered Signal
0.0,0.002556750108336625
0.033370535714285714,0.3205270588988988
0.06674107142857143,0.5396161737456783
0.10011160714285713,0.576344118283542
0.13348214285714285,0.3788373982022666
0.16685267857142858,-0.05693272240099599
0.20022321428571427,-0.6778486158569144
0.23359375,-1.3789171877612691
0.2669642857142857,-2.0264396752072473
0.30033482142857143,-2.49424390694962
0.33370535714285715,-2.7006063690374584
0.36707589285714287,-2.6312729892585773
0.40044642857142854,-2.33897518987959
0.43381696428571426,-1.9198196816667759
0.4671875,-1.476873322546248
0.5005580357142857,-1.0862272638936763
0.5339285714285714,-0.7786030863962111
0.5672991071428571,-0.5416243996619567
0.6006696428571429,-0.33835366619019885
0.6340401785714286,-0.13119229674193267
0.6674107142857143,0.10040939906797101
0.70078125,0.355024628403347
0.7341517857142857,0.6161742105561132
0.7675223214285715,0.864269773895606
0.8008928571428571,1.0854917736087277
0.8342633928571428,1.2731234691996332
0.8676339285714285,1.4226594438298754
0.9010044642857142,1.5261629158229697
0.934375,1.5713189987498895
0.9677455357142857,1.5467736026303034
1.0011160714285714,1.4505267394188548
1.0344866071428571,1.2956753584040814
1.0678571428571428,1.1091901312509935
1.1012276785714286,0.9235467059460402
1.1345982142857143,0.7651618678948822
1.16796875,0.6452430282455542
1.2013392857142857,0.5571335413103053
1.2347098214285714,0.4807447896188512
1.2680803571428572,0.3913703775933696
1.3014508928571429,0.26880155205130263
1.3348214285714286,0.10355504302718911
1.3681919642857143,-0.10084826882765098
1.4015625,-0.32882200660021216
1.4349330357142858,-0.5556732465964253
1.4683035714285715,-0.7520531464352274
1.5016741071428572,-0.8900762233031522
1.535044642857143,-0.9509697719579844
1.5684151785714286,-0.9326444485152484
1.6017857142857141,-0.8539457658784956
1.6351562499999999,-0.7520608139360258
1.6685267857142856,-0.6715858251070596
1.7018973214285713,-0.647701870184894
1.735267857142857,-0.6898849389327861
1.7686383928571427,-0.7741052300481415
1.8020089285714285,-0.8489267042537455
1.8353794642857142,-0.8548430948133726
1.86875,-0.749428285675728
1.9021205357142856,-0.5271706019628026
1.9354910714285714,-0.22456260989843826
1.968861607142857,0.09244740039469361
2.002232142857143,0.35341947511868343
2.0356026785714287,0.5099225654062576
2.0689732142857142,0.5521505215156924
2.10234375,0.5088714607086486
2.1357142857142857,0.43144038568754584
2.169084821428571,0.3695493859500402
2.202455357142857,0.34975194408882165
2.2358258928571426,0.3662075326586926
2.2691964285714286,0.3873209551134259
2.302566964285714,0.3745847099331112
2.3359375,0.3043189121970662
2.3693080357142855,0.18176636549844158
2.4026785714285714,0.040742552969968766
2.436049107142857,-0.07103540598035596
2.469419642857143,-0.11402601760057575
2.5027901785714284,-0.07593536990550565
2.5361607142857143,0.021307150991762776
2.56953125,0.1302875496980179
2.6029017857142858,0.1989776006597856
2.6362723214285713,0.19438851324058237
2.669642857142857,0.11799654257756889
2.7030133928571427,0.00538175636712784
2.7363839285714286,-0.09022033417160655
2.769754464285714,-0.12299775955349562
2.803125,-0.07640447804782816
2.8364955357142856,0.028786185218241438
2.8698660714285715,0.1442112674433998
2.903236607142857,0.21683219715195917
2.936607142857143,0.21407899922703694
2.9699776785714285,0.13926450099418147
3.0033482142857144,0.030054599037969722
3.03671875,-0.0591313837477229
3.070089285714286,-0.08242574467747374
3.1034598214285714,-0.023776040773989014
3.1368303571428573,0.09542504842097022
3.170200892857143,0.22547515939515397
3.2035714285714283,0.30979194619671346
3.2369419642857142,0.30891452289632404
3.2703124999999997,0.21663560203421037
3.3036830357142857,0.061650944574123664
3.337053571428571,-0.10543321111016302
3.370424107142857,-0.2336503437769023
3.4037946428571426,-0.2922280805108883
3.4371651785714286,-0.2812812311935674
3.470535714285714,-0.22834993845843865
3.50390625,-0.17303966053115438
3.5372767857142855,-0.14761651797315353
3.5706473214285714,-0.1632912157267527
3.604017857142857,-0.20889895080472445
3.637388392857143,-0.2620193168544808
3.6707589285714284,-0.3056553266011728
3.7041294642857143,-0.3402334530152384
3.7375,-0.3830235272621303
3.7708705357142858,-0.4541656711716449
3.8042410714285713,-0.5566465993076853
3.837611607142857,-0.662261031303366
3.8709821428571427,-0.7138798995910902
3.9043526785714286,-0.6465367534634194
3.937723214285714,-0.41956858120092444
3.97109375,-0.04461434999929437
4.004464285714286,0.40598524589891566
4.0378348214285715,0.8179742331829373
4.0712053571428575,1.0760070987030586
4.1045758928571425,1.1098981310313132
4.1379464285714285,0.9254493451082395
4.171316964285714,0.6046957949890998
4.2046875,0.27381974625762373
4.238058035714285,0.05196217389926001
4.271428571428571,0.0034564491821071686
4.304799107142857,0.11485314019237189
4.338169642857142,0.3067097336785938
4.371540178571428,0.4738210331847069
4.404910714285714,0.5343149553722834
4.43828125,0.4643855737174777
4.471651785714285,0.3031252713230453
4.505022321428571,0.1269656481764426
4.538392857142857,0.008004195509135335
4.571763392857143,-0.02236162707436803
4.605133928571428,0.01313952163007372
4.638504464285714,0.05240502420830323
4.671875,0.027777133422416885
4.705245535714286,-0.0990824852148453
4.738616071428571,-0.3184816625946319
4.771986607142857,-0.5779528003765344
4.805357142857143,-0.8067683916635523
4.838727678571429,-0.946122358447731
4.872098214285714,-0.9702777168412472
4.90546875,-0.8903077373974377
4.938839285714286,-0.7416794759102358
4.972209821428572,-0.5645790021601595
5.005580357142857,-0.38798213675246673
5.038950892857143,-0.2246634772621407
5.072321428571429,-0.07720481272970804
5.105691964285715,0.05135872088082773
5.1390625,0.15087371921791612
5.172433035714286,0.20691539818278587
5.2058035714285715,0.21203033554304507
5.2391741071428575,0.17800001051369074
5.2725446428571425,0.13983103802100355
5.3059151785714285,0.14614486554552605
5.339285714285714,0.23847946330287423
5.3726562499999995,0.42917759694615265
5.406026785714285,0.689637132134639
5.439397321428571,0.9562271026341093
5.472767857142857,1.1524424995800924
5.506138392857142,1.2176226756862023
5.539508928571428,1.1291817028105888
5.572879464285714,0.9084471171305766
5.60625,0.608123981905335
5.639620535714285,0.28807648569402433
5.672991071428571,-0.008642846691011572
5.706361607142857,-0.2681939965888894
5.739732142857143,-0.5015144251401447
5.773102678571428,-0.7263455687612144
5.806473214285714,-0.945965083250569
5.83984375,-1.1367583864915376
5.873214285714286,-1.2524526743130353
5.906584821428571,-1.2441954616219455
5.939955357142857,-1.0869337870481168
5.973325892857143,-0.7983900539432537
6.006696428571429,-0.4398622302376626
6.040066964285714,-0.09685831293007284
6.0734375,0.1523329660263543
6.106808035714286,0.26595402599540474
6.140178571428572,0.25280899211655705
6.173549107142857,0.16520742125537305
6.206919642857143,0.07479489331169431
6.240290178571429,0.042623727667959216
6.273660714285715,0.09650178441184387
6.30703125,0.22429712581250102
6.340401785714286,0.38400093691722176
6.3737723214285715,0.5239734232367083
6.407142857142857,0.6033612688806013
6.4405133928571425,0.6043540624332346
6.4738839285714285,0.533198079575963
6.507254464285714,0.41251523395295164
6.5406249999999995,0.27057007400059285
6.573995535714285,0.1326579013752786
6.607366071428571,0.016907352985990918
6.640736607142857,-0.0662331308994026
6.674107142857142,-0.11295359175704046
6.707477678571428,-0.1251118829718508
6.740848214285714,-0.10958457734525456
6.77421875,-0.07723681337787633
6.807589285714285,-0.040882963620294324
6.840959821428571,-0.01240751575686568
6.874330357142857,7.716881697357106e-06
6.907700892857143,-0.006581821214143649
6.941071428571428,-0.030213999990163932
6.974441964285714,-0.06595155032432627
7.0078125,-0.10835537339938817
7.041183035714286,-0.15317232834194833
7.074553571428571,-0.19735564635777644
7.107924107142857,-0.23751639285213344
7.141294642857143,-0.267915626168204
7.174665178571429,-0.27956889051613815
7.208035714285714,-0.26163525828388295
7.24140625,-0.20516064399797188
7.274776785714286,-0.10797441719449542
7.308147321428572,0.021299346114494442
7.341517857142857,0.16218582282921384
7.374888392857143,0.28551769384865106
7.408258928571429,0.36065660110101905
7.441629464285715,0.36503028505728047
7.475,0.2929637634839233
7.508370535714286,0.16035716956122714
7.5417410714285715,0.0025721966394796664
7.575111607142857,-0.1350434475482098
7.6084821428571425,-0.21174644220963618
7.6418526785714285,-0.20629602499302557
7.675223214285714,-0.12626491255957972
7.7085937499999995,-0.007148341935268413
7.741964285714285,0.09970538143145831
7.775334821428571,0.14655965756200956
7.808705357142857,0.10862248378343407
7.842075892857142,-0.0049822687893989635
7.875446428571428,-0.15377446597420255
7.908816964285714,-0.28151083449004016
7.9421875,-0.3385895994042588
7.975558035714285,-0.30193595560776815
8.008928571428571,-0.1840321684541636
8.042299107142856,-0.02743723411382994
8.075669642857143,0.11263208362147704
8.109040178571428,0.19015300706813862
8.142410714285715,0.18556420089809017
8.17578125,0.11177523127583991
8.209151785714285,0.007167713872425461
8.242522321428572,-0.08084723695896952
8.275892857142857,-0.11458915987246285
8.309263392857142,-0.07961694847886401
8.342633928571429,0.01182560485321885
8.376004464285714,0.12763659415919584
8.409375,0.22897478406724528
8.442745535714286,0.2838652306932265
8.47611607142857,0.2765228758222111
8.509486607142858,0.2103876795664295
8.542857142857143,0.10553368713059098
8.576227678571428,-0.007546869557922859
8.609598214285715,-0.09581673079693012
8.64296875,-0.13185041482549348
8.676339285714285,-0.10120702684353698
8.709709821428572,-0.007699451038235253
8.743080357142857,0.12517313492126575
8.776450892857143,0.25822386396294617
8.809821428571428,0.3463891764735341
8.843191964285714,0.35252823715570336
8.8765625,0.2610177813361104
8.909933035714285,0.08573530611738284
8.94330357142857,-0.13188775305413275
8.976674107142857,-0.33551107976857636
9.010044642857142,-0.4732649475551821
9.04341517857143,-0.5162940920944631
9.076785714285714,-0.4685258474850738
9.11015625,-0.36317905925614946
9.143526785714286,-0.24737271055040821
9.176897321428571,-0.1616262102246741
9.210267857142856,-0.12337967504170143
9.243638392857143,-0.1217238298742258
9.277008928571428,-0.12524242431823368
9.310379464285715,-0.09878993683355745
9.34375,-0.021066090036339642
9.377120535714285,0.10514009599953365
9.410491071428572,0.25428146259164236
9.443861607142857,0.3894691255202934
9.477232142857142,0.47783469460803707
9.510602678571429,0.5024423318664971
9.543973214285714,0.4658868635367979
9.57734375,0.3853339573530758
9.610714285714286,0.2827858572747297
9.64408482142857,0.17581610847973486
9.677455357142858,0.07270212841683055
9.710825892857143,-0.026878459055416522
9.744196428571428,-0.12694998326004842
9.777566964285715,-0.22884977067118298
9.8109375,-0.32624446822535447
9.844308035714285,-0.40387722501459133
9.877678571428572,-0.44121503329244194
9.911049107142857,-0.4203659444266836
9.944419642857143,-0.33546778634296703
9.977790178571428,-0.19920354098071202
10.011160714285714,-0.04244018425172158
10.04453125,0.09431011108213878
10.077901785714285,0.17490457442163593
10.11127232142857,0.18122495528098173
10.144642857142857,0.12027167397147583
10.178013392857142,0.021263139440436472
10.21138392857143,-0.07616115392843077
10.244754464285714,-0.13749509673381982
10.278125,-0.14592791302313773
10.311495535714286,-0.10669234373778849
10.344866071428571,-0.041858491526326445
10.378236607142856,0.021419598273051198
10.411607142857143,0.06344579408949
10.444977678571428,0.07962063486523314
10.478348214285715,0.08017503221473772
10.51171875,0.08287026762129698
10.545089285714285,0.10270700351564407
10.578459821428572,0.1437503778092463
10.611830357142857,0.1968057878757457
10.645200892857142,0.24367301575760858
10.678571428571429,0.2655666694049882
10.711941964285714,0.25150196261767643
10.745312499999999,0.20277345200514646
10.778683035714286,0.13180125675858664
10.81205357142857,0.05641075851461293
10.845424107142858,-0.007362424813432275
10.878794642857143,-0.050506911611034155
10.912165178571428,-0.0722142080230837
10.945535714285715,-0.07710741818644228
10.97890625,-0.07054884132445569
11.012276785714285,-0.05483541939875575
11.045647321428572,-0.02847962144756597
11.079017857142857,0.010880152217824854
11.112388392857143,0.06137229003466185
11.145758928571428,0.11247954077981545
11.179129464285714,0.14442467798891384
11.2125,0.13308763520767722
11.245870535714285,0.0595839929104225
11.27924107142857,-0.07912050784852818
11.312611607142857,-0.2636550187416289
11.345982142857142,-0.4539608430762182
11.37935267857143,-0.6002463350979432
11.412723214285714,-0.6598081918030801
11.44609375,-0.6130252514795396
11.479464285714286,-0.4714239687874535
11.512834821428571,-0.2738006002605543
11.546205357142856,-0.0716893093128189
11.579575892857143,0.08961086899045684
11.612946428571428,0.18623158084597363
11.646316964285715,0.22089460588928592
11.6796875,0.21666836067470757
11.713058035714285,0.20324973896395784
11.746428571428572,0.20276134716876706
11.779799107142857,0.22152139460044082
11.813169642857142,0.25067171098170365
11.846540178571429,0.2739992737809973
11.879910714285714,0.2781215629715218
11.913281249999999,0.25980922110035887
11.946651785714286,0.2273781212252914
11.98002232142857,0.19633084093847739
12.013392857142858,0.18201291176034257
12.046763392857143,0.19287587521359592
12.080133928571428,0.22698123464274453
12.113504464285715,0.2724742467730034
12.146875,0.3110250937221999
12.180245535714285,0.3224856627325124
12.213616071428572,0.28938009527835795
12.246986607142857,0.20078770030343066
12.280357142857143,0.05579606266342536
12.313727678571428,-0.13363489570926354
12.347098214285714,-0.3416754241809122
12.38046875,-0.531615693199884
12.413839285714285,-0.6642586135452193
12.44720982142857,-0.7104960735780488
12.480580357142857,-0.6634967667680818
12.513950892857142,-0.5441977082767909
12.54732142857143,-0.39555081085503063
12.580691964285714,-0.2660844815759289
12.6140625,-0.18930834486808829
12.647433035714286,-0.16879439400550067
12.680803571428571,-0.17701524257247805
12.714174107142856,-0.16958042046248425
12.747544642857143,-0.10855823331965743
12.780915178571428,0.016592148390753642
12.814285714285713,0.18131709782702857
12.84765625,0.33594252642472805
12.881026785714285,0.4288169651099319
12.914397321428572,0.4312640048857335
12.947767857142857,0.35189571734792824
12.981138392857142,0.2331434450836337
13.014508928571429,0.1317964657324306
13.047879464285714,0.09324424983858322
13.081249999999999,0.1319548008623073
13.114620535714286,0.22718224790532476
13.14799107142857,0.3350095770032107
13.181361607142858,0.40980497586570513
13.214732142857143,0.42411844838170487
13.248102678571428,0.37780602819807635
13.281473214285715,0.29339635565547495
13.31484375,0.20178952386520987
13.348214285714285,0.12657085359779538
13.381584821428572,0.07474215665197279
13.414955357142857,0.03738916294689076
13.448325892857143,-0.0016064934964283397
13.481696428571428,-0.054425108750994
13.515066964285714,-0.12185556298531397
13.5484375,-0.19316671069482438
13.581808035714285,-0.25298880567413506
13.61517857142857,-0.2913639367057586
13.648549107142857,-0.3114884055834722
13.681919642857142,-0.33055244862200783
13.71529017857143,-0.37217894812201374
13.748660714285714,-0.4531095450328693
13.78203125,-0.5702222253073782
13.815401785714286,-0.6949055133637447
13.848772321428571,-0.7793086967435779
13.882142857142856,-0.7736589453527241
13.915513392857143,-0.6479703048487628
13.948883928571428,-0.4081345593124381
13.982254464285713,-0.09784125889784615
14.015625,0.21602123442715607
14.048995535714285,0.46866158501048044
14.082366071428572,0.6217440428571424
14.115736607142857,0.675182242415774
14.149107142857142,0.6609386950912494
14.182477678571429,0.6225858566937552
14.215848214285714,0.5915411585108454
14.249218749999999,0.5721421823055778
14.282589285714286,0.5425878116501921
14.31595982142857,0.4702768589624758
14.349330357142858,0.33289223972773757
14.382700892857143,0.1343078736780282
14.416071428571428,-0.092280916717428
14.449441964285715,-0.29497070809151915
14.4828125,-0.4221905878648847
14.516183035714285,-0.4418108001430131
14.549553571428572,-0.35291829715327905
14.582924107142857,-0.1865253933078476
14.616294642857143,0.004280806398312025
14.649665178571428,0.1610542135163811
14.683035714285714,0.23828049798546277
14.71640625,0.2177377647825104
14.749776785714285,0.11435225024694418
14.78314732142857,-0.028899655981417558
14.816517857142857,-0.15617868557598674
14.849888392857142,-0.21936263741192294
14.88325892857143,-0.19646953490018276
14.916629464285714,-0.10023510963017973
14.95,0.02741522355766418
14.983370535714286,0.13321798050365638
15.016741071428571,0.17505332906488352
15.050111607142856,0.13881864339732944
15.083482142857143,0.04203182402662187
15.116852678571428,-0.07687358076133374
15.150223214285713,-0.17744663494633225
15.18359375,-0.2344548772568265
15.216964285714285,-0.24525741182079547
15.250334821428572,-0.22502199819646915
15.283705357142857,-0.19413590944180764
15.317075892857142,-0.16580384720930397
15.350446428571429,-0.14068756162090515
15.383816964285714,-0.11058399029976701
15.417187499999999,-0.06764435144338012
15.450558035714286,-0.012684941483340872
15.48392857142857,0.04279582705078026
15.517299107142858,0.08210615055511832
15.550669642857143,0.0928735663951182
15.584040178571428,0.07462650554870719
15.617410714285715,0.039626587034182884
15.65078125,0.006196748650808463
15.684151785714285,-0.01159121759962186
15.717522321428572,-0.0115827863138955
15.750892857142857,-0.003610578307715262
15.784263392857143,-0.001517360536564585
15.817633928571428,-0.011790969156938514
15.851004464285714,-0.026071453378696936
15.884375,-0.023056510091215187
15.917745535714285,0.020040288223656673
15.95111607142857,0.11232845162899999
15.984486607142857,0.23922809253750832
16.017857142857142,0.36438334156053526
16.05122767857143,0.4439954181483352
16.084598214285712,0.44701791503429433
16.11796875,0.3708885192034251
16.151339285714286,0.2442480255474689
16.18470982142857,0.11456399333491382
16.218080357142856,0.026297880798645604
16.251450892857143,0.00018582908686647
16.28482142857143,0.02383541419644463
16.318191964285713,0.058379646257358246
16.3515625,0.05808233403698578
16.384933035714287,-0.0065862866427999
16.41830357142857,-0.1336319025256308
16.451674107142857,-0.28942422543023344
16.485044642857144,-0.4237871331363568
16.518415178571427,-0.49288813088139155
16.551785714285714,-0.47887892353793116
16.58515625,-0.3971077558800525
16.618526785714284,-0.28801445599614406
16.65189732142857,-0.19820340993488797
16.685267857142858,-0.15994762414631702
16.71863839285714,-0.17839695412552456
16.752008928571428,-0.23151058731480445
16.785379464285715,-0.281686000535065
16.81875,-0.293147932024443
16.852120535714285,-0.2473138873826325
16.88549107142857,-0.1498704230240284
16.91886160714286,-0.02713867817558733
16.95223214285714,0.08620804009806178
16.98560267857143,0.1625683111191166
17.018973214285715,0.1932924495694846
17.05234375,0.19187330028736407
17.085714285714285,0.18704668709232802
17.119084821428572,0.208873498385898
17.152455357142856,0.27410544655564173
17.185825892857142,0.37753598440356817
17.21919642857143,0.49330663901015975
17.252566964285712,0.5855555375861512
17.2859375,0.6235818526834409
17.319308035714286,0.5948197238407986
17.35267857142857,0.5100819002193022
17.386049107142856,0.3990119540196939
17.419419642857143,0.29783170051141
17.45279017857143,0.23455037721867658
17.486160714285713,0.21764548440928344
17.51953125,0.23259644283359748
17.552901785714287,0.24731515234056323
17.58627232142857,0.22395616795663478
17.619642857142857,0.1323573548918884
17.653013392857144,-0.03969736638383779
