Time (s),Filtered Signal
0.0,0.04761065770159856
0.03337008452774715,0.19584459958641617
0.0667401690554943,0.24676263256374856
0.10011025358324147,0.142836206382142
0.1334803381109886,-0.11112447991999892
0.16685042263873576,-0.45013798670316135
0.20022050716648293,-0.775503084512021
0.23359059169423008,-0.9944599199117856
0.2669606762219772,-1.0565156367561002
0.30033076074972437,-0.9713404619115867
0.3337008452774715,-0.8009852189589647
0.36707092980521866,-0.6301298857859399
0.40044101433296586,-0.5274736156211146
0.433811098860713,-0.5151629739108674
0.46718118338846015,-0.5596285302775521
0.5005512679162073,-0.5877728523978982
0.5339213524439544,-0.5211547423566143
0.5672914369717016,-0.31270217591593474
0.6006615214994487,0.030566222935925855
0.6340316060271959,0.4486196258717995
0.667401690554943,0.8517718875024299
0.7007717750826902,1.1545088712184775
0.7341418596104373,1.3039610633557361
0.7675119441381845,1.2912882500405196
0.8008820286659317,1.1438323635899013
0.8342521131936789,0.9055021315832424
0.867622197721426,0.6173730177700409
0.9009922822491732,0.3080403105637431
0.9343623667769203,-0.004007017381857063
0.9677324513046675,-0.30122175980434795
1.0011025358324146,-0.5597395661311303
1.0344726203601617,-0.7505592283889144
1.0678427048879089,-0.8495926165883996
1.101212789415656,-0.8507423731018284
1.1345828739434032,-0.7733957327339158
1.1679529584711503,-0.6580806408652985
1.2013230429988975,-0.550310534651607
1.2346931275266446,-0.4794873634391218
1.2680632120543918,-0.4433794594682066
1.301433296582139,-0.4069519296219366
1.334803381109886,-0.31778653421809844
1.3681734656376332,-0.13213646575876353
1.4015435501653803,0.16004297542620233
1.4349136346931275,0.5230006778265972
1.4682837192208746,0.8825197628293828
1.5016538037486218,1.1506250450453026
1.535023888276369,1.257944474424079
1.568393972804116,1.1805473517688223
1.6017640573318634,0.9501830702875784
1.6351341418596106,0.6434684318356139
1.6685042263873577,0.3539660385738619
1.7018743109151049,0.15793218112955432
1.735244395442852,0.0871156888628911
1.7686144799705992,0.11930815123725642
1.8019845644983463,0.19035432903493088
1.8353546490260935,0.2226986343444221
1.8687247335538406,0.15867697820460153
1.9020948180815878,-0.015444466981997798
1.935464902609335,-0.26500800851793593
1.968834987137082,-0.5239896618179842
2.002205071664829,-0.725660108154893
2.0355751561925763,-0.8324248689439859
2.0689452407203235,-0.8504841675190461
2.1023153252480706,-0.8222624966562044
2.1356854097758178,-0.8007575776277103
2.169055494303565,-0.8192964150175537
2.202425578831312,-0.872592179425639
2.235795663359059,-0.9190505936864339
2.2691657478868064,-0.9030991763166772
2.3025358324145535,-0.7858132495307782
2.3359059169423007,-0.5677401321579864
2.369276001470048,-0.2917589456706419
2.402646085997795,-0.023990165023475767
2.436016170525542,0.17797466703354506
2.4693862550532892,0.2935727783089687
2.5027563395810364,0.3498141662326037
2.5361264241087835,0.40781930816575596
2.5694965086365307,0.5310756813196522
2.602866593164278,0.7502844437774435
2.636236677692025,1.0417385694991201
2.669606762219772,1.3301825697366636
2.7029768467475193,1.5159169084387645
2.7363469312752664,1.5147981869826221
2.7697170158030135,1.29390878745864
2.8030871003307607,0.887652723717589
2.836457184858508,0.3877578100539147
2.869827269386255,-0.08812308208698336
2.903197353914002,-0.43601651792430834
2.9365674384417493,-0.5979943851931555
2.9699375229694964,-0.5761611132581783
3.0033076074972436,-0.4252901778282473
3.0366776920249907,-0.229230380772564
3.070047776552738,-0.0710681483221861
3.103417861080485,-0.007511775583022169
3.136787945608232,-0.05487174010902071
3.1701580301359793,-0.18925070701148922
3.203528114663727,-0.35902606321117353
3.236898199191474,-0.5045665749796978
3.270268283719221,-0.5786947481731094
3.3036383682469683,-0.5615870310981661
3.3370084527747155,-0.4655130091462252
3.3703785373024626,-0.3279614001049562
3.4037486218302098,-0.19571993251168843
3.437118706357957,-0.10603378667775497
3.470488790885704,-0.07239323987491483
3.503858875413451,-0.08079707052887093
3.5372289599411983,-0.09797172614131423
3.5705990444689455,-0.08785023968746958
3.6039691289966926,-0.0289656491805045
3.63733921352444,0.07501054364510393
3.670709298052187,0.19626743980038525
3.704079382579934,0.2947780683900356
3.7374494671076812,0.3354430192114606
3.7708195516354284,0.30234948117333393
3.8041896361631755,0.2036438136966722
3.8375597206909227,0.06544248699218486
3.87092980521867,-0.08108060083570728
3.904299889746417,-0.21196599404063754
3.937669974274164,-0.3156850026407503
3.9710400588019112,-0.38972747718953205
4.004410143329658,-0.4325826164896758
4.0377802278574055,-0.43784914287504506
4.071150312385153,-0.39529141374918897
4.1045203969129,-0.2984826553560582
4.137890481440647,-0.15379317068182505
4.171260565968394,0.015863458296717838
4.204630650496141,0.17612513032657803
4.238000735023888,0.29342183291834045
4.2713708195516356,0.3484103359612202
4.304740904079383,0.34388743565443974
4.33811098860713,0.30336357143536125
4.371481073134877,0.2611211203114645
4.404851157662624,0.24839816900490128
4.438221242190371,0.2816271188579829
4.471591326718118,0.3572509038138743
4.504961411245866,0.4545754242011729
4.538331495773613,0.5448523297041605
4.57170158030136,0.602551148051818
4.605071664829107,0.6142646794590534
4.638441749356854,0.5819508725853221
4.671811833884601,0.5196790221555007
4.7051819184123485,0.4457090712068679
4.738552002940096,0.3735340222736961
4.771922087467843,0.3057905229365231
4.80529217199559,0.23364205581131756
4.838662256523337,0.14187473700111453
4.872032341051084,0.01739521262525548
4.905402425578831,-0.14288810815236466
4.9387725101065785,-0.32879851009037503
4.972142594634326,-0.5201835850227552
5.005512679162073,-0.6953177331168859
5.03888276368982,-0.8399022978276394
5.072252848217567,-0.9513414057391668
5.105622932745314,-1.0353759548856032
5.138993017273061,-1.096827539027702
5.1723631018008085,-1.1304401076911086
5.205733186328556,-1.1186598428992565
5.239103270856303,-1.0394993966228057
5.27247335538405,-0.8811678154160519
5.305843439911797,-0.654881552349
5.339213524439544,-0.39695269465964317
5.372583608967291,-0.15678195640959736
5.4059536934950385,0.024186278956904034
5.439323778022786,0.1314058476304736
5.472693862550533,0.18333820199981593
5.50606394707828,0.2210133299381365
5.539434031606027,0.28672366674021
5.572804116133774,0.4035168152658509
5.606174200661521,0.5661790603665924
5.6395442851892685,0.747364743982121
5.672914369717016,0.9139172198467418
5.706284454244763,1.043303135428354
5.73965453877251,1.1310368959699508
5.773024623300257,1.1859287561709622
5.806394707828004,1.2172224603749737
5.839764792355751,1.2221456762896543
5.873134876883499,1.1818714040413356
5.906504961411246,1.0689476626544439
5.939875045938993,0.8626910538490408
5.97324513046674,0.5643631009505449
6.006615214994487,0.20365092625093872
6.039985299522234,-0.1677067358716288
6.073355384049981,-0.4926204207101949
6.106725468577729,-0.7277616529442911
6.140095553105476,-0.8561307586760852
6.173465637633223,-0.8879949226408397
6.20683572216097,-0.8515097052957807
6.240205806688717,-0.7793928740436715
6.273575891216464,-0.6988240682801742
6.3069459757442115,-0.6282123293523699
6.340316060271959,-0.5793176547827465
6.373686144799706,-0.5600250407869827
6.407056229327454,-0.573838262866776
6.440426313855201,-0.6159693076559907
6.473796398382948,-0.6697144449753211
6.507166482910695,-0.7077211920004434
6.540536567438442,-0.700005512991853
6.5739066519661895,-0.6259900824607643
6.607276736493937,-0.4844734662090379
6.640646821021684,-0.29561665876706417
6.674016905549431,-0.09287754468303988
6.707386990077178,0.09176184616596902
6.740757074604925,0.24201252673071774
6.774127159132672,0.3635164586874566
6.8074972436604195,0.47848552647529013
6.840867328188167,0.6109898061485599
6.874237412715914,0.7701038917150499
6.907607497243661,0.9396247185150505
6.940977581771408,1.0802308150632443
6.974347666299155,1.1440028748877664
7.007717750826902,1.0950360963863848
7.0410878353546495,0.9265705734373552
7.074457919882397,0.6664064998271914
7.107828004410144,0.3677686005409395
7.141198088937891,0.08958516518591982
7.174568173465638,-0.12497245397049826
7.207938257993385,-0.2621921161487352
7.241308342521132,-0.3380665918686982
7.27467842704888,-0.38575352655601725
7.308048511576627,-0.43680064058220713
7.341418596104374,-0.5052909866924209
7.374788680632121,-0.5822275368656603
7.408158765159868,-0.642231044865955
7.441528849687615,-0.658617811554328
7.4748989342153624,-0.6190334308373174
7.50826901874311,-0.5337668193042782
7.541639103270857,-0.4325223404396494
7.575009187798604,-0.3509922559608622
7.608379272326351,-0.3134639744589254
7.641749356854098,-0.31967905247683626
7.675119441381845,-0.3423066114710879
7.7084895259095925,-0.336537068604918
7.74185961043734,-0.2577462133131325
7.775229694965087,-0.07963979848466594
7.808599779492834,0.19453910376016062
7.841969864020581,0.5315831909159849
7.875339948548328,0.8776548345868364
7.908710033076075,1.1727800598619287
7.9420801176038225,1.3650736241583
7.97545020213157,1.4208953242405247
8.008820286659317,1.329704597859836
8.042190371187063,1.104298981155282
8.075560455714811,0.7776572160336591
8.108930540242557,0.39710455128768785
8.142300624770305,0.015980432424329585
8.175670709298052,-0.31668543524381926
8.2090407938258,-0.5666973826935267
8.242410878353546,-0.7222635248535713
8.275780962881294,-0.7953206651489787
8.30915104740904,-0.8151565807674905
8.342521131936788,-0.8161143521181923
8.375891216464534,-0.8241121651892566
8.409261300992283,-0.8475603030462177
8.442631385520029,-0.8763251670087167
8.476001470047777,-0.8886356646326297
8.509371554575523,-0.8622566127402561
8.542741639103271,-0.7846841101190625
8.57611172363102,-0.6581513577002804
8.609481808158765,-0.49804964471119884
8.642851892686513,-0.32634919205986096
8.67622197721426,-0.1633224535692087
8.709592061742008,-0.020839383606467858
8.742962146269754,0.10075436561821506
8.776332230797502,0.21167571451099307
8.809702315325248,0.32824770134700426
8.843072399852996,0.4661775534087509
8.876442484380743,0.6333094903698592
8.90981256890849,0.8240592622604934
8.943182653436237,1.0177716444974942
8.976552737963985,1.1823420145723411
9.009922822491731,1.282587761545714
9.04329290701948,1.2907525715346448
9.076662991547225,1.1952849548202715
9.110033076074973,1.004489172667231
9.14340316060272,0.7437776353114222
9.176773245130468,0.4480334535214578
9.210143329658214,0.1524993282391826
9.243513414185962,-0.1144005288922276
9.276883498713708,-0.3346112301362843
9.310253583241456,-0.5007438002521398
9.343623667769203,-0.6144978482763221
9.37699375229695,-0.6841961264477865
9.410363836824697,-0.7215303847365784
9.443733921352445,-0.7374492572377186
9.477104005880191,-0.7379857656698566
9.51047409040794,-0.7218393169389562
9.543844174935685,-0.6814577482787499
9.577214259463434,-0.6078179080025478
9.61058434399118,-0.49696723244508456
9.643954428518928,-0.35514375836073236
9.677324513046674,-0.19984488970215583
9.710694597574422,-0.056233095602065845
9.744064682102168,0.04952686596687575
9.777434766629916,0.09728629012489885
9.810804851157663,0.0779805717166566
9.84417493568541,-0.0041860385619744145
9.877545020213157,-0.13206459276948646
9.910915104740905,-0.27755108607508067
9.944285189268651,-0.40483914360167206
9.9776552737964,-0.47528496509263485
10.011025358324146,-0.4544443711045685
10.044395442851894,-0.32099786694065463
10.07776552737964,-0.07563974894948537
10.111135611907388,0.2534504497522202
10.144505696435134,0.6120860630136326
10.177875780962882,0.9303082986261937
10.211245865490628,1.1399525549617662
10.244615950018376,1.1945908246551076
10.277986034546123,1.0847114744694957
10.31135611907387,0.8415929140411118
10.344726203601617,0.5271347898339341
10.378096288129365,0.21275962458096873
10.411466372657111,-0.04424980606030384
10.44483645718486,-0.21690328619370544
10.478206541712606,-0.3103947227876154
10.511576626240354,-0.35007642776647163
10.5449467107681,-0.36299780853497277
10.578316795295848,-0.3634956871360128
10.611686879823594,-0.35024967716246524
10.645056964351342,-0.3148374739826749
10.678427048879088,-0.2547243825826686
10.711797133406836,-0.18127249081721947
10.745167217934583,-0.11713300885758804
10.77853730246233,-0.0846402312428461
10.811907386990077,-0.09272171135952191
10.845277471517825,-0.13064513022181262
10.878647556045571,-0.172411758784364
10.91201764057332,-0.18898670406088147
10.945387725101066,-0.16115334600200076
10.978757809628814,-0.08617024867787754
11.01212789415656,0.024105345776332325
11.045497978684308,0.15065191886852874
11.078868063212054,0.2746687874053809
11.112238147739802,0.38075569206607074
11.145608232267548,0.45577380667673056
11.178978316795297,0.4867464817136658
11.212348401323043,0.46154458833482304
11.24571848585079,0.3733187683185031
11.279088570378537,0.2260032278090721
11.312458654906285,0.03663533804558863
11.345828739434031,-0.16800064674613935
11.37919882396178,-0.35909506498740074
11.412568908489526,-0.51362446208032
11.445938993017274,-0.6180847958499021
11.47930907754502,-0.6670553754228281
11.512679162072768,-0.6592269208637722
11.546049246600514,-0.5951159028589248
11.579419331128262,-0.4789614643233321
11.612789415656009,-0.3235174773874332
11.646159500183757,-0.1533580024091138
11.679529584711503,-0.0022031752847564063
11.71289966923925,0.09702879911906245
11.746269753766997,0.12601435348670922
11.779639838294745,0.09178238716868517
11.813009922822491,0.027638516978623077
11.84638000735024,-0.0184455412402491
11.879750091877986,-0.0042743073531863645
11.913120176405734,0.08644175601145054
11.94649026093348,0.2346423483866712
11.979860345461228,0.3931933857276559
12.013230429988974,0.508657028174466
12.046600514516722,0.5473055215000668
12.079970599044469,0.5119257744525608
12.113340683572217,0.4399338608979009
12.146710768099963,0.38290147325361623
12.180080852627711,0.37779827235689634
12.213450937155457,0.4253146508630586
12.246821021683205,0.4873911434376101
12.280191106210951,0.5060017081528959
12.3135611907387,0.43373231232840054
12.346931275266446,0.26012817801305876
12.380301359794194,0.019853424712382665
12.41367144432194,-0.2216828376496558
12.447041528849688,-0.3977335632723448
12.480411613377434,-0.4695663150371377
12.513781697905182,-0.44133687857936954
12.547151782432929,-0.3542558286972151
12.580521866960677,-0.2646936087190584
12.613891951488423,-0.2183810389486114
12.647262036016171,-0.2332967356785978
12.680632120543917,-0.2977389425134234
12.714002205071665,-0.38155603906339086
12.747372289599411,-0.452478536580259
12.78074237412716,-0.4887852094700412
12.814112458654908,-0.48355438591247046
12.847482543182654,-0.4413416152727777
12.880852627710402,-0.3718173681743117
12.914222712238148,-0.2850018959585166
12.947592796765896,-0.19001832551171896
12.980962881293642,-0.09606574272608645
13.01433296582139,-0.01277849208885865
13.047703050349137,0.051950062052150754
13.081073134876885,0.09613184150151785
13.114443219404631,0.12705627968947553
13.147813303932379,0.16065570080131653
13.181183388460125,0.21546249491870256
13.214553472987873,0.30291615628855845
13.24792355751562,0.41850061871754823
13.281293642043368,0.5387794970242427
13.314663726571114,0.6272145506722906
13.348033811098862,0.64756107016219
13.381403895626608,0.5795988785906524
13.414773980154356,0.43007208457408314
13.448144064682102,0.23315264536042704
13.48151414920985,0.03913992622804643
13.514884233737597,-0.1044264852142504
13.548254318265345,-0.1711630527292093
13.581624402793091,-0.1654342625176793
13.614994487320839,-0.11863408799150559
13.648364571848585,-0.07379082327150921
13.681734656376333,-0.06560378440529578
13.71510474090408,-0.10511384458659331
13.748474825431828,-0.17591539388927202
13.781844909959574,-0.24331411805240838
13.815214994487322,-0.27182150867419097
13.848585079015068,-0.24269943481135228
13.881955163542816,-0.1635591961596346
13.915325248070562,-0.06596729734490711
13.94869533259831,0.007432311072940445
13.982065417126057,0.02032295280132836
14.015435501653805,-0.042658038854843885
14.048805586181551,-0.1693632421585871
14.082175670709299,-0.32303095460405384
14.115545755237045,-0.4524060148942937
14.148915839764793,-0.5051690719042061
14.18228592429254,-0.4411694150231705
14.215656008820288,-0.24335109652118897
14.249026093348034,0.07481472594942881
14.282396177875782,0.4667987095894658
14.315766262403528,0.857541090153589
14.349136346931276,1.1570085981736105
14.382506431459023,1.282403422747724
14.41587651598677,1.184303554504383
14.449246600514517,0.8676987574820314
14.482616685042265,0.39770868760811884
14.515986769570011,-0.11604779786510416
14.54935685409776,-0.5536197762272669
14.582726938625505,-0.8251613059708757
14.616097023153253,-0.9007227190509104
14.649467107681,-0.8160470470295872
14.682837192208748,-0.6517285324858536
14.716207276736494,-0.4956116162607755
14.749577361264242,-0.4060291173318826
14.782947445791988,-0.3923190161578667
14.816317530319736,-0.41980200335796763
14.849687614847483,-0.43414876012414966
14.88305769937523,-0.3912764582048709
14.916427783902977,-0.27783941714078164
14.949797868430725,-0.1139168413344864
14.983167952958471,0.060452158489061485
15.01653803748622,0.20530474717306513
15.049908122013965,0.2959926016758204
15.083278206541713,0.3269740418905034
15.11664829106946,0.3054367339966248
15.150018375597208,0.24215301655365937
15.183388460124954,0.14752742628236012
15.216758544652702,0.035596371755606336
15.250128629180448,-0.06854267385667481
15.283498713708196,-0.12647428015640785
15.316868798235943,-0.09554943903292878
15.35023888276369,0.05227855211786452
15.383608967291437,0.3113804351500043
15.416979051819185,0.6350506145900724
15.450349136346931,0.9463686254742455
15.48371922087468,1.1638736050976113
15.517089305402425,1.230123014165709
15.550459389930174,1.1296008186794473
15.58382947445792,0.8885514460523793
15.617199558985668,0.5591348985104965
15.650569643513414,0.19781776340166715
15.683939728041162,-0.15095168591104338
15.717309812568908,-0.459838089360015
15.750679897096656,-0.7140541884565377
15.784049981624403,-0.9038730607434958
15.81742006615215,-1.0210132754327133
15.850790150679897,-1.0613202852927026
15.884160235207645,-1.0306918323464491
15.917530319735391,-0.9483201574829273
15.95090040426314,-0.8428258245663747
15.984270488790886,-0.7416285401265826
16.017640573318634,-0.658794520515306
16.05101065784638,-0.5884512266068808
16.084380742374126,-0.5083886636932876
16.117750826901876,-0.39297964401198904
16.151120911429622,-0.22913540291467221
16.18449099595737,-0.026774621243537775
16.217861080485115,0.18235997741777413
16.251231165012864,0.35781959098769356
16.28460124954061,0.46941164413296693
16.317971334068357,0.5124818249549118
16.351341418596103,0.5114462201069404
16.384711503123853,0.5092042900801723
16.4180815876516,0.5470738087969466
16.451451672179346,0.6445842962123101
16.484821756707092,0.7885109974630496
16.51819184123484,0.936082641714484
16.551561925762588,1.0307638911899843
16.584932010290334,1.0236316151832663
16.61830209481808,0.89148176812577
16.65167217934583,0.6448681933256479
16.685042263873576,0.32392047482813036
16.718412348401323,-0.015260148216643047
16.75178243292907,-0.3176502473782929
16.78515251745682,-0.5434790740769684
16.818522601984565,-0.6754177131375377
16.85189268651231,-0.7180677034441816
16.885262771040058,-0.691911987276919
16.918632855567807,-0.6250833150777398
16.952002940095554,-0.5457289782626437
16.9853730246233,-0.47629473664949623
17.018743109151046,-0.42987857753366043
17.052113193678796,-0.40854529270827156
17.085483278206542,-0.403889435935914
17.11885336273429,-0.40037391431911223
17.15222344726204,-0.38138881345482717
17.185593531789785,-0.33659651648434824
17.21896361631753,-0.2677130106205506
17.252333700845277,-0.18947554734180633
17.285703785373027,-0.12388671616403774
17.319073869900773,-0.08878944409547135
17.35244395442852,-0.08528698789214476
