Time (s),Filtered Signal
0.0,0.036692799954858864
0.033370165745856356,-0.019052350812111235
0.06674033149171271,-0.08394441528187462
0.10011049723756907,-0.15746525992004703
0.13348066298342542,-0.22611410116171965
0.16685082872928178,-0.26791829737060807
0.20022099447513814,-0.262844399128999
0.2335911602209945,-0.20360166012777514
0.26696132596685085,-0.10111977156381827
0.30033149171270723,0.018183398487586808
0.33370165745856356,0.12203088304634858
0.3670718232044199,0.1842120100369116
0.4004419889502763,0.19343458754212736
0.43381215469613266,0.15563557755961832
0.467182320441989,0.08960866065087515
0.5005524861878453,0.018734868211429112
0.5339226519337017,-0.03722947052832507
0.5672928176795581,-0.06719771634655589
0.6006629834254145,-0.06958152918664146
0.6340331491712707,-0.04988704599929347
0.6674033149171271,-0.01709829840168878
0.7007734806629835,0.01935373929792153
0.7341436464088398,0.051274487695252835
0.7675138121546962,0.07235247051548731
0.8008839779005525,0.07854963512856314
0.8342541436464089,0.06871461297883345
0.8676243093922653,0.04517784171102915
0.9009944751381216,0.01355830915337786
0.934364640883978,-0.01886308919500009
0.9677348066298344,-0.0460617733985134
1.0011049723756906,-0.06635091386400298
1.0344751381215471,-0.08395953215660956
1.0678453038674034,-0.10779286829056556
1.1012154696132597,-0.14726753449115454
1.1345856353591162,-0.2066512079834814
1.1679558011049724,-0.2804340811223109
1.201325966850829,-0.3522757588270568
1.2346961325966852,-0.39882588270949004
1.2680662983425415,-0.3976276421644254
1.301436464088398,-0.33626930227326784
1.3348066298342542,-0.21893940810608614
1.3681767955801105,-0.06718275406494272
1.401546961325967,0.08616264065791009
1.4349171270718233,0.207999393509649
1.4682872928176796,0.2768243009187811
1.501657458563536,0.29059016697873535
1.5350276243093923,0.26715531957493044
1.5683977900552488,0.2368664097177809
1.601767955801105,0.23014754145939276
1.6351381215469614,0.2651732960067234
1.6685082872928179,0.3406951100372769
1.7018784530386741,0.4367787470578535
1.7352486187845306,0.5226821272608642
1.768618784530387,0.5681272340346993
1.8019889502762432,0.5532518038020027
1.8353591160220997,0.4738287600621768
1.868729281767956,0.34088218816101334
1.9020994475138122,0.1760632610349107
1.9354696132596687,0.005088350902404075
1.968839779005525,-0.14872577977835014
2.0022099447513813,-0.26947499798560476
2.0355801104972375,-0.3513250380236316
2.0689502762430942,-0.3981733540222822
2.1023204419889505,-0.42024893860818735
2.135690607734807,-0.42870329354933334
2.169060773480663,-0.4304365392931238
2.2024309392265193,-0.42573170097805285
2.235801104972376,-0.41011791121385555
2.2691712707182323,-0.37957807932914317
2.3025414364640886,-0.3360084772444185
2.335911602209945,-0.289187611963459
2.369281767955801,-0.25314006071250816
2.402651933701658,-0.23807076290215043
2.436022099447514,-0.24220914408569255
2.4693922651933704,-0.24891006257690426
2.5027624309392267,-0.23217094192282212
2.536132596685083,-0.16911855168254933
2.5695027624309392,-0.053416952574064744
2.602872928176796,0.09820535147183744
2.636243093922652,0.25142947715154773
2.6696132596685085,0.37067047271215275
2.7029834254143648,0.43839542012039584
2.736353591160221,0.46637591123445543
2.7697237569060777,0.4906137768097355
2.803093922651934,0.5498558079453032
2.8364640883977903,0.6573218220785932
2.8698342541436466,0.7811619934281949
2.903204419889503,0.8471941668142399
2.936574585635359,0.7674222472172677
2.969944751381216,0.484046685481274
3.003314917127072,0.008331009312450219
3.0366850828729284,-0.5668917183677776
3.0700552486187846,-1.0914575462957652
3.103425414364641,-1.4116329982240676
3.1367955801104976,-1.4307184094280496
3.170165745856354,-1.148933766659645
3.20353591160221,-0.6638234615574328
3.2369060773480665,-0.13071917810503875
3.2702762430939227,0.29863530830493834
3.3036464088397794,0.5316935689624093
3.3370165745856357,0.5613761822767472
3.370386740331492,0.454397690832942
3.4037569060773483,0.31095954732658804
3.4371270718232045,0.21701388302769092
3.4704972375690613,0.21099841796586635
3.5038674033149175,0.2773788152050684
3.537237569060774,0.36540985836918566
3.57060773480663,0.4204275555538539
3.6039779005524863,0.4114076750028817
3.6373480662983426,0.3428532778465264
3.6707182320441993,0.2480183638526848
3.7040883977900556,0.16929321254470345
3.737458563535912,0.13643178114107135
3.770828729281768,0.1527333250900256
3.8041988950276244,0.1944150080766778
3.837569060773481,0.2220157005176994
3.8709392265193374,0.1977389974357238
3.9043093922651937,0.10102083014761033
3.93767955801105,-0.06361524195751232
3.9710497237569062,-0.26852847669424246
4.0044198895027625,-0.47289535586200976
4.037790055248619,-0.636149638581945
4.071160220994475,-0.7299354725030766
4.104530386740332,-0.7449082703113543
4.1379005524861885,-0.691064357612139
4.171270718232044,-0.5925718216516883
4.204640883977901,-0.47948692126030296
4.238011049723757,-0.37903619859825444
4.271381215469614,-0.30865282337365796
4.30475138121547,-0.2722032654817274
4.338121546961326,-0.26013165467433647
4.371491712707183,-0.2535244231305894
4.404861878453039,-0.23116037291841143
4.438232044198895,-0.17751136102282605
4.471602209944752,-0.0888810262716192
4.504972375690608,0.024903708365645937
4.538342541436465,0.1442777946401718
4.5717127071823205,0.24783475865037213
4.605082872928177,0.3209394720616574
4.638453038674034,0.3612014422297432
4.67182320441989,0.37843343172850735
4.7051933701657465,0.38936740604223385
4.738563535911602,0.4097822483874381
4.771933701657459,0.44763324114901937
4.805303867403316,0.49998569028762435
4.8386740331491715,0.5546724583361573
4.872044198895028,0.595621179357704
4.905414364640884,0.6095170887060818
4.938784530386741,0.5911741300855653
4.972154696132597,0.5455724393042657
5.005524861878453,0.4857124271709756
5.03889502762431,0.42693083904294304
5.072265193370166,0.3797581429312404
5.105635359116023,0.3442942035207082
5.1390055248618784,0.3089470056983104
5.172375690607735,0.25495942717582337
5.205745856353592,0.16569507803631536
5.239116022099448,0.03703887366837911
5.272486187845304,-0.11622158959752649
5.30585635359116,-0.2623875901559398
5.339226519337017,-0.36425315071183506
5.372596685082874,-0.3962185141653566
5.4059668508287295,-0.3594983514306271
5.439337016574586,-0.28709902709146007
5.472707182320442,-0.23383320165423588
5.506077348066299,-0.2534754567855775
5.5394475138121555,-0.3722272865559655
5.572817679558011,-0.5713187692046621
5.606187845303868,-0.7893550933245814
5.639558011049724,-0.9469806564975907
5.672928176795581,-0.9855086836688175
5.706298342541437,-0.9022415682354545
5.739668508287293,-0.7632120472851263
5.77303867403315,-0.6815813464662466
5.806408839779006,-0.7652693574493713
5.839779005524862,-1.0543785428432597
5.873149171270718,-1.4789622393402384
5.906519337016575,-1.8636333076586529
5.939889502762432,-1.986371675642307
5.9732596685082875,-1.671876203276441
6.006629834254144,-0.8783245555914108
6.04,0.26639136139651715
6.073370165745857,1.5021687862268653
6.1067403314917135,2.5352095024530468
6.140110497237569,3.152369422681266
6.173480662983426,3.296166785895422
6.206850828729282,3.064963227297859
6.240220994475139,2.642139594780147
6.273591160220995,2.1950111751637658
6.306961325966851,1.798031141126213
6.340331491712708,1.4184340893689682
6.373701657458564,0.9661846318930181
6.40707182320442,0.37491581921705874
6.440441988950277,-0.3343131764380952
6.473812154696133,-1.0423128767659517
6.50718232044199,-1.579019257446742
6.5405524861878455,-1.8019926784165183
6.573922651933702,-1.664124356731344
6.607292817679559,-1.2363282305368584
6.640662983425415,-0.6759287194295034
6.674033149171271,-0.15912102434455744
6.707403314917127,0.18807747482199233
6.740773480662984,0.32847323574467235
6.774143646408841,0.3078980387377484
6.8075138121546965,0.21367395968385405
6.840883977900553,0.12202885495091952
6.874254143646409,0.061397771394306334
6.907624309392266,0.007533727780499775
6.9409944751381225,-0.09119231128070858
6.974364640883978,-0.27488985678126654
7.007734806629835,-0.5416015137210064
7.041104972375691,-0.8409895363498103
7.074475138121548,-1.0944840059376262
7.107845303867403,-1.2303016340857245
7.14121546961326,-1.2148369574627411
7.174585635359117,-1.065028425078167
7.207955801104973,-0.8370637689303717
7.241325966850829,-0.598981788728251
7.274696132596685,-0.4018801933844505
7.308066298342542,-0.26337189536192546
7.341436464088399,-0.16914585710095292
7.3748066298342545,-0.08882084501326663
7.408176795580111,0.004091434754834201
7.441546961325967,0.11863122306782807
7.474917127071824,0.24482331645986702
7.5082872928176805,0.36278895546150536
7.541657458563536,0.4561243650250309
7.575027624309393,0.5219952581359247
7.608397790055249,0.5730744840414747
7.641767955801106,0.631005400179469
7.675138121546962,0.7150662606352086
7.708508287292818,0.8314459981512997
7.741878453038675,0.967706677414758
7.775248618784531,1.0945050022981162
7.808618784530387,1.1738401704216845
7.841988950276244,1.1710158114450637
7.8753591160221,1.0665054896420336
7.908729281767957,0.8639135026928708
7.9420994475138125,0.5911315917696991
7.975469613259669,0.29362518255410663
8.008839779005525,0.021370618848793342
8.042209944751383,-0.186415637960996
8.075580110497238,-0.31317622107890425
8.108950276243094,-0.3687511829352958
8.14232044198895,-0.38324316746161324
8.175690607734808,-0.39342768510283344
8.209060773480664,-0.42735992574725873
8.24243093922652,-0.4935866031777654
8.275801104972377,-0.5792962306569723
8.309171270718233,-0.657810741054343
8.342541436464089,-0.7017893505591138
8.375911602209946,-0.6961108220885495
8.409281767955802,-0.6446424451346122
8.442651933701658,-0.5679113509701387
8.476022099447514,-0.4928735065556716
8.509392265193371,-0.43966062018436175
8.542762430939227,-0.41163897692251006
8.576132596685083,-0.39358510700584276
8.60950276243094,-0.35894680742398
8.642872928176796,-0.28284474575667934
8.676243093922652,-0.15476607137768342
8.709613259668508,0.0149062914434194
8.742983425414366,0.19744939492954874
8.776353591160222,0.3561632656520966
8.809723756906077,0.459833083745332
8.843093922651935,0.49348421350698013
8.87646408839779,0.4622118316869535
8.909834254143647,0.3871848135546112
8.943204419889504,0.29628127488575257
8.97657458563536,0.21370342420284005
9.009944751381216,0.15272704639298731
9.043314917127072,0.113871023822568
9.07668508287293,0.08825899380734865
9.110055248618785,0.06390137796326475
9.143425414364641,0.0318172297226003
9.176795580110499,-0.01047491421048181
9.210165745856354,-0.05897460362483779
9.24353591160221,-0.1058699415047603
9.276906077348068,-0.14297212823713024
9.310276243093924,-0.16411260216807994
9.34364640883978,-0.16572765001506923
9.377016574585635,-0.14616104002822303
9.410386740331493,-0.10501472340792263
9.443756906077349,-0.04367445426349527
9.477127071823205,0.032984769465614225
9.510497237569062,0.11506715508773983
9.543867403314918,0.18828107278051895
9.577237569060774,0.23791539526162858
9.610607734806631,0.2552997429338721
9.643977900552487,0.2436562917089739
9.677348066298343,0.21941866824605402
9.710718232044199,0.20665131561240085
9.744088397790057,0.2257515346940593
9.777458563535912,0.28133400204438247
9.810828729281768,0.3557822762212329
9.844198895027626,0.41303799572013694
9.877569060773482,0.41236363164782447
9.910939226519337,0.3264706397012372
9.944309392265193,0.15552920059201705
9.97767955801105,-0.07001497712469831
10.011049723756907,-0.2996907188502551
10.044419889502763,-0.4818451072985069
10.07779005524862,-0.5824736262711483
10.111160220994476,-0.5956791795602865
10.144530386740332,-0.5417859502561444
10.17790055248619,-0.45518261109434704
10.211270718232045,-0.3684835599742435
10.244640883977901,-0.3004567194729732
10.278011049723757,-0.2523667506924465
10.311381215469615,-0.212787320627075
10.34475138121547,-0.16706029827947078
10.378121546961326,-0.10619646317192825
10.411491712707184,-0.031348832083416676
10.44486187845304,0.04714627409029579
10.478232044198895,0.11452018018038858
10.511602209944753,0.1573092356942418
10.544972375690609,0.16775955703804982
10.578342541436465,0.14593354649427637
10.61171270718232,0.09971577760366727
10.645082872928178,0.04328609827919038
10.678453038674034,-0.005644149637116122
10.71182320441989,-0.029807711855909892
10.745193370165747,-0.017254924411133975
10.778563535911603,0.03403325791191114
10.811933701657459,0.113733060492864
10.845303867403315,0.200812147967691
10.878674033149172,0.26969749506821783
10.912044198895028,0.29928457560698496
10.945414364640884,0.2812382285436671
10.978784530386742,0.22370404427475293
11.012154696132598,0.14823239038736907
11.045524861878453,0.08078018853885396
11.078895027624311,0.04059377690573546
11.112265193370167,0.03201776553211225
11.145635359116023,0.04306767454551534
11.179005524861878,0.05146978875126672
11.212375690607736,0.03535676867966199
11.245745856353592,-0.016333126309393115
11.279116022099448,-0.09843841481467532
11.312486187845305,-0.19136240454047945
11.345856353591161,-0.2689384020168241
11.379226519337017,-0.3086605983956433
11.412596685082875,-0.2998920027182195
11.44596685082873,-0.24697173468254252
11.479337016574586,-0.16656941251898916
11.512707182320442,-0.08094307287764482
11.5460773480663,-0.010024956813725889
11.579447513812156,0.03478702457107857
11.612817679558011,0.05329917436880341
11.646187845303869,0.05525219343870211
11.679558011049725,0.05594714164644642
11.71292817679558,0.07031867975868425
11.746298342541436,0.10719889018195464
11.779668508287294,0.16537374225832946
11.81303867403315,0.2327040634982995
11.846408839779006,0.2889983428919783
11.879779005524863,0.31231480251693694
11.91314917127072,0.28699363436157815
11.946519337016575,0.21051894404158789
11.979889502762433,0.0961302554954728
12.013259668508288,-0.03052192407033609
12.046629834254144,-0.1398310233605889
12.08,-0.20850302853324046
12.113370165745858,-0.22739968618124118
12.146740331491714,-0.20384979681016013
12.18011049723757,-0.15785697309609048
12.213480662983427,-0.11416018085031913
12.246850828729283,-0.09343023705757138
12.280220994475139,-0.1056755646502269
12.313591160220996,-0.14766303524104468
12.346961325966852,-0.20461704316365378
12.380331491712708,-0.2552293635331036
12.413701657458564,-0.2783066227647365
12.447071823204421,-0.25915913692773296
12.480441988950277,-0.19400443103454976
12.513812154696133,-0.09118413164290412
12.54718232044199,0.031161841032096797
12.580552486187846,0.1502979375566553
12.613922651933702,0.24538885065856916
12.64729281767956,0.30321790561704515
12.680662983425416,0.32122848785344954
12.714033149171271,0.30684209602911855
12.747403314917127,0.27332847571586866
12.780773480662985,0.23386678117183946
12.81414364640884,0.19628677395045097
12.847513812154697,0.16082626819755508
12.880883977900554,0.12195027875147559
12.91425414364641,0.07329586655268404
12.947624309392266,0.01309570465462501
12.980994475138122,-0.05299378270095991
13.01436464088398,-0.11345524047087199
13.047734806629835,-0.1562354939447821
13.081104972375691,-0.17497295726504647
13.114475138121549,-0.17258642317036732
13.147845303867404,-0.1600630491568728
13.18121546961326,-0.15098583063518575
13.214585635359118,-0.15477167206116835
13.247955801104974,-0.17226925457572068
13.28132596685083,-0.19588094178810495
13.314696132596685,-0.21368346120643844
13.348066298342543,-0.21484762636995086
13.381436464088399,-0.19333115349267233
13.414806629834255,-0.1483916031439418
13.448176795580112,-0.0827193626237934
13.481546961325968,-0.00034345450264608457
13.514917127071824,0.09390916919813279
13.548287292817681,0.1932783084464666
13.581657458563537,0.2877795780165109
13.615027624309393,0.3646916941405974
13.648397790055249,0.41162816915176953
13.681767955801106,0.4210935774343284
13.715138121546962,0.3940444574556423
13.748508287292818,0.34010631081694215
13.781878453038676,0.2737755788204461
13.815248618784532,0.20821662782293932
13.848618784530387,0.1497927713793016
13.881988950276245,0.09627729861692637
13.9153591160221,0.0397796860519474
13.948729281767957,-0.027176256429397933
13.982099447513813,-0.10577149779234431
14.01546961325967,-0.18845969905954052
14.048839779005526,-0.2613094643673177
14.082209944751382,-0.3098594049037966
14.11558011049724,-0.3254874497860697
14.148950276243095,-0.30928459886934917
14.182320441988951,-0.27190174212319046
14.215690607734807,-0.22977421041223217
14.249060773480664,-0.1994728686227228
14.28243093922652,-0.19224469474741684
14.315801104972376,-0.21034346241802868
14.349171270718234,-0.24604773686137466
14.38254143646409,-0.2836405017267718
14.415911602209945,-0.3040231561157315
14.449281767955803,-0.2908767209830512
14.482651933701659,-0.2364651220756465
14.516022099447515,-0.14480068298052237
14.54939226519337,-0.03052638794257528
14.582762430939228,0.0864136225903174
14.616132596685084,0.1881608109345544
14.64950276243094,0.26498859440220834
14.682872928176797,0.3171220537903472
14.716243093922653,0.35161537984792934
14.749613259668509,0.37622293470355955
14.782983425414367,0.393779459167039
14.816353591160222,0.40019568798099786
14.849723756906078,0.38707090614859163
14.883093922651934,0.347377404426707
14.916464088397792,0.2810722904692248
14.949834254143648,0.19758314415627115
14.983204419889503,0.11371092591533966
15.016574585635361,0.047720423141750276
15.049944751381217,0.01217481173973905
15.083314917127073,0.008639153808387683
15.116685082872928,0.02654962784587364
15.150055248618786,0.04677117768604138
15.183425414364642,0.048470532787581476
15.216795580110498,0.01670124649638945
15.250165745856355,-0.05206236804875384
15.283535911602211,-0.14836612547121664
15.316906077348067,-0.2526725813097173
15.350276243093925,-0.3416483323959
15.38364640883978,-0.3956069153809887
15.417016574585636,-0.40447882733321083
15.450386740331492,-0.37026705476496086
15.48375690607735,-0.30534278273691295
15.517127071823205,-0.2275576901559723
15.550497237569061,-0.15425335086187192
15.583867403314919,-0.09736060426654931
15.617237569060775,-0.06098054950775354
15.65060773480663,-0.04166996320856844
15.683977900552488,-0.030747121320430518
15.717348066298344,-0.017608267104982676
15.7507182320442,0.006823168064247993
15.784088397790056,0.047171315850507864
15.817458563535913,0.10180984866835924
15.85082872928177,0.16282647661998245
15.884198895027625,0.21817216374052908
15.917569060773483,0.2557228252009529
15.950939226519338,0.26797498535263825
15.984309392265194,0.2553586669398395
16.01767955801105,0.22632051526869873
16.051049723756908,0.19362131885658235
16.084419889502765,0.16821318670329688
16.11779005524862,0.15358512140136182
16.151160220994477,0.1436019501552363
16.18453038674033,0.12530799485365285
16.21790055248619,0.0856081230848475
16.251270718232046,0.018554262824657202
16.2846408839779,-0.07054331758277879
16.318011049723758,-0.16638623406602276
16.351381215469615,-0.24970825682109732
16.38475138121547,-0.304927678833366
16.418121546961327,-0.3256039895504528
16.451491712707185,-0.31528027325121505
16.48486187845304,-0.2838966329089891
16.518232044198896,-0.24220319380807162
16.551602209944754,-0.19727655024294466
16.584972375690608,-0.15115551188574233
16.618342541436466,-0.10257221426004241
16.651712707182323,-0.05001630660063959
16.685082872928177,0.006107664919562344
16.718453038674035,0.06352658258889023
16.751823204419892,0.11996239969710931
16.785193370165747,0.17509847183808747
16.818563535911604,0.23081114555371754
16.851933701657458,0.28899648723874183
16.885303867403316,0.34804267616279444
16.918674033149173,0.40017424610672725
16.952044198895027,0.43175042254110396
16.985414364640885,0.42715732036594517
17.018784530386743,0.37498308887315523
17.052154696132597,0.273782780493742
17.085524861878454,0.13467101506403148
17.118895027624312,-0.020733764780519172
17.152265193370166,-0.16646942093291311
17.185635359116024,-0.2801313252103498
17.21900552486188,-0.3493634317848155
17.252375690607735,-0.37440653930242707
