Frequency (Hz),Amplitude
0.0,10.932325782327386
0.020066889632107024,10.931730255012027
0.04013377926421405,10.92994585319064
0.060200668896321065,10.926979111360714
0.0802675585284281,10.922840900752043
0.10033444816053512,10.917546399890076
0.12040133779264213,10.911115053310397
0.14046822742474915,10.903570518352627
0.1605351170568562,10.894940599945086
0.1806020066889632,10.885257173277068
0.20066889632107024,10.874556094244902
0.22073578595317725,10.862877097550523
0.24080267558528426,10.850263682329077
0.2608695652173913,10.836762985184592
0.2809364548494983,10.822425640521411
0.3010033444816054,10.80730562807428
0.3210702341137124,10.791460107562177
0.34113712374581934,10.77494924042127
0.3612040133779264,10.757835998610634
0.3812709030100334,10.740185960531928
0.4013377926421405,10.722067094160979
0.42140468227424743,10.703549527555191
0.4414715719063545,10.684705306977566
0.4615384615384615,10.665608142963519
0.4816053511705685,10.64633314475325
0.5016722408026756,10.626956543617336
0.5217391304347826,10.607555405717704
0.5418060200668896,10.588207335268274
0.5618729096989966,10.56899016888875
0.5819397993311036,10.54998166217976
0.6020066889632107,10.531259169685972
0.6220735785953176,10.512899319553762
0.6421404682274248,10.494977684330145
0.6622073578595318,10.47756844948548
0.6822742474916387,10.460744081373582
0.7023411371237458,10.444574996463986
0.7224080267558528,10.429129233790704
0.7424749163879598,10.414472132655925
0.7625418060200668,10.400666017702905
0.7826086956521738,10.387769893526515
0.802675585284281,10.375839151020065
0.8227424749163879,10.36492528766058
0.8428093645484949,10.355075643909508
0.862876254180602,10.346333157850525
0.882943143812709,10.33873614010028
0.903010033444816,10.33231807091032
0.923076923076923,10.327107421231192
0.9431438127090299,10.323127499332717
0.963210702341137,10.320396324370941
0.983277591973244,10.318926528064317
1.0033444816053512,10.318725285393684
1.0234113712374582,10.319794274975633
1.0434782608695652,10.322129669482578
1.0635451505016722,10.325722156199648
1.0836120401337792,10.330556987523527
1.1036789297658862,10.336614060927175
1.1237458193979932,10.343868027641953
1.1438127090301002,10.35228842904943
1.1638795986622072,10.361839859534536
1.1839464882943145,10.372482154332387
1.2040133779264215,10.384170600707673
1.2240802675585283,10.396856170639332
1.2441471571906353,10.410485773047068
1.2642140468227423,10.425002523490884
1.2842809364548495,10.440346029200157
1.3043478260869565,10.456452687245186
1.3244147157190636,10.473255993649904
1.3444816053511706,10.490686861257931
1.3645484949832773,10.508673944204013
1.3846153846153846,10.5271439669048
1.4046822742474916,10.546022055566489
1.4247491638795986,10.565232070306283
1.4448160535117056,10.584696936099162
1.4648829431438126,10.604338970886173
1.4849498327759196,10.624080209313487
1.5050167224080266,10.643842720708962
1.5250836120401337,10.663548920042835
1.5451505016722407,10.68312187075854
1.5652173913043477,10.702485578496825
1.5852842809364547,10.721565274868352
1.605351170568562,10.740287690556858
1.625418060200669,10.75858131715356
1.6454849498327757,10.776376657234533
1.6655518394648827,10.793606462294042
1.6856187290969897,10.810205958239113
1.705685618729097,10.826113058232409
1.725752508361204,10.841268562743178
1.745819397993311,10.855616346727935
1.765886287625418,10.869103533916004
1.7859531772575248,10.881680658218292
1.806020066889632,10.89330181231325
1.826086956521739,10.903924783490242
1.846153846153846,10.913511176850513
1.866220735785953,10.922026525977888
1.8862876254180598,10.929440391197618
1.9063545150501673,10.935726445542185
1.926421404682274,10.940862548538407
1.9464882943143813,10.944830807921216
1.966555183946488,10.94761762936705
1.9866220735785953,10.949213754323985
2.0066889632107023,10.949614285997887
2.026755852842809,10.948818703533696
2.0468227424749164,10.946830864410037
2.0668896321070234,10.943658995043169
2.0869565217391304,10.939315669574793
2.1070234113712374,10.933817776796335
2.1270903010033444,10.927186475142575
2.1471571906354514,10.919447135668133
2.1672240802675584,10.910629272904853
2.1872909698996654,10.900766463483826
2.2073578595317724,10.889896252396776
2.2274247491638794,10.878060046765087
2.2474916387959865,10.865302996984617
2.267558528428094,10.851673865118723
2.2876254180602005,10.837224880423095
2.3076923076923075,10.82201158190363
2.3277591973244145,10.806092647834069
2.3478260869565215,10.7895297121933
2.367892976588629,10.772387168024736
2.3879598662207355,10.75473195777101
2.408026755852843,10.736633350698773
2.4280936454849495,10.718162707598688
2.4481605351170566,10.6993932330272
2.468227424749164,10.680399715447315
2.4882943143812706,10.66125825572676
2.508361204013378,10.642045984562282
2.5284280936454846,10.622840769517907
2.548494983277592,10.603720912492216
2.568561872909699,10.58476483856304
2.5886287625418056,10.566050777296839
2.608695652173913,10.547656437751904
2.6287625418060196,10.529658678547158
2.648829431438127,10.512133174510055
2.668896321070234,10.49515408155418
2.688963210702341,10.478793701567316
2.709030100334448,10.463122149210774
2.7290969899665547,10.448207022637119
2.749163879598662,10.434113080223348
2.769230769230769,10.420901925486424
2.789297658862876,10.408631702395219
2.809364548494983,10.397356803314418
2.82943143812709,10.38712759180948
2.849498327759197,10.377990142505801
2.869565217391304,10.369986000127756
2.8896321070234112,10.36315195974494
2.9096989966555182,10.357519870122186
2.9297658862876252,10.353116461909488
2.9498327759197323,10.349963202217939
2.9698996655518393,10.348076176911665
2.9899665551839463,10.347466001706302
3.0100334448160533,10.34813776290569
3.0301003344481603,10.350090988334467
3.0501672240802673,10.353319648740728
3.0702341137123748,10.357812189653517
3.0903010033444813,10.363551593391769
3.1103678929765888,10.370515470638393
3.1304347826086953,10.378676180721094
3.1505016722408024,10.388000979485122
3.1705685618729094,10.39845219340673
3.1906354515050164,10.409987418383219
3.210702341137124,10.422559741449586
3.2307692307692304,10.436117983514855
3.250836120401338,10.450606961085056
3.270903010033445,10.465967764845196
3.2909698996655514,10.482138052909383
3.311036789297659,10.499052356515907
3.3311036789297654,10.516642395941238
3.351170568561873,10.53483740443147
3.3712374581939795,10.55356445799957
3.391304347826087,10.57274880900886
3.411371237458194,10.59231422155478
3.4314381270903005,10.612183306764477
3.451505016722408,10.6322778562547
3.471571906354515,10.652519172118497
3.491638795986622,10.672828391948705
3.511705685618729,10.693126807546612
3.531772575250836,10.713336176106502
3.551839464882943,10.73337902280699
3.5719063545150496,10.753178933877567
3.591973244147157,10.772660839340226
3.612040133779264,10.791751284751582
3.632107023411371,10.810378691387838
3.652173913043478,10.828473604423232
3.672240802675585,10.845968928751615
3.692307692307692,10.862800152189575
3.712374581939799,10.878905555878497
3.732441471571906,10.89422641177175
3.752508361204013,10.908707167152196
3.7725752508361197,10.922295616174672
3.7926421404682276,10.934943058468376
3.8127090301003346,10.94660444486582
3.832775919732441,10.957238510348668
3.852842809364548,10.966807894317087
3.872909698996655,10.975279248298536
3.8929765886287626,10.982623331215384
3.9130434782608696,10.98881509232869
3.933110367892976,10.993833741968261
3.953177257525083,10.997662810148437
3.9732441471571907,11.000290193154113
3.9933110367892977,11.001708188164372
4.013377926421405,11.001913515961222
4.033444816053511,11.00090733174962
4.053511705685618,10.998695224092698
4.073578595317726,10.995287201943045
4.093645484949833,10.990697669728418
4.113712374581939,10.984945390428045
4.133779264214047,10.978053436555207
4.153846153846153,10.97004912894291
4.173913043478261,10.960963963213434
4.193979933110368,10.95083352379945
4.214046822742475,10.939697385375341
4.234113712374581,10.927599001552938
4.254180602006689,10.91458558069625
4.274247491638796,10.900707948716429
4.294314381270903,10.886020398721497
4.314381270903009,10.870580527415568
4.334448160535117,10.854449058170752
4.354515050167224,10.837689650731992
4.374581939799331,10.82036869756101
4.394648829431437,10.802555106881561
4.414715719063545,10.784320072553914
4.434782608695651,10.765736830982648
4.454849498327759,10.746880405348767
4.474916387959866,10.727827337554025
4.494983277591973,10.70865540837285
4.5150501672240795,10.689443346423943
4.535117056856188,10.670270526699815
4.555183946488294,10.651216659525723
4.575250836120401,10.63236147095991
4.595317725752508,10.613784375791495
4.615384615384615,10.59556414444002
4.635451505016722,10.577778565208382
4.655518394648829,10.56050410348632
4.6755852842809364,10.54381555964203
4.695652173913043,10.527785727471192
4.71571906354515,10.51248505519315
4.735785953177258,10.497981311089257
4.7558528428093645,10.484339255965052
4.775919732441471,10.471620324683789
4.795986622073578,10.459882319058748
4.816053511705686,10.44917911440585
4.8361204013377925,10.439560382041092
4.856187290969899,10.43107132996009
4.8762541806020065,10.423752463856584
4.896321070234113,10.41763937052398
4.916387959866221,10.412762525538435
4.936454849498328,10.409147126945676
4.956521739130435,10.406812956467629
4.976588628762541,10.405774269513358
4.996655518394649,10.406039715023669
5.016722408026756,10.407612285905737
5.036789297658863,10.41048930052695
5.056856187290969,10.414662415442017
5.076923076923077,10.420117669228462
5.096989966555184,10.426835557009927
5.117056856187291,10.434791134958411
5.137123745819398,10.443954153791754
5.157190635451505,10.454289220025535
5.177257525083611,10.465755983504112
5.197324414715719,10.478309349526464
5.217391304347826,10.491899713702745
5.237458193979933,10.50647321752834
5.257525083612039,10.521972022545263
5.277591973244148,10.538334600876768
5.297658862876254,10.55549603986923
5.317725752508361,10.573388358554931
5.337792642140468,10.59194083365878
5.357859531772575,10.61108033290885
5.377926421404682,10.630731653472113
5.397993311036789,10.650817863420372
5.418060200668896,10.67126064423344
5.438127090301003,10.691980632463865
5.458193979933109,10.712897758816778
5.478260869565218,10.733931583036615
5.498327759197324,10.755001623135445
5.518394648829431,10.776027677643954
5.538461538461538,10.79693013971214
5.558528428093646,10.817630302029938
5.578595317725752,10.838050651677532
5.598662207357859,10.858115154147429
5.618729096989966,10.877749525906095
5.638795986622073,10.896881494979144
5.65886287625418,10.9154410491511
5.678929765886288,10.933360671467847
5.698996655518394,10.950575562816486
5.719063545150501,10.967023851433261
5.739130434782608,10.982646789256508
5.759197324414716,10.997388935096948
5.7792642140468224,11.011198324644129
5.799331103678929,11.024026627364623
5.8193979933110365,11.035829290375798
5.839464882943144,11.046565669399548
5.8595317725752505,11.056199146912961
5.879598662207358,11.064697237619429
5.8996655518394645,11.072031681363674
5.919732441471571,11.078178523609278
5.9397993311036785,11.083118183587265
5.959866220735786,11.086835510210927
5.9799331103678925,11.08931982583442
5.999999999999999,11.090564957913488
6.020066889632107,11.090569258604276
6.040133779264214,11.089335612313198
6.060200668896321,11.086871431186344
6.080267558528428,11.083188638502753
6.100334448160535,11.07830363991148
6.120401337792642,11.072237282429503
6.1404682274247495,11.06501480109566
6.160535117056856,11.056665753156755
6.180602006688963,11.047223939645127
6.200668896321069,11.036727314194371
6.2207357859531776,11.025217878930745
6.240802675585284,11.012741567274324
6.260869565217391,10.999348113485475
6.280936454849498,10.985090908800466
6.301003344481605,10.970026844015495
6.321070234113712,10.954216138401124
6.341137123745819,10.937722154861145
6.361204013377926,10.920611201290349
6.381270903010033,10.902952318136538
6.40133779264214,10.884817052232874
6.421404682274248,10.866279217038324
6.441471571906354,10.847414639506537
6.461538461538461,10.828300893897234
6.481605351170568,10.80901702294879
6.501672240802676,10.789643246946163
6.521739130434782,10.770260661343478
6.54180602006689,10.75095092373536
6.561872909698996,10.731795931113496
6.581939799331103,10.712877488493719
6.60200668896321,10.694276970152586
6.622073578595318,10.67607497486781
6.642140468227424,10.65835097671241
6.662207357859531,10.641182973104659
6.682274247491639,10.624647131961723
6.702341137123746,10.608817439940736
6.722408026755852,10.593765353874304
6.742474916387959,10.579559457612994
6.762541806020066,10.566265126573152
6.782608695652174,10.553944202350232
6.80267558528428,10.542654679792484
6.822742474916388,10.532450408935201
6.842809364548494,10.523380814168975
6.862876254180601,10.515490632954888
6.882943143812709,10.508819676305011
6.903010033444816,10.503402613117098
6.9230769230769225,10.49926878028877
6.94314381270903,10.496442020341252
6.963210702341137,10.494940548056894
6.983277591973244,10.49477684738276
7.0033444816053505,10.495957599578048
7.023411371237458,10.49848364329071
7.0434782608695645,10.50234996694388
7.063545150501672,10.507545733500837
7.083612040133779,10.514054337364646
7.103678929765886,10.52185349286049
7.123745819397993,10.530915353451395
7.143812709030099,10.54120666055654
7.1638795986622075,10.55268892058066
7.183946488294314,10.565318608527596
7.204013377926421,10.579047396364146
7.224080267558528,10.593822404124987
7.2441471571906355,10.609586471607308
7.264214046822742,10.626278448395855
7.2842809364548495,10.643833499885913
7.304347826086956,10.662183426931884
7.324414715719063,10.681256996742158
7.34448160535117,10.700980282663824
7.364548494983278,10.721277010551889
7.384615384615384,10.742068909493193
7.404682274247491,10.763276064752253
7.424749163879598,10.78481727092151
7.444816053511706,10.8066103833878
7.464882943143812,10.82857266636733
7.48494983277592,10.85062113590926
7.505016722408026,10.872672896420195
7.525083612040134,10.894645469415213
7.545150501672239,10.916457113353362
7.565217391304348,10.938027133563626
7.585284280936455,10.959276181410294
7.605351170568561,10.980126541981946
7.625418060200669,11.000502409714851
7.645484949832775,11.020330151478644
7.665551839464882,11.03953855675877
7.685618729096991,11.058059074665998
7.705685618729096,11.075826037588243
7.725752508361204,11.092776871373735
7.74581939799331,11.10885229199791
7.765886287625418,11.123996488718985
7.785953177257525,11.138157293770158
7.806020066889631,11.151286338669761
7.826086956521739,11.163339197255443
7.846153846153847,11.174275515564911
7.866220735785952,11.18405912869539
7.88628762541806,11.192658164775974
7.906354515050166,11.20004513618411
7.926421404682274,11.206197018128568
7.946488294314381,11.21109531470805
7.966555183946488,11.214726112537655
7.986622073578595,11.217080122014902
8.006688963210701,11.218152706274466
8.02675585284281,11.217943897855669
8.046822742474916,11.216458403081118
8.066889632107022,11.213705594117785
8.08695652173913,11.209699488665324
8.107023411371236,11.204458717189985
8.127090301003344,11.198006477597746
8.147157190635452,11.190370477216845
8.167224080267557,11.18158286193947
8.187290969899665,11.171680132354746
8.207357859531772,11.160703046691761
8.227424749163879,11.148696510382344
8.247491638795987,11.135709452049822
8.267558528428093,11.12179468573258
8.2876254180602,11.107008759161006
8.307692307692307,11.09141178792338
8.327759197324415,11.075067275382445
8.347826086956522,11.058041918239303
8.367892976588628,11.040405397686296
8.387959866220736,11.02223015614653
8.408026755852843,11.00359115966413
8.42809364548495,10.984565646088207
8.448160535117056,10.965232859283583
8.468227424749163,10.945673769703712
8.488294314381271,10.925970781775472
8.508361204013378,10.906207428670823
8.528428093645484,10.886468055176735
8.548494983277592,10.866837489520758
8.568561872909697,10.847400705163768
8.588628762541806,10.828242473732427
8.608695652173914,10.80944701042899
8.628762541806019,10.791097613423531
8.648829431438127,10.77327629889987
8.668896321070234,10.756063433588613
8.68896321070234,10.73953736677533
8.709030100334449,10.723774063915084
8.729096989966555,10.708846744112474
8.749163879598662,10.694825523835393
8.769230769230768,10.681777069316539
8.789297658862875,10.669764260156406
8.809364548494983,10.658845866670775
8.82943143812709,10.649076243523048
8.849498327759196,10.640505042143175
8.869565217391303,10.633176944360724
8.889632107023411,10.627131419567473
8.909698996655518,10.622402507575933
8.929765886287624,10.619018629154747
8.949832775919733,10.617002426003122
8.96989966555184,10.616370631675471
8.989966555183946,10.617133974690331
9.010033444816054,10.619297114757146
9.030100334448159,10.622858612737225
9.050167224080267,10.627810934626455
9.070234113712376,10.634140489513326
9.09030100334448,10.641827701133284
9.110367892976589,10.650847112315283
9.130434782608695,10.661167521304982
9.150501672240802,10.672752148656777
9.17056856187291,10.685558833119302
9.190635451505017,10.699540254699732
9.210702341137123,10.714644182885639
9.23076923076923,10.730813747830819
9.250836120401337,10.74798773217609
9.270903010033445,10.7661008810774
9.290969899665551,10.78508422795169
9.311036789297658,10.80486543342543
9.331103678929765,10.825369134978105
9.351170568561873,10.84651730481263
9.37123745819398,10.868229613552234
9.391304347826086,10.89042379745591
9.411371237458194,10.913016026958399
9.4314381270903,10.935921274471937
9.451505016722408,10.959053679531854
9.471571906354516,10.982326909522577
9.49163879598662,11.005654514381584
9.511705685618729,11.028950273842296
9.531772575250837,11.052128535940522
9.551839464882942,11.0751045456697
9.57190635451505,11.097794762825156
9.591973244147155,11.120117168226445
9.612040133779264,11.141991557645506
9.632107023411372,11.163339822898562
9.652173913043477,11.18408621967759
9.672240802675585,11.2041576218049
9.692307692307692,11.22348376168928
9.712374581939798,11.241997456846118
9.732441471571907,11.259634822415444
9.752508361204013,11.276335469672762
9.77257525083612,11.292042690576901
9.792642140468226,11.306703628438624
9.812709030100335,11.320269434823361
9.832775919732441,11.332695412822085
9.852842809364548,11.343941146836842
9.872909698996656,11.353970619032404
9.89297658862876,11.362752312603673
9.91304347826087,11.370259302000962
9.933110367892976,11.376469330242136
9.953177257525082,11.381364873423207
9.97324414715719,11.384933192517956
9.993311036789297,11.38716637253257
10.013377926421404,11.388061349054704
10.033444816053512,11.387619922207888
10.053511705685617,11.385848757992392
10.073578595317725,11.382759376963707
10.093645484949834,11.378368130169651
10.113712374581938,11.372696162238
10.133779264214047,11.365769361478817
10.153846153846153,11.357618296839968
10.17391304347826,11.348278141531699
10.193979933110368,11.33778858311684
10.214046822742475,11.326193719848481
10.234113712374581,11.313541943027229
10.254180602006688,11.299885805146308
10.274247491638796,11.28528187359608
10.294314381270903,11.269790569709926
10.31438127090301,11.253475992952977
10.334448160535118,11.236405730083664
10.354515050167223,11.2186506491569
10.37458193979933,11.200284678287643
10.394648829431437,11.181384569155245
10.414715719063544,11.162029645302745
10.434782608695652,11.142301535372132
10.454849498327757,11.122283891516542
10.474916387959865,11.102062093343212
10.494983277591974,11.081722937867108
10.515050167224079,11.061354316093876
10.535117056856187,11.041044877000957
10.555183946488295,11.020883679846614
10.5752508361204,11.0009598359066
10.595317725752508,10.981362140915044
10.615384615384615,10.962178699667529
10.635451505016722,10.943496544427653
10.65551839464883,10.925401248959993
10.675585284280936,10.90797654018883
10.695652173913043,10.89130390964962
10.71571906354515,10.875462227054218
10.735785953177256,10.86052735842757
10.755852842809364,10.846571791388518
10.775919732441471,10.833664270235579
10.795986622073578,10.821869443557704
