Time (s),Filtered Signal
0.0,0.03146177139110073
0.03337028824833703,-0.30740095839040127
0.06674057649667406,-0.6616514242562392
0.10011086474501109,-1.027357414799312
0.13348115299334812,-1.3713223736882958
0.16685144124168516,-1.6356612618121007
0.20022172949002218,-1.7578937221851434
0.2335920177383592,-1.6997935974897282
0.26696230598669624,-1.47209875165651
0.3003325942350333,-1.1412318050479544
0.3337028824833703,-0.8107670965652342
0.3670731707317073,-0.5826393488100517
0.40044345898004435,-0.514794865664625
0.4338137472283814,-0.5958772189473107
0.4671840354767184,-0.7502780990998441
0.5005543237250555,-0.871853145115603
0.5339246119733925,-0.8701186663167803
0.5672949002217295,-0.7068714779709319
0.6006651884700666,-0.40688135227298544
0.6340354767184035,-0.040078221170951854
0.6674057649667406,0.31311062241882354
0.7007760532150776,0.5943447091766461
0.7341463414634146,0.7820993695065045
0.7675166297117517,0.8842036849911681
0.8008869179600887,0.9169447022517454
0.8342572062084257,0.8866171376927432
0.8676274944567628,0.7863528180416468
0.9009977827050998,0.6098897074371139
0.9343680709534368,0.3719197720659943
0.9677383592017739,0.11964592849236508
1.001108647450111,-0.07470153254977241
1.0344789356984478,-0.13902501971934375
1.067849223946785,-0.032296841951446616
1.101219512195122,0.23390549198619193
1.134589800443459,0.5934243033908615
1.167960088691796,0.9438086666170431
1.2013303769401331,1.1771908143209073
1.23470066518847,1.2124742274930103
1.268070953436807,1.019034669507083
1.3014412416851442,0.6264326178922481
1.3348115299334813,0.11895425342576903
1.3681818181818182,-0.38337116909776614
1.4015521064301553,-0.7539853391416544
1.4349223946784924,-0.8942492704532006
1.4682926829268292,-0.7656356649263917
1.5016629711751663,-0.40969615328312325
1.5350332594235034,0.05438745507787721
1.5684035476718403,0.46040121951867047
1.6017738359201774,0.6497866787053671
1.6351441241685145,0.5339534556635724
1.6685144124168514,0.1387772025917796
1.7018847006651885,-0.39292344000722496
1.7352549889135256,-0.8505534105605904
1.7686252771618625,-1.0423615515373659
1.8019955654101996,-0.8834975173702135
1.8353658536585367,-0.4427324062785676
1.8687361419068735,0.07967935839237748
1.9021064301552106,0.4382753670844172
1.9354767184035477,0.4547582223262086
1.9688470066518848,0.1025203183732337
2.002217294900222,-0.47900577091102864
2.035587583148559,-1.0482096559437777
2.0689578713968957,-1.3721887629105205
2.102328159645233,-1.3301773224418354
2.13569844789357,-0.9600231605254976
2.1690687361419068,-0.4283588907368392
2.202439024390244,0.056255858076382524
2.235809312638581,0.34138531701154257
2.269179600886918,0.392477483784605
2.302549889135255,0.29275572548769996
2.335920177383592,0.18774946021910405
2.369290465631929,0.2063686731427276
2.4026607538802662,0.3978288242862308
2.436031042128603,0.7120168581175815
2.46940133037694,1.0279742344043203
2.5027716186252773,1.2129097763510235
2.536141906873614,1.1823874932350862
2.569512195121951,0.9348932354635076
2.6028824833702884,0.5479649869524557
2.6362527716186253,0.14108739486301958
2.6696230598669626,-0.17553552318112053
2.7029933481152995,-0.3428752096782339
2.7363636363636363,-0.3683847313408921
2.7697339246119737,-0.3107395679899638
2.8031042128603105,-0.24417606708304243
2.8364745011086474,-0.22120881916471477
2.8698447893569847,-0.2517907132169023
2.9032150776053216,-0.30748327348201765
2.9365853658536585,-0.34576953453397846
2.969955654101996,-0.33917412678001807
3.0033259423503327,-0.29188726698282735
3.0366962305986696,-0.2342975684902787
3.070066518847007,-0.19914187824606694
3.1034368070953438,-0.19442840414863624
3.1368070953436806,-0.19106498352433499
3.170177383592018,-0.13512282135174197
3.203547671840355,0.01986813876622652
3.2369179600886917,0.27786116647356346
3.270288248337029,0.5829573684699623
3.303658536585366,0.8319379069877367
3.337028824833703,0.9135038208860501
3.37039911308204,0.7571423158501274
3.403769401330377,0.3691407211683803
3.437139689578714,-0.16134082107012582
3.470509977827051,-0.6900985787102393
3.503880266075388,-1.0688393949399484
3.537250554323725,-1.1983904186837668
3.5706208425720622,-1.062010262657407
3.603991130820399,-0.7249838692122672
3.637361419068736,-0.3015823405345719
3.6707317073170733,0.09446758505724256
3.70410199556541,0.3920988196138318
3.737472283813747,0.5779874219676219
3.7708425720620844,0.6799530917225646
3.8042128603104213,0.7318069587219673
3.8375831485587586,0.7429343146337056
3.8709534368070955,0.691850580799949
3.9043237250554323,0.5468133749535817
3.9376940133037697,0.29849378339804145
3.9710643015521065,-0.01841131395141249
4.004434589800444,-0.33044222056302186
4.037804878048781,-0.5555705190939068
4.071175166297118,-0.6402419062089044
4.1045454545454545,-0.5814024231221713
4.137915742793791,-0.4221372778493462
4.171286031042128,-0.22644005008627707
4.204656319290466,-0.05023448084526748
4.238026607538803,0.07503451444096262
4.27139689578714,0.1411289828411854
4.304767184035477,0.15157710719112782
4.3381374722838135,0.11259010232900758
4.371507760532151,0.033646086620355654
4.404878048780488,-0.06526843724276633
4.438248337028825,-0.14972291387624598
4.471618625277162,-0.1784750430380093
4.504988913525499,-0.12206637894933293
4.538359201773836,0.017598460032676972
4.571729490022173,0.19974665489775403
4.60509977827051,0.3567441288603216
4.638470066518847,0.4220288730749385
4.671840354767184,0.3606860407327719
4.705210643015521,0.18699443280173378
4.738580931263858,-0.04022762609453551
4.771951219512196,-0.24210031030288015
4.8053215077605325,-0.35178292197679406
4.838691796008869,-0.3392423908986457
4.872062084257206,-0.21876059424394223
4.905432372505543,-0.0382737947737669
4.93880266075388,0.14256721308041068
4.972172949002218,0.27545799972714424
5.005543237250555,0.3388169799232183
5.0389135254988915,0.3407027672169088
5.072283813747228,0.3092053452706089
5.105654101995565,0.274542401091566
5.139024390243902,0.25034137827112846
5.17239467849224,0.22277244302354213
5.205764966740577,0.15404569298801574
5.239135254988914,0.0009816774313716277
5.2725055432372505,-0.2582747569941463
5.305875831485587,-0.6020488939522826
5.339246119733925,-0.9601223511157654
5.372616407982262,-1.2317235249024285
5.405986696230599,-1.3213200659287716
5.439356984478936,-1.177494751977161
5.472727272727273,-0.817464403698529
5.5060975609756095,-0.3255690314231471
5.539467849223947,0.17458387555099988
5.572838137472284,0.5633117129333706
5.606208425720621,0.7662013323143202
5.639578713968958,0.7775889510249256
5.672949002217295,0.657561990396907
5.706319290465632,0.5042722762433396
5.7396895787139695,0.4128826520624159
5.773059866962306,0.4377026149435483
5.806430155210643,0.5728416268858617
5.83980044345898,0.7590207771387185
5.873170731707317,0.912784914148581
5.906541019955654,0.9641993344840853
5.939911308203992,0.8853051507255773
5.9732815964523285,0.6966068084353281
6.006651884700665,0.45053256975095657
6.040022172949002,0.20289305739473057
6.073392461197339,-0.01115673851702422
6.106762749445676,-0.18454343999485445
6.140133037694014,-0.32824765307494413
6.173503325942351,-0.45360797652202584
6.2068736141906875,-0.5599276180294063
6.240243902439024,-0.6347838818792425
6.273614190687361,-0.6648826376471518
6.306984478935698,-0.6486633234127578
6.340354767184036,-0.6020188845393366
6.373725055432373,-0.5539987798004368
6.40709534368071,-0.5354864170969836
6.4404656319290465,-0.5667083519132905
6.473835920177383,-0.648529619742555
6.507206208425721,-0.7599097489931175
6.540576496674058,-0.861784195833915
6.573946784922395,-0.9065162920115856
6.607317073170732,-0.851179268919429
6.640687361419069,-0.6716665137511851
6.674057649667406,-0.37339704332486323
6.707427937915743,0.005731400996919199
6.74079822616408,0.402691981829051
6.774168514412417,0.7460350028976717
6.807538802660754,0.977077793802827
6.840909090909091,1.0681415167891246
6.874279379157428,1.0306716669208935
6.9076496674057655,0.9095179884747494
6.941019955654102,0.7650569775071506
6.974390243902439,0.6499111667059067
7.007760532150776,0.5894398849758682
7.041130820399113,0.5737714129806413
7.07450110864745,0.5644312540387341
7.107871396895788,0.5125684105330801
7.1412416851441245,0.3810097021399742
7.174611973392461,0.16102679567148584
7.207982261640798,-0.12261285412222947
7.241352549889135,-0.41939869784135936
7.274722838137472,-0.6694312863245673
7.30809312638581,-0.8214450511760033
7.341463414634147,-0.8462799360801149
7.3748337028824835,-0.7426786502396397
7.40820399113082,-0.535690938694171
7.441574279379157,-0.26998362771943796
7.474944567627494,-0.0005228970630927052
7.508314855875832,0.21789074570298106
7.541685144124169,0.3416897451491792
7.575055432372506,0.3495526243394232
7.6084257206208425,0.25132729014073985
7.641796008869179,0.0910451455507707
7.675166297117517,-0.060276761201040065
7.708536585365854,-0.12398623080414824
7.741906873614191,-0.041987684658388334
7.775277161862528,0.19553424704757935
7.808647450110865,0.5353440070603406
7.842017738359202,0.8692272146655026
7.875388026607539,1.0662609176645923
7.908758314855876,1.019553687421477
7.942128603104213,0.6896409965563846
7.97549889135255,0.1262819476770497
8.008869179600888,-0.5415305764355773
8.042239467849225,-1.1446565438504916
8.075609756097561,-1.527797341678509
8.108980044345898,-1.5991243834467108
8.142350332594235,-1.3589280968301196
8.175720620842572,-0.8985887903655465
8.209090909090909,-0.37066041996765586
8.242461197339246,0.0607223204068557
8.275831485587583,0.2738270332744922
8.30920177383592,0.2298725048361758
8.342572062084257,-0.014948129903499772
8.375942350332595,-0.3321354962713798
8.409312638580932,-0.5712455366391676
8.442682926829269,-0.6187755319973819
8.476053215077606,-0.4414391602827163
8.509423503325943,-0.0954750626238982
8.54279379157428,0.3015623221083111
8.576164079822616,0.6230091808644681
8.609534368070953,0.785003275879389
8.64290465631929,0.77500982430216
8.676274944567627,0.6463741945622746
8.709645232815964,0.48527509974454175
8.743015521064303,0.3688616081323001
8.77638580931264,0.3352137348711704
8.809756097560976,0.37713416950303674
8.843126385809313,0.4581653311263618
8.87649667405765,0.5381652467236969
8.909866962305987,0.5927698821866128
8.943237250554324,0.6169479224332358
8.97660753880266,0.6136867168702539
9.009977827050998,0.578261009359238
9.043348115299334,0.4911482084948767
9.076718403547671,0.3269256091149118
9.110088691796008,0.07561328964626292
9.143458980044347,-0.23671027014060686
9.176829268292684,-0.5434416491532139
9.21019955654102,-0.757127016824635
9.243569844789358,-0.8075389150492074
9.276940133037694,-0.6800221434473409
9.310310421286031,-0.43260185138795404
9.343680709534368,-0.17904749115195884
9.377050997782705,-0.04206189611794028
9.410421286031042,-0.09712489623597009
9.443791574279379,-0.33414232407134564
9.477161862527716,-0.656777020198379
9.510532150776053,-0.9214917523434294
9.543902439024391,-0.9990197570595952
9.577272727272728,-0.8301277334960825
9.610643015521065,-0.4505609220894237
9.644013303769402,0.02490948040841027
9.677383592017739,0.4503216229379145
9.710753880266076,0.7056579688252584
9.744124168514412,0.7387403542364951
9.77749445676275,0.5766467196942545
9.810864745011086,0.3060922456222806
9.844235033259423,0.03475600712652667
9.87760532150776,-0.1491107166048719
9.910975609756099,-0.20392961219583727
9.944345898004435,-0.1414528427127856
9.977716186252772,-0.013794443415127438
10.01108647450111,0.11180031432984369
10.044456762749446,0.18001303196736113
10.077827050997783,0.1663942885885076
10.11119733924612,0.08201139013413221
10.144567627494457,-0.03632941369147829
10.177937915742794,-0.14427844558888417
10.21130820399113,-0.20728138467752172
10.244678492239467,-0.20939508068415258
10.278048780487804,-0.15164855247847878
10.311419068736143,-0.04434892425090807
10.34478935698448,0.09944951913474386
10.378159645232817,0.26457440095419643
10.411529933481154,0.4295816654284184
10.44490022172949,0.5638101759603628
10.478270509977827,0.6317644209311355
10.511640798226164,0.6059032822013534
10.545011086474501,0.4820545066870881
10.578381374722838,0.28792416086591827
10.611751662971175,0.07759213630940305
10.645121951219512,-0.08756988941038574
10.67849223946785,-0.16304864789725537
10.711862527716187,-0.13842739973951113
10.745232815964524,-0.03917115967651434
10.778603104212861,0.08720701875877758
10.811973392461198,0.1924415295320837
10.845343680709535,0.24475502583350905
10.878713968957872,0.23399148632892444
10.912084257206208,0.1645760676062334
10.945454545454545,0.04371772563633724
10.978824833702882,-0.12540353978987195
11.012195121951219,-0.33993177852869527
11.045565410199556,-0.585591423389979
11.078935698447895,-0.8260727037220754
11.112305986696231,-1.003693607827606
11.145676274944568,-1.0557388506095127
11.179046563192905,-0.9414103612297169
11.212416851441242,-0.6665523307447164
11.245787139689579,-0.2920399460991702
11.279157427937916,0.08165664333091353
11.312527716186253,0.34969635416657624
11.34589800443459,0.44333223444762637
11.379268292682926,0.35725770093409004
11.412638580931263,0.15071866482732968
11.4460088691796,-0.07871032411804046
11.479379157427939,-0.23684736465619013
11.512749445676276,-0.27088817870063847
11.546119733924613,-0.18638337162957552
11.57949002217295,-0.03638368621270924
11.612860310421286,0.1103878677893137
11.646230598669623,0.20556127547057548
11.67960088691796,0.24345008230048307
11.712971175166297,0.25972865770188225
11.746341463414634,0.30883631016434104
11.77971175166297,0.43254776479815343
11.813082039911308,0.6351689273094238
11.846452328159646,0.8763317107650772
11.879822616407983,1.0836456354341606
11.91319290465632,1.1790190666218852
11.946563192904657,1.107628064020577
11.979933481152994,0.8584616074889876
12.01330376940133,0.4693667910974398
12.046674057649668,0.015625545410766283
12.080044345898004,-0.4130436767017642
12.113414634146341,-0.7385862068546775
12.146784922394678,-0.9150873275121493
12.180155210643015,-0.9377044023666684
12.213525498891352,-0.8386314344755579
12.24689578713969,-0.6730167058274467
12.280266075388028,-0.5004095947163478
12.313636363636364,-0.3676736228056627
12.347006651884701,-0.29783670049491884
12.380376940133038,-0.28710396006589906
12.413747228381375,-0.3100691530071931
12.447117516629712,-0.3312451653062585
12.480487804878049,-0.3193306747703188
12.513858093126386,-0.2594439770898756
12.547228381374723,-0.15869922658824184
12.58059866962306,-0.04263258173834108
12.613968957871396,0.05626886372657595
12.647339246119735,0.11295251589867009
12.680709534368072,0.12049633282848354
12.714079822616409,0.09219898423918894
12.747450110864746,0.05445974729119218
12.780820399113082,0.034431032517135925
12.81419068736142,0.048709377384107216
12.847560975609756,0.09816545554482956
12.880931263858093,0.17034508947416732
12.91430155210643,0.24697132469352778
12.947671840354767,0.3120399516814442
12.981042128603104,0.35659022210174124
13.014412416851442,0.3786941563542211
13.04778270509978,0.3799747035588755
13.081152993348116,0.361618519928934
13.114523281596453,0.3227312606692866
13.14789356984479,0.262193528136535
13.181263858093127,0.18281615314261737
13.214634146341464,0.09483972383560645
13.2480044345898,0.015754406260430957
13.281374722838137,-0.034749151603556565
13.314745011086474,-0.0430598981023413
13.348115299334811,-0.009283969937556988
13.381485587583148,0.04994559831373657
13.414855875831487,0.10575312126337694
13.448226164079824,0.12739927073136462
13.48159645232816,0.09473647104077558
13.514966740576497,0.0074019638172468545
13.548337028824834,-0.11360228741369689
13.581707317073171,-0.23339172876789327
13.615077605321508,-0.3174433726983063
13.648447893569845,-0.3470445024665428
13.681818181818182,-0.32898679730014124
13.715188470066519,-0.2940590928945758
13.748558758314855,-0.2834078588723633
13.781929046563192,-0.3278384346117841
13.815299334811531,-0.4296826691780692
13.848669623059868,-0.5569864264565427
13.882039911308205,-0.6544562552228349
13.915410199556542,-0.6670151059501946
13.948780487804878,-0.5645996660254671
13.982150776053215,-0.35550412991943614
14.015521064301552,-0.08149889837171964
14.048891352549889,0.20198680350645237
14.082261640798226,0.44911949075436625
14.115631929046563,0.6376023261380481
14.1490022172949,0.7670398334720373
14.182372505543238,0.8454742421691207
14.215742793791575,0.8748753074702447
14.249113082039912,0.8459829575573451
14.282483370288249,0.7456899185881773
14.315853658536586,0.5712330943849357
14.349223946784923,0.34087973329041293
14.38259423503326,0.09333425817119546
14.415964523281596,-0.12445308655648629
14.449334811529933,-0.2743433397496091
14.48270509977827,-0.34001689354340237
14.516075388026607,-0.3303260955606381
14.549445676274944,-0.27309956575604755
14.582815964523283,-0.20364948089143214
14.61618625277162,-0.1529371858912481
14.649556541019956,-0.13866259150637944
14.682926829268293,-0.160759580690043
14.71629711751663,-0.20211607691438938
14.749667405764967,-0.2350486694171699
14.783037694013304,-0.23267842748080103
14.81640798226164,-0.18167069395481467
14.849778270509978,-0.09058701454135398
14.883148558758315,0.011273674086347567
14.916518847006651,0.08548650576781286
14.949889135254988,0.10180467171336255
14.983259423503327,0.05273755441174663
15.016629711751664,-0.042096881605529705
15.05,-0.14419914523194627
15.083370288248338,-0.21294395152153403
15.116740576496674,-0.22273683722774765
15.150110864745011,-0.17271939644882905
15.183481152993348,-0.08528444165720431
15.216851441241685,0.004873916102620073
15.250221729490022,0.06552876503699116
15.283592017738359,0.07915057851616271
15.316962305986696,0.04841651169614631
15.350332594235034,-0.005924327474331875
15.383702882483371,-0.053255544387898965
15.417073170731708,-0.06469670883195637
15.450443458980045,-0.025064821965094176
15.483813747228382,0.058361898808310414
15.517184035476719,0.15431382530249327
15.550554323725056,0.2163509474010138
15.583924611973393,0.20161476605603937
15.61729490022173,0.09355219950032344
15.650665188470066,-0.08195569447507407
15.684035476718403,-0.2576033483332974
15.71740576496674,-0.34694693955289374
15.750776053215079,-0.2814497172002665
15.784146341463416,-0.0463277491810434
15.817516629711752,0.3031601026432104
15.85088691796009,0.6561042073009788
15.884257206208426,0.8879231572454346
15.917627494456763,0.9125280792385254
15.9509977827051,0.7205548646531246
15.984368070953437,0.38465878131296694
16.017738359201775,0.028009498614229227
16.05110864745011,-0.2299782139059025
16.08447893569845,-0.32516285117537375
16.117849223946784,-0.2730408786218124
16.151219512195123,-0.15491150182875071
16.184589800443458,-0.07355616102745616
16.217960088691797,-0.10074069148913647
16.251330376940132,-0.24215856660105395
16.28470066518847,-0.4362798446822686
16.31807095343681,-0.586795084009715
16.351441241685144,-0.6121008734543507
16.384811529933483,-0.487220259545485
16.418181818181818,-0.2574785770366563
16.451552106430157,-0.017307651576575333
16.48492239467849,0.13511205275850763
16.51829268292683,0.1446971382330967
16.551662971175165,0.024630091308253107
16.585033259423504,-0.15206174027371802
16.61840354767184,-0.2892897271458609
16.651773835920178,-0.313770243348995
16.685144124168513,-0.20705158826135456
16.71851441241685,-0.009197981874660649
16.75188470066519,0.20488799900145355
16.785254988913525,0.36177106323410163
16.818625277161864,0.419102519115672
16.8519955654102,0.37555034716315583
16.885365853658538,0.2605003169057742
16.918736141906873,0.11371416481365115
16.95210643015521,-0.03183707719445101
16.985476718403547,-0.1559755628503406
17.018847006651885,-0.2471053937115129
17.05221729490022,-0.29518435118638664
17.08558758314856,-0.28948090285305345
17.118957871396898,-0.22347362929501577
17.152328159645233,-0.10284170331615286
17.18569844789357,0.05046836646402785
17.219068736141907,0.20277674204147939
17.252439024390245,0.32072453003885926
17.28580931263858,0.38464050373846254
17.31917960088692,0.39587770109592596
