Frequency (Hz),Amplitude
0.0,4.390777891999962
0.020066889632107024,4.391457499446264
0.04013377926421405,4.393493004031941
0.060200668896321065,4.396874478476493
0.0802675585284281,4.401585463470086
0.10033444816053512,4.407603095386028
0.12040133779264213,4.4148982820808484
0.14046822742474915,4.423435923900683
0.1605351170568562,4.433175176348291
0.1806020066889632,4.444069750308927
0.20066889632107024,4.4560682452975025
0.22073578595317725,4.469114510881984
0.24080267558528426,4.483148031259173
0.2608695652173913,4.498104327906409
0.2809364548494983,4.513915375297344
0.3010033444816054,4.530510024840138
0.3210702341137124,4.547814432457452
0.34113712374581934,4.565752485562849
0.3612040133779264,4.5842462255801415
0.3812709030100334,4.603216262583698
0.4013377926421405,4.622582179091894
0.42140468227424743,4.642262920507997
0.4414715719063545,4.66217717015877
0.4615384615384615,4.682243707320978
0.4816053511705685,4.702381747039167
0.5016722408026756,4.7225112609195286
0.5217391304347826,4.742553278428272
0.5418060200668896,4.762430168526936
0.5618729096989966,4.782065901739805
0.5819397993311036,4.801386292970841
0.6020066889632107,4.820319225570252
0.6220735785953176,4.838794857296719
0.6421404682274248,4.856745808933033
0.6622073578595318,4.8741073363938225
0.6822742474916387,4.890817487217494
0.7023411371237458,4.906817242364254
0.7224080267558528,4.922050644251181
0.7424749163879598,4.936464911947322
0.7625418060200668,4.9500105444294205
0.7826086956521738,4.962641412765152
0.802675585284281,4.974314842047628
0.8227424749163879,4.984991683855104
0.8428093645484949,4.9946363799543585
0.862876254180602,5.003217017907289
0.882943143812709,5.0107053791785905
0.903010033444816,5.0170769802791195
0.923076923076923,5.022311107415464
0.9431438127090299,5.026390845051821
0.963210702341137,5.029303098725776
0.983277591973244,5.031038612395564
1.0033444816053512,5.031591980532443
1.0234113712374582,5.0309616551085625
1.0434782608695652,5.029149947567456
1.0635451505016722,5.026163025801579
1.0836120401337792,5.022010906098276
1.1036789297658862,5.016707439952918
1.1237458193979932,5.010270295584569
1.1438127090301002,5.002720933926426
1.1638795986622072,4.994084578799206
1.1839464882943145,4.984390180911811
1.2040133779264215,4.973670375269115
1.2240802675585283,4.961961431502653
1.2441471571906353,4.949303196576083
1.2642140468227423,4.935739029254679
1.2842809364548495,4.921315725667145
1.3043478260869565,4.906083435230059
1.3244147157190636,4.89009556615123
1.3444816053511706,4.873408679680049
1.3645484949832773,4.856082372231975
1.3846153846153846,4.838179144483321
1.4046822742474916,4.819764256513233
1.4247491638795986,4.800905568065754
1.4448160535117056,4.781673363018372
1.4648829431438126,4.762140157178469
1.4849498327759196,4.742380488588388
1.5050167224080266,4.722470689607364
1.5250836120401337,4.702488640157488
1.5451505016722407,4.682513501674445
1.5652173913043477,4.662625431494732
1.5852842809364547,4.642905277641457
1.605351170568562,4.6234342542419435
1.625418060200669,4.60429359812221
1.6454849498327757,4.5855642074744
1.6655518394648827,4.567326263880472
1.6856187290969897,4.549658839393651
1.705685618729097,4.532639490821278
1.725752508361204,4.516343843808952
1.745819397993311,4.500845169785343
1.765886287625418,4.486213959275145
1.7859531772575248,4.472517495509682
1.806020066889632,4.4598194326437985
1.826086956521739,4.4481793832060665
1.846153846153846,4.437652519650585
1.866220735785953,4.428289195026017
1.8862876254180598,4.420134587817061
1.9063545150501673,4.413228375934262
1.926421404682274,4.40760444462254
1.9464882943143813,4.403290632724764
1.966555183946488,4.400308521276614
1.9866220735785953,4.398673267831257
2.0066889632107023,4.39839348923067
2.026755852842809,4.399471194773425
2.0468227424749164,4.40190177089938
2.0668896321070234,4.405674017646082
2.0869565217391304,4.410770236257909
2.1070234113712374,4.417166366475363
2.1270903010033444,4.424832171225712
2.1471571906354514,4.433731465702815
2.1672240802675584,4.443822387183936
2.1872909698996654,4.455057701402014
2.2073578595317724,4.467385140884213
2.2274247491638794,4.480747770387494
2.2474916387959865,4.495084374410258
2.267558528428094,4.5103298617307255
2.2876254180602005,4.526415682009103
2.3076923076923075,4.543270249678985
2.3277591973244145,4.560819370628863
2.3478260869565215,4.5789866675203905
2.367892976588629,4.597693999988699
2.3879598662207355,4.616861876404654
2.408026755852843,4.63640985433313
2.4280936454849495,4.656256927280361
2.4481605351170566,4.676321895774745
2.468227424749164,4.696523721257886
2.4882943143812706,4.7167818616681725
2.508361204013378,4.737016587971328
2.5284280936454846,4.75714928122671
2.548494983277592,4.777102710072694
2.568561872909699,4.796801288768065
2.5886287625418056,4.816171316139783
2.608695652173913,4.835141195962254
2.6287625418060196,4.85364163943173
2.648829431438127,4.871605850504751
2.668896321070234,4.888969694944654
2.688963210702341,4.905671853968974
2.709030100334448,4.921653963415972
2.7290969899665547,4.936860739354467
2.749163879598662,4.9512400910503125
2.769230769230769,4.9647432221784875
2.789297658862876,4.977324721134332
2.809364548494983,4.988942641253316
2.82943143812709,4.99955857169792
2.849498327759197,5.009137699714431
2.869565217391304,5.01764886490316
2.8896321070234112,5.025064606083758
2.9096989966555182,5.031361201274379
2.9297658862876252,5.0365187012391415
2.9498327759197323,5.040520956994387
2.9698996655518393,5.043355641599938
2.9899665551839463,5.045014266497678
3.0100334448160533,5.045492192596272
3.0301003344481603,5.044788636237686
3.0501672240802673,5.042906670118268
3.0702341137123748,5.039853219174528
3.0903010033444813,5.035639051381158
3.1103678929765888,5.030278763346023
3.1304347826086953,5.023790760524211
3.1505016722408024,5.01619723180984
3.1705685618729094,5.007524118200987
3.1906354515050164,4.997801075169426
3.210702341137124,4.987061428303063
3.2307692307692304,4.975342121725451
3.250836120401338,4.962683658733844
3.270903010033445,4.949130034035756
3.2909698996655514,4.934728656904569
3.311036789297659,4.919530264518283
3.3311036789297654,4.903588824694138
3.351170568561873,4.886961427185821
3.3712374581939795,4.86970816267276
3.391304347826087,4.8518919885433105
3.411371237458194,4.833578580559155
3.4314381270903005,4.814836169488962
3.451505016722408,4.795735361818703
3.471571906354515,4.776348943687197
3.491638795986622,4.756751667261632
3.511705685618729,4.737020018862711
3.531772575250836,4.717231968275703
3.551839464882943,4.6974666988450755
3.5719063545150496,4.677804318149414
3.591973244147157,4.65832554929115
3.612040133779264,4.639111403113935
3.632107023411371,4.62024283197819
3.652173913043478,4.601800366081059
3.672240802675585,4.583863733697028
3.692307692307692,4.566511467134226
3.712374581939799,4.549820496641235
3.732441471571906,4.533865734950513
3.752508361204013,4.5187196555951665
3.7725752508361197,4.504451868571921
3.7926421404682276,4.49112869732939
3.8127090301003346,4.4788127614205475
3.832775919732441,4.467562569454562
3.852842809364548,4.457432127199242
3.872909698996655,4.448470565806151
3.8929765886287626,4.4407217951419495
3.9130434782608696,4.434224187102971
3.933110367892976,4.42901029355816
3.953177257525083,4.42510660320761
3.9732441471571907,4.422533341164107
3.9933110367892977,4.4213043144720245
4.013377926421405,4.42142680608666
4.033444816053511,4.422901519066988
4.053511705685618,4.425722571908179
4.073578595317726,4.4298775450847785
4.093645484949833,4.435347578017163
4.113712374581939,4.44210751484119
4.133779264214047,4.450126096580702
4.153846153846153,4.45936619661738
4.173913043478261,4.469785095743231
4.193979933110368,4.481334792582576
4.214046822742475,4.493962344793243
4.234113712374581,4.507610236204615
4.254180602006689,4.522216764924362
4.274247491638796,4.537716447438518
4.294314381270903,4.554040433833989
4.314381270903009,4.571116929473622
4.334448160535117,4.588871618738251
4.354515050167224,4.607228086800153
4.374581939799331,4.6261082357913335
4.394648829431437,4.64543269216177
4.414715719063545,4.665121202470778
4.434782608695651,4.685093015305825
4.454849498327759,4.705267247464338
4.474916387959866,4.7255632329557375
4.494983277591973,4.745900853775063
4.5150501672240795,4.76620085176005
4.535117056856188,4.786385121166794
4.555183946488294,4.806376981883037
4.575250836120401,4.826101433441789
4.595317725752508,4.84548539020269
4.615384615384615,4.864457898235409
4.635451505016722,4.8829503345711105
4.655518394648829,4.900896589587442
4.6755852842809364,4.918233233363255
4.695652173913043,4.934899666883758
4.71571906354515,4.95083825899977
4.735785953177258,4.965994470048134
4.7558528428093645,4.980316963028094
4.775919732441471,4.993757703202998
4.795986622073578,5.006272046960763
4.816053511705686,5.017818820722066
4.8361204013377925,5.028360390634551
4.856187290969899,5.0378627237359535
4.8762541806020065,5.046295441209949
4.896321070234113,5.053631864297535
4.916387959866221,5.059849053364098
4.936454849498328,5.06492784055902
4.956521739130435,5.068852856441008
4.976588628762541,5.0716125508787995
4.996655518394649,5.073199208473609
5.016722408026756,5.07360895868665
5.036789297658863,5.0728417807923805
5.056856187290969,5.070901503715807
5.076923076923077,5.0677958007498916
5.096989966555184,5.063536179086968
5.117056856187291,5.05813796403588
5.137123745819398,5.051620277734129
5.157190635451505,5.0440060121017805
5.177257525083611,5.035321795721101
5.197324414715719,5.025597954263006
5.217391304347826,5.0148684640186945
5.237458193979933,5.003170898032528
5.257525083612039,4.990546364270879
5.277591973244148,4.977039435201899
5.297658862876254,4.96269806810413
5.317725752508361,4.947573515368069
5.337792642140468,4.93172022400655
5.357859531772575,4.915195723547638
5.377926421404682,4.8980605014506615
5.397993311036789,4.8803778651633865
5.418060200668896,4.862213789929268
5.438127090301003,4.843636751460667
5.458193979933109,4.824717542619889
5.478260869565218,4.80552907329843
5.498327759197324,4.78614615275858
5.518394648829431,4.766645253804277
5.538461538461538,4.747104258282789
5.558528428093646,4.727602183587982
5.578595317725752,4.708218890042074
5.598662207357859,4.689034769277325
5.618729096989966,4.670130414022392
5.638795986622073,4.651586270019493
5.65886287625418,4.63348227115566
5.678929765886288,4.615897459280228
5.698996655518394,4.598909590595497
5.719063545150501,4.582594730939822
5.739130434782608,4.5670268427227825
5.759197324414716,4.55227736670778
5.7792642140468224,4.5384148022552
5.799331103678929,4.5255042900234095
5.8193979933110365,4.513607201459497
5.839464882943144,4.502780739680291
5.8595317725752505,4.493077556531018
5.879598662207358,4.484545390699636
5.8996655518394645,4.47722673174744
5.919732441471571,4.471158514782079
5.9397993311036785,4.466371850243305
5.959866220735786,4.462891792893802
5.9799331103678925,4.46073715361358
5.999999999999999,4.459920356995256
6.020066889632107,4.4604473470458545
6.040133779264214,4.462317542536702
6.060200668896321,4.465523842730602
6.080267558528428,4.47005268337978
6.100334448160535,4.475884142056133
6.120401337792642,4.482992091073378
6.1404682274247495,4.49134439551396
6.160535117056856,4.500903153204257
6.180602006688963,4.511624972907918
6.200668896321069,4.523461286543182
6.2207357859531776,4.53635869088433
6.240802675585284,4.55025931398361
6.260869565217391,4.5651012014470105
6.280936454849498,4.580818717708683
6.301003344481605,4.597342957565742
6.321070234113712,4.614602163443897
6.341137123745819,4.6325221441511575
6.361204013377926,4.6510266912247
6.381270903010033,4.67003798936928
6.40133779264214,4.689477017907932
6.421404682274248,4.70926394060253
6.441471571906354,4.729318481639422
6.461538461538461,4.7495602860026755
6.481605351170568,4.769909262864519
6.501672240802676,4.7902859110023845
6.521739130434782,4.81061162559877
6.54180602006689,4.830808986090636
6.561872909698996,4.850802025007282
6.581939799331103,4.870516477969306
6.60200668896321,4.889880015216797
6.622073578595318,4.908822455194455
6.642140468227424,4.927275960847032
6.662207357859531,4.945175219372911
6.682274247491639,4.9624576062506955
6.702341137123746,4.979063334395645
6.722408026755852,4.994935589323666
6.742474916387959,5.010020651203166
6.762541806020066,5.024268004662243
6.782608695652174,5.037630437193366
6.80267558528428,5.0500641269620905
6.822742474916388,5.0615287207828
6.842809364548494,5.071987402974569
6.862876254180601,5.081406955755966
6.882943143812709,5.089757811779615
6.903010033444816,5.097014099347565
6.9230769230769225,5.103153680786916
6.94314381270903,5.108158184402899
6.963210702341137,5.1120130303641735
6.983277591973244,5.114707450812259
7.0033444816053505,5.116234504424912
7.023411371237458,5.116591085600795
7.0434782608695645,5.115777928371131
7.063545150501672,5.11379960508224
7.083612040133779,5.110664519831466
7.103678929765886,5.106384896577484
7.123745819397993,5.100976761784615
7.143812709030099,5.094459921399177
7.1638795986622075,5.086857931894361
7.183946488294314,5.078198065058396
7.204013377926421,5.068511266139309
7.224080267558528,5.057832104898319
7.2441471571906355,5.046198719063649
7.264214046822742,5.03365274961722
7.2842809364548495,5.020239267289936
7.304347826086956,5.006006689586858
7.324414715719063,4.991006687614057
7.34448160535117,4.975294081934183
7.364548494983278,4.95892672664113
7.384615384615384,4.941965380815953
7.404682274247491,4.924473566510026
7.424749163879598,4.906517412398776
7.444816053511706,4.888165482263528
7.464882943143812,4.869488587492791
7.48494983277592,4.85055958285049
7.505016722408026,4.83145314484096
7.525083612040134,4.812245532111167
7.545150501672239,4.793014327473129
7.565217391304348,4.7738381613058705
7.585284280936455,4.754796416308491
7.605351170568561,4.735968913825221
7.625418060200669,4.717435582249219
7.645484949832775,4.69927610833388
7.665551839464882,4.681569572595094
7.685618729096991,4.6643940703709745
7.705685618729096,4.647826320511272
7.725752508361204,4.631941264087623
7.74581939799331,4.616811655939151
7.765886287625418,4.602507652282391
7.785953177257525,4.589096398007394
7.806020066889631,4.576641617637984
7.826086956521739,4.5652032142379655
7.846153846153847,4.554836880781494
7.866220735785952,4.545593728659942
7.88628762541806,4.537519938056298
7.906354515050166,4.530656434871147
7.926421404682274,4.525038598723866
7.946488294314381,4.520696006275974
7.966555183946488,4.517652213731368
7.986622073578595,4.515924581866634
8.006688963210701,4.5155241463448
8.02675585284281,4.516455535382679
8.046822742474916,4.518716936095251
8.066889632107022,4.522300110052516
8.08695652173913,4.5271904577796045
8.107023411371236,4.533367131135005
8.127090301003344,4.540803191739606
8.147157190635452,4.549465812923948
8.167224080267557,4.559316522033184
8.187290969899665,4.570311479395351
8.207357859531772,4.582401789831163
8.227424749163879,4.595533842269487
8.247491638795987,4.609649672835735
8.267558528428093,4.624687346697186
8.2876254180602,4.640581353975127
8.307692307692307,4.65726301515751
8.327759197324415,4.674660891656632
8.347826086956522,4.692701197438879
8.367892976588628,4.711308207992982
8.387959866220736,4.730404663284453
8.408026755852843,4.7499121617508875
8.42809364548495,4.769751542812846
8.448160535117056,4.789843255794631
8.468227424749163,4.810107713558194
8.488294314381271,4.830465629542661
8.508361204013378,4.8508383372646575
8.528428093645484,4.871148091665866
8.548494983277592,4.891318351990451
8.568561872909697,4.911274046135012
8.588628762541806,4.930941816636684
8.608695652173914,4.950250248651963
8.628762541806019,4.96913008043132
8.648829431438127,4.987514396914794
8.668896321070234,5.0053388071645495
8.68896321070234,5.022541606414529
8.709030100334449,5.039063923557772
8.729096989966555,5.054849854912304
8.749163879598662,5.069846585109038
8.769230769230768,5.084004495933167
8.789297658862875,5.097277263926143
8.809364548494983,5.109621947521386
8.82943143812709,5.120999064444822
8.849498327759196,5.131372660063372
8.869565217391303,5.140710367311899
8.889632107023411,5.148983458773211
8.909698996655518,5.156166891427462
8.929765886287624,5.162239344527515
8.949832775919733,5.16718325099626
8.96989966555184,5.1709848226806585
8.989966555183946,5.1736340697361785
9.010033444816054,5.175124814354088
9.030100334448159,5.175454698983147
9.050167224080267,5.174625189136363
9.070234113712376,5.172641570813136
9.09030100334448,5.169512942506434
9.110367892976589,5.165252201704588
9.130434782608695,5.159876025736866
9.150501672240802,5.1534048467518
9.17056856187291,5.1458628205571655
9.190635451505017,5.137277788990442
9.210702341137123,5.127681235429091
9.23076923076923,5.1171082329910424
9.250836120401337,5.105597384918021
9.270903010033445,5.093190756578473
9.290969899665551,5.07993379847318
9.311036789297658,5.065875259576926
9.331103678929765,5.051067090304283
9.351170568561873,5.035564334348534
9.37123745819398,5.019425008611744
9.391304347826086,5.002709970422538
9.411371237458194,4.985482771228941
9.4314381270903,4.967809495958748
9.451505016722408,4.949758587262121
9.471571906354516,4.931400653893214
9.49163879598662,4.912808262552347
9.511705685618729,4.894055712600654
9.531772575250837,4.8752187931778
9.551839464882942,4.856374522402707
9.57190635451505,4.837600868519561
9.591973244147155,4.818976453067654
9.612040133779264,4.800580236404949
9.632107023411372,4.782491186200765
9.652173913043477,4.7647879298310265
9.672240802675585,4.747548391957199
9.692307692307692,4.730849418942019
9.712374581939798,4.714766392145378
9.732441471571907,4.699372832543306
9.752508361204013,4.684739999512376
9.77257525083612,4.670936487008728
9.792642140468226,4.658027820732523
9.812709030100335,4.646076060190933
9.832775919732441,4.635139409841066
9.852842809364548,4.625271843694922
9.872909698996656,4.616522747887366
9.89297658862876,4.608936585734812
9.91304347826087,4.602552589736818
9.933110367892976,4.5974044847901085
9.953177257525082,4.593520246592081
9.97324414715719,4.590921898811292
9.993311036789297,4.589625352102623
10.013377926421404,4.589640287455377
10.033444816053512,4.590970085699416
10.053511705685617,4.5936118042761125
10.073578595317725,4.597556201628453
10.093645484949834,4.6027878088018594
10.113712374581938,4.609285047097262
10.133779264214047,4.617020389903865
10.153846153846153,4.625960566181935
10.17391304347826,4.636066802484622
10.193979933110368,4.647295099916552
10.214046822742475,4.659596542036916
10.234113712374581,4.672917629432231
10.254180602006688,4.6872006365103775
10.274247491638796,4.702383986001105
10.294314381270903,4.718402636682403
10.31438127090301,4.735188479977738
10.334448160535118,4.7526707412748
10.354515050167223,4.770776382088293
10.37458193979933,4.78943049951369
10.394648829431437,4.808556719780931
10.414715719063544,4.82807758310346
10.434782608695652,4.847914917415173
10.454849498327757,4.867990198984956
10.474916387959865,4.888224898284877
10.494983277591974,4.908540809856327
10.515050167224079,4.928860365261433
10.535117056856187,4.949106928520637
10.555183946488295,4.969205073718459
10.5752508361204,4.989080844706216
10.595317725752508,5.0086619970427675
10.615384615384615,5.02787822249277
10.635451505016722,5.046661356547975
10.65551839464883,5.064945569552617
10.675585284280936,5.082667542101644
10.695652173913043,5.0997666254433085
10.71571906354515,5.11618498765754
10.735785953177256,5.131867746402481
10.755852842809364,5.146763089025432
10.775919732441471,5.160822380824246
10.795986622073578,5.174000262223297
10.816053511705684,5.186254735596477
10.836120401337793,5.197547242430549
10.856187290969899,5.207842731476682
10.876254180602006,5.217109718488246
10.896321070234114,5.225320338089506
10.916387959866219,5.232450388264179
10.936454849498327,5.238479367895326
10.956521739130435,5.243390507729547
10.97658862876254,5.247170795079581
10.996655518394649,5.249810992519705
11.016722408026755,5.251305650769384
