Time (s),Filtered Signal
0.0,0.03299857513438958
0.03337028824833703,0.3066460598093182
0.06674057649667406,0.4727093942190366
0.10011086474501109,0.46210684296609367
0.13348115299334812,0.26537732888611226
0.16685144124168516,-0.07030316589846837
0.20022172949002218,-0.46486649257850465
0.2335920177383592,-0.8368723752405823
0.26696230598669624,-1.128006364059035
0.3003325942350333,-1.3115933591255702
0.3337028824833703,-1.3857569451816212
0.3670731707317073,-1.3596320493262393
0.40044345898004435,-1.2429604437253785
0.4338137472283814,-1.045068605934075
0.4671840354767184,-0.7818224539531327
0.5005543237250555,-0.48336167176341843
0.5339246119733925,-0.19464702512434856
0.5672949002217295,0.03465348890606845
0.6006651884700666,0.16753434288017593
0.6340354767184035,0.1957473021902559
0.6674057649667406,0.14569820314505205
0.7007760532150776,0.06980451132917927
0.7341463414634146,0.02608526025607572
0.7675166297117517,0.05471752897513608
0.8008869179600887,0.16209994287908225
0.8342572062084257,0.31968347986629275
0.8676274944567628,0.47797734575854495
0.9009977827050998,0.5889847600470298
0.9343680709534368,0.6264182872597281
0.9677383592017739,0.5944397641487666
1.001108647450111,0.5216939110367499
1.0344789356984478,0.4448412289194607
1.067849223946785,0.3906411276386833
1.101219512195122,0.36544856889627586
1.134589800443459,0.35626728701766125
1.167960088691796,0.34119665813684746
1.2013303769401331,0.3026973019396909
1.23470066518847,0.2366202175112405
1.268070953436807,0.1531127549489519
1.3014412416851442,0.070214875524059
1.3348115299334813,0.004574570788804427
1.3681818181818182,-0.035483873177138026
1.4015521064301553,-0.051365650740649235
1.4349223946784924,-0.050373543724159
1.4682926829268292,-0.03974867536560958
1.5016629711751663,-0.022429583672180436
1.5350332594235034,0.003114809841052654
1.5684035476718403,0.03926425086875919
1.6017738359201774,0.08436900700881785
1.6351441241685145,0.12983584176858945
1.6685144124168514,0.16128395558102532
1.7018847006651885,0.16361978128147192
1.7352549889135256,0.12768040245532708
1.7686252771618625,0.05510613988788258
1.8019955654101996,-0.04114646046120065
1.8353658536585367,-0.1411401818342763
1.8687361419068735,-0.2252937556149031
1.9021064301552106,-0.28150170653076084
1.9354767184035477,-0.30903961822998705
1.9688470066518848,-0.31783425207237587
2.002217294900222,-0.3237439514597842
2.035587583148559,-0.34205050711699303
2.0689578713968957,-0.3817700521759817
2.102328159645233,-0.4426413607132312
2.13569844789357,-0.5153117065971881
2.1690687361419068,-0.5840682295944158
2.202439024390244,-0.6309221401977121
2.235809312638581,-0.6399008895308497
2.269179600886918,-0.600679922282645
2.302549889135255,-0.5109042298173233
2.335920177383592,-0.376720341950438
2.369290465631929,-0.21135902410348792
2.4026607538802662,-0.03216468097844305
2.436031042128603,0.14296127155234747
2.46940133037694,0.29856431386179516
2.5027716186252773,0.4234132295318553
2.536141906873614,0.5112151041474614
2.569512195121951,0.5609934357119535
2.6028824833702884,0.5775903612422755
2.6362527716186253,0.5717933959632551
2.6696230598669626,0.5587762572671234
2.7029933481152995,0.5538548575226441
2.7363636363636363,0.5662223183135136
2.7697339246119737,0.5933907552728405
2.8031042128603105,0.6198942785008777
2.8364745011086474,0.6222831916977046
2.8698447893569847,0.5790298089831989
2.9032150776053216,0.4806985403760001
2.9365853658536585,0.33492412018014733
2.969955654101996,0.16329624491733988
3.0033259423503327,-0.00819775546002879
3.0366962305986696,-0.15983352684448024
3.070066518847007,-0.2841569714369868
3.1034368070953438,-0.38464634797096137
3.1368070953436806,-0.4687720239819078
3.170177383592018,-0.5401386743161446
3.203547671840355,-0.5942549996183528
3.2369179600886917,-0.6198329458887086
3.270288248337029,-0.6043515982983013
3.303658536585366,-0.5407444649852836
3.337028824833703,-0.4320748653526002
3.37039911308204,-0.2923797350789725
3.403769401330377,-0.14352528441720816
3.437139689578714,-0.009275844713987902
3.470509977827051,0.09137157541849097
3.503880266075388,0.14924221772556026
3.537250554323725,0.16651525687308857
3.5706208425720622,0.15411504805415882
3.603991130820399,0.1262056424077083
3.637361419068736,0.09455653046553303
3.6707317073170733,0.065673561826387
3.70410199556541,0.04193232549859665
3.737472283813747,0.025339808278083922
3.7708425720620844,0.02067431528066231
3.8042128603104213,0.03503277153354703
3.8375831485587586,0.07328908408381994
3.8709534368070955,0.1321110352264908
3.9043237250554323,0.1968542299364678
3.9376940133037697,0.2445334197758273
3.9710643015521065,0.2526108280482638
4.004434589800444,0.2095601822662093
4.037804878048781,0.12145830888557337
4.071175166297118,0.010493191335389528
4.1045454545454545,-0.09447168355251385
4.137915742793791,-0.1706683382332656
4.171286031042128,-0.21088920025609262
4.204656319290466,-0.22468330450971363
4.238026607538803,-0.2308067130781008
4.27139689578714,-0.24519705848908901
4.304767184035477,-0.2710879823718989
4.3381374722838135,-0.2965796560075024
4.371507760532151,-0.3008569955383191
4.404878048780488,-0.2656284733935962
4.438248337028825,-0.18572396397431276
4.471618625277162,-0.07340887346533968
4.504988913525499,0.0456897939957582
4.538359201773836,0.14298224636384885
4.571729490022173,0.1986896630668188
4.60509977827051,0.20966451034996486
4.638470066518847,0.18995051724665668
4.671840354767184,0.1640606105264464
4.705210643015521,0.15603395531730183
4.738580931263858,0.1790284741669422
4.771951219512196,0.22991772704261687
4.8053215077605325,0.2911863627462281
4.838691796008869,0.33916355748490695
4.872062084257206,0.3546825483842151
4.905432372505543,0.33108244371909545
4.93880266075388,0.2758498531149244
4.972172949002218,0.20556082741682158
5.005543237250555,0.1373112156432367
5.0389135254988915,0.08145421625634289
5.072283813747228,0.03922309214938127
5.105654101995565,0.005534969297829845
5.139024390243902,-0.025899141666973644
5.17239467849224,-0.05903196360703608
5.205764966740577,-0.09562721674650723
5.239135254988914,-0.13802524483808615
5.2725055432372505,-0.19115116338620786
5.305875831485587,-0.26073239286107563
5.339246119733925,-0.3475929519029602
5.372616407982262,-0.44136071676750194
5.405986696230599,-0.5184025191962585
5.439356984478936,-0.5470180823728169
5.472727272727273,-0.49887368945282207
5.5060975609756095,-0.3618968996135827
5.539467849223947,-0.14866036431072985
5.572838137472284,0.10383004926856301
5.606208425720621,0.34335066589994334
5.639578713968958,0.5175590342833868
5.672949002217295,0.5898411426576872
5.706319290465632,0.5506302476034824
5.7396895787139695,0.42034748679018363
5.773059866962306,0.24261086753306624
5.806430155210643,0.06939942012886731
5.83980044345898,-0.05723441087619659
5.873170731707317,-0.12046391652105189
5.906541019955654,-0.1347471697630168
5.939911308203992,-0.13914680936574514
5.9732815964523285,-0.17925625234293946
6.006651884700665,-0.28433504111203084
6.040022172949002,-0.44949175499441496
6.073392461197339,-0.6318963170355265
6.106762749445676,-0.7646388622509297
6.140133037694014,-0.7838830245225982
6.173503325942351,-0.6580258642142266
6.2068736141906875,-0.40532241563089916
6.240243902439024,-0.09054767650231457
6.273614190687361,0.1996081897176918
6.306984478935698,0.39257784677114277
6.340354767184036,0.461276181210541
6.373725055432373,0.43568724627765454
6.40709534368071,0.38804221404010925
6.4404656319290465,0.39727527371153154
6.473835920177383,0.5087961255334443
6.507206208425721,0.7087080033401704
6.540576496674058,0.9254709996304555
6.573946784922395,1.0592620604249365
6.607317073170732,1.0259918013462812
6.640687361419069,0.7957180065737937
6.674057649667406,0.40780886917089104
6.707427937915743,-0.04355030789131239
6.74079822616408,-0.44579981844837463
6.774168514412417,-0.7089981839583216
6.807538802660754,-0.7934564236506261
6.840909090909091,-0.7143455005348329
6.874279379157428,-0.5254614505545512
6.9076496674057655,-0.2932592449165295
6.941019955654102,-0.07415724650579235
6.974390243902439,0.09674489427528417
7.007760532150776,0.20512775300416133
7.041130820399113,0.250542800176866
7.07450110864745,0.2397372879654879
7.107871396895788,0.1837125367245268
7.1412416851441245,0.09759073218219941
7.174611973392461,-0.00012370982342810538
7.207982261640798,-0.09141232258727197
7.241352549889135,-0.16506037541541493
7.274722838137472,-0.22179843326263385
7.30809312638581,-0.2741955815429656
7.341463414634147,-0.33976981794571853
7.3748337028824835,-0.42981106116133166
7.40820399113082,-0.539455748907833
7.441574279379157,-0.6446774105221967
7.474944567627494,-0.708829008284439
7.508314855875832,-0.6967413785435372
7.541685144124169,-0.590534122901209
7.575055432372506,-0.4001247734985124
7.6084257206208425,-0.16343107807913793
7.641796008869179,0.06452017779092459
7.675166297117517,0.22979161345804802
7.708536585365854,0.29822685287975875
7.741906873614191,0.26753585706175875
7.775277161862528,0.1681917030989872
7.808647450110865,0.05280631330796585
7.842017738359202,-0.02208264317981147
7.875388026607539,-0.015209765696562192
7.908758314855876,0.08605382300573369
7.942128603104213,0.2628132633453721
7.97549889135255,0.47309357730574136
8.008869179600888,0.6682522978758827
8.042239467849225,0.8107806374949973
8.075609756097561,0.8860959571904442
8.108980044345898,0.9032984999312692
8.142350332594235,0.8848400286136011
8.175720620842572,0.850486680918915
8.209090909090909,0.8040234289202574
8.242461197339246,0.7299488760884012
8.275831485587583,0.6022904209792528
8.30920177383592,0.40121922765969736
8.342572062084257,0.12879591704203916
8.375942350332595,-0.18472932616726234
8.409312638580932,-0.4881311571711113
8.442682926829269,-0.7273708565462694
8.476053215077606,-0.8666419822357471
8.509423503325943,-0.902515048049443
8.54279379157428,-0.8643004819214257
8.576164079822616,-0.8000238192215222
8.609534368070953,-0.754210371869826
8.64290465631929,-0.7477717252579945
8.676274944567627,-0.7695404449300962
8.709645232815964,-0.7835394032479377
8.743015521064303,-0.7484198698405706
8.77638580931264,-0.639450036773935
8.809756097560976,-0.4621260841754359
8.843126385809313,-0.2506852062092351
8.87649667405765,-0.052414499391348165
8.909866962305987,0.09424634155573801
8.943237250554324,0.1768476906130299
8.97660753880266,0.2129662091609148
9.009977827050998,0.23951004953988558
9.043348115299334,0.2930162995335798
9.076718403547671,0.39093876129079524
9.110088691796008,0.523097938893155
9.143458980044347,0.6571072485092297
9.176829268292684,0.7544797768931584
9.21019955654102,0.7888444298882606
9.243569844789358,0.756921825762586
9.276940133037694,0.677036988093571
9.310310421286031,0.5768056825848792
9.343680709534368,0.477477540963188
9.377050997782705,0.38395841081944027
9.410421286031042,0.2858935170874239
9.443791574279379,0.16853148092667036
9.477161862527716,0.026336874698975592
9.510532150776053,-0.1291951288029999
9.543902439024391,-0.27256672205651056
9.577272727272728,-0.3767950213363955
9.610643015521065,-0.42844572481386706
9.644013303769402,-0.4364785032253233
9.677383592017739,-0.4292642037348778
9.710753880266076,-0.44034126322481315
9.744124168514412,-0.4895980733283402
9.77749445676275,-0.5694683698620202
9.810864745011086,-0.6438877881849545
9.844235033259423,-0.6619464320973231
9.87760532150776,-0.5810413672209462
9.910975609756099,-0.3892214330729887
9.944345898004435,-0.11587378962063781
9.977716186252772,0.1754589229342486
10.01108647450111,0.41027118931519235
10.044456762749446,0.5325514829685094
10.077827050997783,0.5270752733667292
10.11119733924612,0.42398324703717527
10.144567627494457,0.2835590886860761
10.177937915742794,0.16890228177667793
10.21130820399113,0.11993336206216391
10.244678492239467,0.14068592701416732
10.278048780487804,0.20417863574635897
10.311419068736143,0.2699398123917797
10.34478935698448,0.30370789404123677
10.378159645232817,0.2895944980940082
10.411529933481154,0.2307853647738293
10.44490022172949,0.14165943351630347
10.478270509977827,0.038022841219836505
10.511640798226164,-0.06864667712358866
10.545011086474501,-0.171104807490864
10.578381374722838,-0.2627871578072158
10.611751662971175,-0.3349528416211505
10.645121951219512,-0.37732892791507827
10.67849223946785,-0.3820252999605952
10.711862527716187,-0.3480345022529358
10.745232815964524,-0.28326381006135465
10.778603104212861,-0.2026806096226912
10.811973392461198,-0.1234384666076271
10.845343680709535,-0.05929262746502436
10.878713968957872,-0.01658916358047996
10.912084257206208,0.006914455371116531
10.945454545454545,0.020274351456917913
10.978824833702882,0.035266902774393545
11.012195121951219,0.06114537799596417
11.045565410199556,0.09997878064257282
11.078935698447895,0.14466970347407124
11.112305986696231,0.1812509945274152
11.145676274944568,0.19532977521219327
11.179046563192905,0.18015858035712434
11.212416851441242,0.14218711606760406
11.245787139689579,0.10044211320683147
11.279157427937916,0.07892719290463047
11.312527716186253,0.0951107047474794
11.34589800443459,0.15023465039021985
11.379268292682926,0.22683438607520767
11.412638580931263,0.2953861619011119
11.4460088691796,0.3271781228425124
11.479379157427939,0.30702089771964014
11.512749445676276,0.23929245985922093
11.546119733924613,0.14419535096861272
11.57949002217295,0.0461749941290179
11.612860310421286,-0.039519054224755656
11.646230598669623,-0.11521333992587482
11.67960088691796,-0.19968843976238673
11.712971175166297,-0.317582143840355
11.746341463414634,-0.48368671988897044
11.77971175166297,-0.6889787381124417
11.813082039911308,-0.8950226443338223
11.846452328159646,-1.0406387036995817
11.879822616407983,-1.0602117152934307
11.91319290465632,-0.9080894846428006
11.946563192904657,-0.5799950190977484
11.979933481152994,-0.12208461887432016
12.01330376940133,0.37787268214341974
12.046674057649668,0.8157109473997581
12.080044345898004,1.1037223500095306
12.113414634146341,1.1984213686979743
12.146784922394678,1.112070337983369
12.180155210643015,0.9035252718324809
12.213525498891352,0.6527811733153777
12.24689578713969,0.430421372449283
12.280266075388028,0.2748079048673896
12.313636363636364,0.1855778315353735
12.347006651884701,0.1340162327140674
12.380376940133038,0.08318303842655528
12.413747228381375,0.007055024591338949
12.447117516629712,-0.10005834889912582
12.480487804878049,-0.22640894032445721
12.513858093126386,-0.3538180606460991
12.547228381374723,-0.46885373188732016
12.58059866962306,-0.5673319216030022
12.613968957871396,-0.6503013783931963
12.647339246119735,-0.7154418202427949
12.680709534368072,-0.7508275042620972
12.714079822616409,-0.7364793856566874
12.747450110864746,-0.6540325168011073
12.780820399113082,-0.4993324789242256
12.81419068736142,-0.2902554136383661
12.847560975609756,-0.06416073673425865
12.880931263858093,0.13497806885371144
12.91430155210643,0.2738079823235414
12.947671840354767,0.34253517394214567
12.981042128603104,0.3570309514584191
13.014412416851442,0.3492917401880611
13.04778270509978,0.35144942336468127
13.081152993348116,0.3814644697912212
13.114523281596453,0.4370908581076807
13.14789356984479,0.49992195817306717
13.181263858093127,0.5462266613514593
13.214634146341464,0.5585588775984367
13.2480044345898,0.5327414044644682
13.281374722838137,0.4778307473469335
13.314745011086474,0.41014825887601547
13.348115299334811,0.34478930411044534
13.381485587583148,0.2885429004783224
13.414855875831487,0.23711303421543103
13.448226164079824,0.17760609078164385
13.48159645232816,0.0951476307985449
13.514966740576497,-0.019183610163422665
13.548337028824834,-0.16265342803721602
13.581707317073171,-0.32033560856679555
13.615077605321508,-0.47060545628513445
13.648447893569845,-0.5945592909321948
13.681818181818182,-0.6847293284219724
13.715188470066519,-0.7480057785819342
13.748558758314855,-0.8001446014837249
13.781929046563192,-0.8538035095633815
13.815299334811531,-0.9062961969962172
13.848669623059868,-0.9344863876435692
13.882039911308205,-0.9012236214770556
13.915410199556542,-0.7716812529874808
13.948780487804878,-0.5321125615093626
13.982150776053215,-0.20134843049519172
14.015521064301552,0.1715577026621427
14.048891352549889,0.5231616405795451
14.082261640798226,0.7975303592124541
14.115631929046563,0.9637807349000662
14.1490022172949,1.0215414998746906
14.182372505543238,0.9933633658192592
14.215742793791575,0.9098002954624462
14.249113082039912,0.7957726070656999
14.282483370288249,0.6646788808563285
14.315853658536586,0.5213525845234903
14.349223946784923,0.3697965100657063
14.38259423503326,0.21955209002621526
14.415964523281596,0.08631097486371908
14.449334811529933,-0.013568974539455426
14.48270509977827,-0.07120645356631632
14.516075388026607,-0.09110659296700635
14.549445676274944,-0.0912862960819001
14.582815964523283,-0.09713332830826507
14.61618625277162,-0.13155600145156077
14.649556541019956,-0.20556731883475998
14.682926829268293,-0.313128559871201
14.71629711751663,-0.4323103296431712
14.749667405764967,-0.5324659907583951
14.783037694013304,-0.5849260706755418
14.81640798226164,-0.5733127716370694
14.849778270509978,-0.4994717043465639
14.883148558758315,-0.3825415457212518
14.916518847006651,-0.2514881500354207
14.949889135254988,-0.13430342529220812
14.983259423503327,-0.048483111406404385
15.016629711751664,0.0034376686756983827
15.05,0.032045200501406065
15.083370288248338,0.054438665645856324
15.116740576496674,0.08610202956189847
15.150110864745011,0.13466321478516344
15.183481152993348,0.1977943229541052
15.216851441241685,0.26561567955471566
15.250221729490022,0.326015136086146
15.283592017738359,0.370046300494949
15.316962305986696,0.3946936656304271
15.350332594235034,0.40189799794502695
15.383702882483371,0.39501558891137734
15.417073170731708,0.3754043401614226
15.450443458980045,0.34149244379176436
15.483813747228382,0.29068361703586715
15.517184035476719,0.2222728146769457
15.550554323725056,0.13885299498505976
15.583924611973393,0.044994043441806436
15.61729490022173,-0.05575926065419417
15.650665188470066,-0.1629966116069316
15.684035476718403,-0.27841392966901507
15.71740576496674,-0.40144796407896477
15.750776053215079,-0.5239296511769023
15.784146341463416,-0.6275793681044972
15.817516629711752,-0.6873747070807054
15.85088691796009,-0.6807763765998355
15.884257206208426,-0.5989852278638708
15.917627494456763,-0.45417491064391247
15.9509977827051,-0.2777928381186287
15.984368070953437,-0.10942096979146157
16.017738359201775,0.018951899984026237
16.05110864745011,0.09530893937777025
16.08447893569845,0.13005301120306068
16.117849223946784,0.1472889182435311
16.151219512195123,0.17000891763385872
16.184589800443458,0.20766273761724696
16.217960088691797,0.2529493928888087
16.251330376940132,0.28897796255925734
16.28470066518847,0.3017729963217183
16.31807095343681,0.29022360147427956
16.351441241685144,0.267563100414145
16.384811529933483,0.2538240304452846
16.418181818181818,0.2640367324994015
16.451552106430157,0.2991463497675221
16.48492239467849,0.3447363121519065
16.51829268292683,0.3780986079439265
16.551662971175165,0.37969459088109503
16.585033259423504,0.3429451994491442
16.61840354767184,0.27739638149108264
16.651773835920178,0.20377473619418252
16.685144124168513,0.14343507977854614
16.71851441241685,0.10733351460875958
16.75188470066519,0.089827175639973
16.785254988913525,0.07034026325700525
16.818625277161864,0.02233922089193012
16.8519955654102,-0.07423406980663139
16.885365853658538,-0.2224789729783767
16.918736141906873,-0.4046178467133495
16.95210643015521,-0.5865165568553873
16.985476718403547,-0.7289941300476639
17.018847006651885,-0.8014166943427635
17.05221729490022,-0.7920773736858966
17.08558758314856,-0.7111908697045127
17.118957871396898,-0.5854503993506414
17.152328159645233,-0.4466538893058911
17.18569844789357,-0.31933048987135026
17.219068736141907,-0.21254254951811566
17.252439024390245,-0.11907172599937135
17.28580931263858,-0.021958031312889904
17.31917960088692,0.09474533736497519
