Time (s),Filtered Signal
0.0,0.021458380625916765
0.033370165745856356,-0.15653233586392606
0.06674033149171271,-0.2770535433487796
0.10011049723756907,-0.3027882971612357
0.13348066298342542,-0.2281299719137767
0.16685082872928178,-0.07774917980578845
0.20022099447513814,0.10555455070920032
0.2335911602209945,0.27703190216982204
0.26696132596685085,0.4031019048857925
0.30033149171270723,0.4674577324728497
0.33370165745856356,0.4703816876573437
0.3670718232044199,0.4241401138604584
0.4004419889502763,0.3474919583126181
0.43381215469613266,0.26088396608397746
0.467182320441989,0.18245215704255482
0.5005524861878453,0.12457670373106158
0.5339226519337017,0.09134508164046524
0.5672928176795581,0.07794308858185481
0.6006629834254145,0.07283637565896506
0.6340331491712707,0.06248985083002821
0.6674033149171271,0.036978412962538856
0.7007734806629835,-0.005867205851677462
0.7341436464088398,-0.05962384881414648
0.7675138121546962,-0.11210496629574049
0.8008839779005525,-0.15056228597266608
0.8342541436464089,-0.16698930593732178
0.8676243093922653,-0.1613433108357873
0.9009944751381216,-0.1414998493810707
0.934364640883978,-0.12014094878943014
0.9677348066298344,-0.10996033336113098
1.0011049723756906,-0.11911329083073295
1.0344751381215471,-0.14860136533447238
1.0678453038674034,-0.19241454932174792
1.1012154696132597,-0.2401265653898856
1.1345856353591162,-0.2807098900169007
1.1679558011049724,-0.3059833628827799
1.201325966850829,-0.31245599494489495
1.2346961325966852,-0.3011854947405391
1.2680662983425415,-0.27618186618027923
1.301436464088398,-0.24239871545375952
1.3348066298342542,-0.20425926276980452
1.3681767955801105,-0.16510500836073244
1.401546961325967,-0.12731266062148366
1.4349171270718233,-0.0924690154793021
1.4682872928176796,-0.06108184082880981
1.501657458563536,-0.03173901334943956
1.5350276243093923,-0.00015168507356511362
1.5683977900552488,0.04113992026349355
1.601767955801105,0.10163832638456663
1.6351381215469614,0.19001119709359507
1.6685082872928179,0.30989642151127444
1.7018784530386741,0.45567238554017425
1.7352486187845306,0.6100555819351251
1.768618784530387,0.745309340377002
1.8019889502762432,0.8288853909929605
1.8353591160220997,0.8326103153424607
1.868729281767956,0.7426590766882522
1.9020994475138122,0.5664304168310639
1.9354696132596687,0.33288042692876013
1.968839779005525,0.0851108734335624
2.0022099447513813,-0.13267882774254838
2.0355801104972375,-0.288934542971046
2.0689502762430942,-0.3735230422738411
2.1023204419889505,-0.3979468037388311
2.135690607734807,-0.387367882689824
2.169060773480663,-0.3685797123526127
2.2024309392265193,-0.35960223071168007
2.235801104972376,-0.36515553817702257
2.2691712707182323,-0.37887106366222895
2.3025414364640886,-0.38971996816660026
2.335911602209945,-0.38855349525991273
2.369281767955801,-0.3714595735704972
2.402651933701658,-0.339077329942251
2.436022099447514,-0.2935144196868501
2.4693922651933704,-0.23565798981074212
2.5027624309392267,-0.16494245494749227
2.536132596685083,-0.08164433424309986
2.5695027624309392,0.010162343055443996
2.602872928176796,0.10149655831320152
2.636243093922652,0.18063191108532178
2.6696132596685085,0.2378004064237736
2.7029834254143648,0.2698240029992798
2.736353591160221,0.281675361242093
2.7697237569060777,0.2834651411386389
2.803093922651934,0.2839968389806047
2.8364640883977903,0.2843459953731498
2.8698342541436466,0.2754813661340569
2.903204419889503,0.24218151015614628
2.936574585635359,0.1721068380286769
2.969944751381216,0.06559001334342356
3.003314917127072,-0.05956169476597726
3.0366850828729284,-0.1721257210327258
3.0700552486187846,-0.2398724654397763
3.103425414364641,-0.2449941010438718
3.1367955801104976,-0.19467407061402245
3.170165745856354,-0.12039614687893552
3.20353591160221,-0.06481629510181093
3.2369060773480665,-0.06158258960101532
3.2702762430939227,-0.11792264631587851
3.3036464088397794,-0.20936305001274658
3.3370165745856357,-0.29022660781779436
3.370386740331492,-0.31523609510217493
3.4037569060773483,-0.26123664026099036
3.4371270718232045,-0.13763683427604512
3.4704972375690613,0.01975465606798647
3.5038674033149175,0.1676654556714394
3.537237569060774,0.27639795883908613
3.57060773480663,0.34172396776337366
3.6039779005524863,0.38212398991994045
3.6373480662983426,0.4242076620165745
3.6707182320441993,0.4851939848675166
3.7040883977900556,0.5619611021284635
3.737458563535912,0.6316935876339707
3.770828729281768,0.6626345741629762
3.8041988950276244,0.6286152257040661
3.837569060773481,0.5201209663217065
3.8709392265193374,0.3474572840082721
3.9043093922651937,0.13599151807250373
3.93767955801105,-0.0830610736981429
3.9710497237569062,-0.2817827673674103
4.0044198895027625,-0.44138031821470186
4.037790055248619,-0.5537646237458873
4.071160220994475,-0.6198803863131263
4.104530386740332,-0.6465498915711477
4.1379005524861885,-0.6433064491556006
4.171270718232044,-0.6199487509371001
4.204640883977901,-0.5849280738529669
4.238011049723757,-0.544438233155995
4.271381215469614,-0.5021224921939379
4.30475138121547,-0.45938977572780754
4.338121546961326,-0.416256136143242
4.371491712707183,-0.3724058030881548
4.404861878453039,-0.3279781540634382
4.438232044198895,-0.2836268266263724
4.471602209944752,-0.2397165796913277
4.504972375690608,-0.1949868197553584
4.538342541436465,-0.14538485950462107
4.5717127071823205,-0.08386626934502787
4.605082872928177,-0.0017104382945612865
4.638453038674034,0.10863200595399258
4.67182320441989,0.2498077807232212
4.7051933701657465,0.41617548799970766
4.738563535911602,0.5922405078730105
4.771933701657459,0.7540812585300332
4.805303867403316,0.8740543097548267
4.8386740331491715,0.927837134515285
4.872044198895028,0.9017556530829411
4.905414364640884,0.7978653309067054
4.938784530386741,0.6347410937329779
4.972154696132597,0.44332574691363574
5.005524861878453,0.25898531236940003
5.03889502762431,0.11234872666817027
5.072265193370166,0.021908123855540033
5.105635359116023,-0.009436430378820118
5.1390055248618784,0.006757592925061703
5.172375690607735,0.049322992982672655
5.205745856353592,0.09426050399681074
5.239116022099448,0.12149321053756135
5.272486187845304,0.1199337385751228
5.30585635359116,0.08962772199128843
5.339226519337017,0.04025858125851872
5.372596685082874,-0.013861621517036399
5.4059668508287295,-0.06089574420448862
5.439337016574586,-0.09787141009871259
5.472707182320442,-0.13297354572190112
5.506077348066299,-0.18152721040696548
5.5394475138121555,-0.25649664945740647
5.572817679558011,-0.3579992987268543
5.606187845303868,-0.4683948266627509
5.639558011049724,-0.5579724143509995
5.672928176795581,-0.6009289554014234
5.706298342541437,-0.5945267821706769
5.739668508287293,-0.5700396396963645
5.77303867403315,-0.5858003392020084
5.806408839779006,-0.7008717250786396
5.839779005524862,-0.939122670789279
5.873149171270718,-1.2616764655425574
5.906519337016575,-1.5652400614723283
5.939889502762432,-1.7132041902033626
5.9732596685082875,-1.5898489465769827
6.006629834254144,-1.1539895829119813
6.04,-0.46538486599975687
6.073370165745857,0.33154215651765895
6.1067403314917135,1.0614055364638868
6.140110497237569,1.584440412653233
6.173480662983426,1.8445750401394254
6.206850828729282,1.8773549861418761
6.240220994475139,1.7770269570074146
6.273591160220995,1.6424467751928993
6.306961325966851,1.5302996473164119
6.340331491712708,1.4375431181840983
6.373701657458564,1.3178220394312103
6.40707182320442,1.1188945103440278
6.440441988950277,0.8191089348986316
6.473812154696133,0.4442736015660442
6.50718232044199,0.05854391034488813
6.5405524861878455,-0.26330947637720775
6.573922651933702,-0.4668169332165233
6.607292817679559,-0.537140400508613
6.640662983425415,-0.4996563538476287
6.674033149171271,-0.40437652249915484
6.707403314917127,-0.30373659892894295
6.740773480662984,-0.23462198930815542
6.774143646408841,-0.21145496281026896
6.8075138121546965,-0.23048419195360206
6.840883977900553,-0.27982942722417714
6.874254143646409,-0.3481369654706414
6.907624309392266,-0.42732424522337187
6.9409944751381225,-0.5097703344921576
6.974364640883978,-0.5842154856379009
7.007734806629835,-0.6351849986527272
7.041104972375691,-0.6478368535202021
7.074475138121548,-0.615852896584643
7.107845303867403,-0.5472427357432217
7.14121546961326,-0.46354628933133346
7.174585635359117,-0.3915784205669487
7.207955801104973,-0.3513219337587581
7.241325966850829,-0.3461144107438627
7.274696132596685,-0.36034518905633417
7.308066298342542,-0.36602694622759546
7.341436464088399,-0.3350704394920129
7.3748066298342545,-0.25139761579150277
7.408176795580111,-0.1174947283306002
7.441546961325967,0.04691953182412548
7.474917127071824,0.21265765215704302
7.5082872928176805,0.3513136846508267
7.541657458563536,0.44380653541668513
7.575027624309393,0.48461601012162
7.608397790055249,0.4813126959248719
7.641767955801106,0.45060140267835935
7.675138121546962,0.4126406756918137
7.708508287292818,0.38516255024875756
7.741878453038675,0.37854555189691086
7.775248618784531,0.39288074597409334
7.808618784530387,0.4180330545138732
7.841988950276244,0.4372248417674976
7.8753591160221,0.4335008476021555
7.908729281767957,0.39696874164016466
7.9420994475138125,0.32981900341151726
7.975469613259669,0.24655735591403966
8.008839779005525,0.1687060635743622
8.042209944751383,0.11572532969466001
8.075580110497238,0.09589494366228399
8.108950276243094,0.1013341159486183
8.14232044198895,0.1098535706836453
8.175690607734808,0.09346458032660186
8.209060773480664,0.03035405034336438
8.24243093922652,-0.08464080410100547
8.275801104972377,-0.2356765845746147
8.309171270718233,-0.3898683605819881
8.342541436464089,-0.5082996106106347
8.375911602209946,-0.5597977191426834
8.409281767955802,-0.532019596805882
8.442651933701658,-0.4355658412851097
8.476022099447514,-0.2997788257958109
8.509392265193371,-0.16219393601845325
8.542762430939227,-0.05585788613346384
8.576132596685083,0.0008808706160406037
8.60950276243094,0.008826550732328632
8.642872928176796,-0.01439864756686147
8.676243093922652,-0.04224027874286689
8.709613259668508,-0.049757149929356044
8.742983425414366,-0.02321358586585359
8.776353591160222,0.03457702121736602
8.809723756906077,0.10512113527483194
8.843093922651935,0.1611889577132401
8.87646408839779,0.17741451594353239
8.909834254143647,0.14054586623671045
8.943204419889504,0.05525296205281357
8.97657458563536,-0.05693396594114919
9.009944751381216,-0.1651621244459789
9.043314917127072,-0.24015893815627248
9.07668508287293,-0.2640636572444198
9.110055248618785,-0.23543054468845453
9.143425414364641,-0.16792853574874145
9.176795580110499,-0.08398010839981081
9.210165745856354,-0.006454581541649471
9.24353591160221,0.048185220002171285
9.276906077348068,0.07309593913879085
9.310276243093924,0.07037071501169671
9.34364640883978,0.0478558382397976
9.377016574585635,0.015515360610339967
9.410386740331493,-0.01708011176779113
9.443756906077349,-0.04170684036545977
9.477127071823205,-0.05152589209931219
9.510497237569062,-0.04125124474303412
9.543867403314918,-0.008065158577789066
9.577237569060774,0.04701175679808513
9.610607734806631,0.11832880265879699
9.643977900552487,0.19642792055082983
9.677348066298343,0.2706637814709689
9.710718232044199,0.3325653078008747
9.744088397790057,0.378096520959105
9.777458563535912,0.4073241715120416
9.810828729281768,0.42148754500261915
9.844198895027626,0.4192663747300751
9.877569060773482,0.3949299002210025
9.910939226519337,0.3402168388097404
9.944309392265193,0.24952944923926934
9.97767955801105,0.12568156038412304
10.011049723756907,-0.017391539754208006
10.044419889502763,-0.15717487638386116
10.07779005524862,-0.26973816761104874
10.111160220994476,-0.33830309478753534
10.144530386740332,-0.3591785788727138
10.17790055248619,-0.3423631581797455
10.211270718232045,-0.30672490973294897
10.244640883977901,-0.27212666879228004
10.278011049723757,-0.252030650044575
10.311381215469615,-0.2496245201192719
10.34475138121547,-0.2587438418951257
10.378121546961326,-0.26866179997062195
10.411491712707184,-0.27012518590894535
10.44486187845304,-0.2595736501319288
10.478232044198895,-0.2395187773493224
10.511602209944753,-0.21513425833404562
10.544972375690609,-0.18921230775774456
10.578342541436465,-0.15865964394443163
10.61171270718232,-0.11500300253512802
10.645082872928178,-0.04919259435436725
10.678453038674034,0.04158050849642505
10.71182320441989,0.1488740179664285
10.745193370165747,0.2531147502532891
10.778563535911603,0.3297034885955991
10.811933701657459,0.3587339268165825
10.845303867403315,0.33375652300776654
10.878674033149172,0.2651745309307342
10.912044198895028,0.17641435395757726
10.945414364640884,0.09462321782312609
10.978784530386742,0.040339149670506176
11.012154696132598,0.02090118075544364
11.045524861878453,0.030230136096477962
11.078895027624311,0.05428200030871808
11.112265193370167,0.07879444704618012
11.145635359116023,0.09525505645961908
11.179005524861878,0.10247482355431921
11.212375690607736,0.10376774292111428
11.245745856353592,0.1020452366152777
11.279116022099448,0.09599543489954857
11.312486187845305,0.07965091490277285
11.345856353591161,0.045649992638761704
11.379226519337017,-0.009554097870465406
11.412596685082875,-0.08137224454702403
11.44596685082873,-0.15612328867920183
11.479337016574586,-0.21433082513582818
11.512707182320442,-0.23713723894062197
11.5460773480663,-0.21321071889934604
11.579447513812156,-0.1432529032423542
11.612817679558011,-0.040258824965101345
11.646187845303869,0.0744789196941429
11.679558011049725,0.1778552503769222
11.71292817679558,0.2512579964569803
11.746298342541436,0.28437690357275125
11.779668508287294,0.275582504553536
11.81303867403315,0.22962212022168707
11.846408839779006,0.1544774824375729
11.879779005524863,0.05917998542041259
11.91314917127072,-0.04672035755903814
11.946519337016575,-0.1527518411715744
11.979889502762433,-0.24767377167720672
12.013259668508288,-0.32122834211549317
12.046629834254144,-0.3671208940497039
12.08,-0.38545991542877484
12.113370165745858,-0.3826029772244183
12.146740331491714,-0.3676096312846235
12.18011049723757,-0.34666646733104256
12.213480662983427,-0.31855511459805197
12.246850828729283,-0.2742327302471303
12.280220994475139,-0.20160788317815892
12.313591160220996,-0.09360351426163703
12.346961325966852,0.04465559570516981
12.380331491712708,0.193747285245576
12.413701657458564,0.32478853191940665
12.447071823204421,0.4094728748465667
12.480441988950277,0.4308102030097723
12.513812154696133,0.389657845927109
12.54718232044199,0.3042444578371553
12.580552486187846,0.20326460380028136
12.613922651933702,0.11589923105883333
12.64729281767956,0.06295941113736075
12.680662983425416,0.05214474583714038
12.714033149171271,0.07814428579041321
12.747403314917127,0.12632998006809726
12.780773480662985,0.17796751982699702
12.81414364640884,0.21520019672828467
12.847513812154697,0.2249050940651221
12.880883977900554,0.20116419672774263
12.91425414364641,0.1462447597019286
12.947624309392266,0.06987121675162376
12.980994475138122,-0.013353511629720715
13.01436464088398,-0.08800623013630059
13.047734806629835,-0.1422543267023127
13.081104972375691,-0.17102635430805044
13.114475138121549,-0.17665274757355248
13.147845303867404,-0.1667855968244347
13.18121546961326,-0.1507567994237476
13.214585635359118,-0.13631136218887038
13.247955801104974,-0.12828833397965816
13.28132596685083,-0.12944847978068316
13.314696132596685,-0.14211866444037533
13.348066298342543,-0.1687074702758788
13.381436464088399,-0.20997968915388363
13.414806629834255,-0.26179766781828195
13.448176795580112,-0.3126187851097725
13.481546961325968,-0.3442112185658161
13.514917127071824,-0.33653163200930264
13.548287292817681,-0.27532981077206836
13.581657458563537,-0.15922102222986556
13.615027624309393,-0.0027934209657314514
13.648397790055249,0.16608047033391443
13.681767955801106,0.3140378505008123
13.715138121546962,0.4122601786970413
13.748508287292818,0.4450194301766063
13.781878453038676,0.41370546197074937
13.815248618784532,0.3351314389095743
13.848618784530387,0.23506781473378066
13.881988950276245,0.13961188689471565
13.9153591160221,0.06758196229513562
13.948729281767957,0.026466085934201366
13.982099447513813,0.012859002936757628
14.01546961325967,0.01647030255307576
14.048839779005526,0.0254779210927732
14.082209944751382,0.030789111276011975
14.11558011049724,0.027696689279250876
14.148950276243095,0.014970956110356978
14.182320441988951,-0.007221999455112636
14.215690607734807,-0.038762900385637546
14.249060773480664,-0.07928350394486815
14.28243093922652,-0.1264153547675397
14.315801104972376,-0.1740369814117727
14.349171270718234,-0.21218756950192003
14.38254143646409,-0.22942734642547125
14.415911602209945,-0.21696330618015064
14.449281767955803,-0.17268647365693177
14.482651933701659,-0.10307311377711914
14.516022099447515,-0.021820497951410174
14.54939226519337,0.05436469644153361
14.582762430939228,0.11104625808278448
14.616132596685084,0.14015082716937927
14.64950276243094,0.1412537641394252
14.682872928176797,0.11986258262625521
14.716243093922653,0.08399167659055033
14.749613259668509,0.041090572147997176
14.782983425414367,-0.003026736707587217
14.816353591160222,-0.04303150596124314
14.849723756906078,-0.07212243270079446
14.883093922651934,-0.08146692556698486
14.916464088397792,-0.06255457655821274
14.949834254143648,-0.01203876956426229
14.983204419889503,0.0634284635818948
15.016574585635361,0.14569996093623447
15.049944751381217,0.20914810868470798
15.083314917127073,0.22961268584537697
15.116685082872928,0.19478788298518057
15.150055248618786,0.11114187361740592
15.183425414364642,0.003510806482297081
15.216795580110498,-0.09331021872753907
15.250165745856355,-0.14784763281966976
15.283535911602211,-0.14446450729819643
15.316906077348067,-0.08961737029227151
15.350276243093925,-0.009158933156930619
15.38364640883978,0.06195017151163276
15.417016574585636,0.09289286727562708
15.450386740331492,0.06769848257988689
15.48375690607735,-0.01037580231101503
15.517127071823205,-0.12137115305750655
15.550497237569061,-0.23583078708131638
15.583867403314919,-0.323339155518018
15.617237569060775,-0.35976096981106986
15.65060773480663,-0.3320809596459266
15.683977900552488,-0.2408641794341764
15.717348066298344,-0.10048061465760469
15.7507182320442,0.0632066819588791
15.784088397790056,0.2180633931096235
15.817458563535913,0.3333310469396248
15.85082872928177,0.3877934106136937
15.884198895027625,0.37560436188383706
15.917569060773483,0.3073152266209726
15.950939226519338,0.2054256231516964
15.984309392265194,0.09612196766474422
16.01767955801105,0.000568385661699043
16.051049723756908,-0.07071152440348695
16.084419889502765,-0.11831298053243361
16.11779005524862,-0.149697342508514
16.151160220994477,-0.17282452037074417
16.18453038674033,-0.1911029610384611
16.21790055248619,-0.20209678212218157
16.251270718232046,-0.200211316718726
16.2846408839779,-0.18140156516513717
16.318011049723758,-0.14700416418707776
16.351381215469615,-0.10449844418444756
16.38475138121547,-0.06481311035964399
16.418121546961327,-0.037620679120372286
16.451491712707185,-0.02694554082431527
16.48486187845304,-0.029043368965205582
16.518232044198896,-0.03329453226133923
16.551602209944754,-0.0255625698929866
16.584972375690608,0.007272825655420125
16.618342541436466,0.07295001336154971
16.651712707182323,0.17064294602726596
16.685082872928177,0.289683819965523
16.718453038674035,0.41075463071620866
16.751823204419892,0.5098080491293262
16.785193370165747,0.5641987515357448
16.818563535911604,0.5593518404989893
16.851933701657458,0.49344238651335903
16.885303867403316,0.37783971135420685
16.918674033149173,0.23274924682140158
16.952044198895027,0.07985395976605358
16.985414364640885,-0.06456623213825341
17.018784530386743,-0.1927394160015327
17.052154696132597,-0.30355445215755256
17.085524861878454,-0.397463687921859
17.118895027624312,-0.47171429118018304
17.152265193370166,-0.5191569424461576
17.185635359116024,-0.5315084768100549
17.21900552486188,-0.5049962969909934
