Frequency (Hz),Amplitude
0.0,9.016675162819928
0.020066889632107024,9.01380277911413
0.04013377926421405,9.005191468196115
0.060200668896321065,8.990858761879462
0.0802675585284281,8.970833917348791
0.10033444816053512,8.945157973788174
0.12040133779264213,8.913883832429905
0.14046822742474915,8.877076360786532
0.1605351170568562,8.834812522038128
0.1806020066889632,8.787181530746425
0.20066889632107024,8.734285036254443
0.22073578595317725,8.676237335297968
0.24080267558528426,8.613165615496523
0.2608695652173913,8.545210231495712
0.2809364548494983,8.47252501558621
0.3010033444816054,8.39527762460985
0.3210702341137124,8.313649924856891
0.34113712374581934,8.227838416432478
0.3612040133779264,8.138054698186378
0.3812709030100334,8.044525973714517
0.4013377926421405,7.947495598095061
0.42140468227424743,7.847223663848636
0.4414715719063545,7.7439876230273805
0.4615384615384615,7.638082940243796
0.4816053511705685,7.529823768733099
0.5016722408026756,7.419543638074239
0.5217391304347826,7.307596137834477
0.5418060200668896,7.1943555760059095
0.5618729096989966,7.080217584531369
0.5819397993311036,6.965599636358894
0.6020066889632107,6.850941429258412
0.6220735785953176,6.736705081112938
0.6421404682274248,6.623375069735586
0.6622073578595318,6.51145783784896
0.6822742474916387,6.40148097137078
0.7023411371237458,6.293991847626964
0.7224080267558528,6.189555641060824
0.7424749163879598,6.088752569422231
0.7625418060200668,5.992174265789467
0.7826086956521738,5.900419173954456
0.802675585284281,5.814086889651389
0.8227424749163879,5.733771410445948
0.8428093645484949,5.6600533144481355
0.862876254180602,5.5934909621872
0.882943143812709,5.53461090417984
0.903010033444816,5.48389777283546
0.923076923076923,5.441784031812786
0.9431438127090299,5.408640036327032
0.963210702341137,5.384764910403675
0.983277591973244,5.370378758935448
1.0033444816053512,5.365616694823932
1.0234113712374582,5.370525072308983
1.0434782608695652,5.385060182876292
1.0635451505016722,5.40908950403273
1.0836120401337792,5.442395413821439
1.1036789297658862,5.484681117485836
1.1237458193979932,5.535578397320956
1.1438127090301002,5.594656706734763
1.1638795986622072,5.661433091084992
1.1839464882943145,5.7353824289164725
1.2040133779264215,5.815947539091434
1.2240802675585283,5.902548779278383
1.2441471571906353,5.994592855543724
1.2642140468227423,6.091480658900558
1.2842809364548495,6.192614032999739
1.3043478260869565,6.2974014515483026
1.3244147157190636,6.4052626416491325
1.3444816053511706,6.515632229855664
1.3645484949832773,6.6279625129236805
1.3846153846153846,6.741725467620064
1.4046822742474916,6.856414116474645
1.4247491638795986,6.971543361892164
1.4448160535117056,7.086650392068502
1.4648829431438126,7.201294750682282
1.4849498327759196,7.315058149867254
1.5050167224080266,7.4275440935665324
1.5250836120401337,7.538377366707471
1.5451505016722407,7.647203435106486
1.5652173913043477,7.753687791794944
1.5852842809364547,7.8575152775844685
1.605351170568562,7.958389397104622
1.625418060200669,8.056031646134329
1.6454849498327757,8.1501808616758
1.6655518394648827,8.240592602738385
1.6856187290969897,8.327038567072881
1.705685618729097,8.409306046993565
1.725752508361204,8.487197425833122
1.745819397993311,8.560529715395672
1.765886287625418,8.62913413392253
1.7859531772575248,8.69285572349486
1.806020066889632,8.751553005410166
1.826086956521739,8.805097671840576
1.846153846153846,8.853374311972086
1.866220735785953,8.89628017080708
1.8862876254180598,8.933724938864794
1.9063545150501673,8.965630571116895
1.926421404682274,8.991931133636161
1.9464882943143813,9.012572676603106
1.966555183946488,9.02751313250183
1.9866220735785953,9.036722238535836
2.0066889632107023,9.040181482503067
2.026755852842809,9.037884071583713
2.0468227424749164,9.029834923712468
2.0668896321070234,9.01605068142679
2.0869565217391304,8.996559748303325
2.1070234113712374,8.971402348314797
2.1270903010033444,8.940630608657502
2.1471571906354514,8.90430866681411
2.1672240802675584,8.862512802824975
2.1872909698996654,8.815331597940759
2.2073578595317724,8.7628661210154
2.2274247491638794,8.705230144165995
2.2474916387959865,8.642550389366301
2.267558528428094,8.574966807743811
2.2876254180602005,8.50263289340253
2.3076923076923075,8.425716033576709
2.3277591973244145,8.34439789681264
2.3478260869565215,8.258874860646403
2.367892976588629,8.169358479858909
2.3879598662207355,8.076075995799725
2.408026755852843,7.979270886421334
2.4280936454849495,7.879203455487264
2.4481605351170566,7.776151457827003
2.468227424749164,7.670410755410996
2.4882943143812706,7.562295996295656
2.508361204013378,7.452141305013591
2.5284280936454846,7.340300968618793
2.548494983277592,7.227150097195899
2.568561872909699,7.113085231069985
2.5886287625418056,6.998524859096793
2.608695652173913,6.883909803213965
2.6287625418060196,6.7697034139249865
2.648829431438127,6.65639150974603
2.668896321070234,6.544481981258586
2.688963210702341,6.434503967953227
2.709030100334448,6.327006504567962
2.7290969899665547,6.222556524614264
2.749163879598662,6.121736104235043
2.769230769230769,6.025138831926767
2.789297658862876,5.933365201822763
2.809364548494983,5.847016953123125
2.82943143812709,5.76669031846785
2.849498327759197,5.692968201195689
2.869565217391304,5.626411375333404
2.8896321070234112,5.567548890027761
2.9096989966555182,5.516867955912796
2.9297658862876252,5.4748036851053845
2.9498327759197323,5.441729136784009
2.9698996655518393,5.417946172912741
2.9899665551839463,5.403677640933896
3.0100334448160533,5.399061363378142
3.0301003344481603,5.404146326099063
3.0501672240802673,5.4188913231671165
3.0702341137123748,5.443166151321187
3.0903010033444813,5.476755270160284
3.1103678929765888,5.519363678087924
3.1304347826086953,5.570624618472774
3.1505016722408024,5.630108639854457
3.1705685618729094,5.697333494626258
3.1906354515050164,5.771774370591543
3.210702341137124,5.852874000587755
3.2307692307692304,5.940052274442003
3.250836120401338,6.032715071158727
3.270903010033445,6.130262124997788
3.2909698996655514,6.232093827350976
3.311036789297659,6.337616940860271
3.3311036789297654,6.446249260112651
3.351170568561873,6.55742329420849
3.3712374581939795,6.670589072071936
3.391304347826087,6.785216184112597
3.411371237458194,6.900795176690086
3.4314381270903005,7.016838411620754
3.451505016722408,7.1328804941885755
3.471571906354515,7.248478361787508
3.491638795986622,7.363211112946657
3.511705685618729,7.476679644135777
3.531772575250836,7.588506150106832
3.551839464882943,7.698333532997166
3.5719063545150496,7.805824756186609
3.591973244147157,7.910662171004187
3.612040133779264,8.012546837766008
3.632107023411371,8.111197857184786
3.652173913043478,8.20635172378838
3.672240802675585,8.297761709476323
3.692307692307692,8.385197282590223
3.712374581939799,8.468443565748386
3.732441471571906,8.547300834082902
3.752508361204013,8.621584054320488
3.7725752508361197,8.69112246428345
3.7926421404682276,8.7557591917842
3.8127090301003346,8.815350911490155
3.832775919732441,8.86976753809787
3.852842809364548,8.918891954040326
3.872909698996655,8.962619769928896
3.8929765886287626,9.000859115979386
3.9130434782608696,9.03353046277116
3.933110367892976,9.060566469826057
3.953177257525083,9.081911860659105
3.9732441471571907,9.097523323137816
3.9933110367892977,9.107369434185312
4.013377926421405,9.111430608070274
4.033444816053511,9.109699067740497
4.053511705685618,9.102178838874703
4.073578595317726,9.088885766546689
4.093645484949833,9.069847554616693
4.113712374581939,9.04510382818422
4.133779264214047,9.014706219654638
4.153846153846153,8.97871847918562
4.173913043478261,8.937216610487479
4.193979933110368,8.89028903314983
4.214046822742475,8.838036772852236
4.234113712374581,8.780573680981496
4.254180602006689,8.718026685316394
4.274247491638796,8.65053607354003
4.294314381270903,8.57825581138813
4.314381270903009,8.50135389721884
4.334448160535117,8.420012754674993
4.354515050167224,8.334429664871536
4.374581939799331,8.244817239144329
4.394648829431437,8.151403932793977
4.414715719063545,8.054434599393892
4.434782608695651,7.954171084036139
4.454849498327759,7.850892852278658
4.474916387959866,7.744897649435179
4.494983277591973,7.636502182101806
4.5150501672240795,7.526042810313109
4.535117056856188,7.413876234329196
4.555183946488294,7.3003801546288924
4.575250836120401,7.185953877090245
4.595317725752508,7.071018827467812
4.615384615384615,6.956018930073375
4.635451505016722,6.84142079506957
4.655518394648829,6.727713647178851
4.6755852842809364,6.615408916284543
4.695652173913043,6.5050393980383925
4.71571906354515,6.397157881238584
4.735785953177258,6.292335129899273
4.7558528428093645,6.191157103580001
4.775919732441471,6.094221302140677
4.795986622073578,6.002132133448975
4.816053511705686,5.9154952276011965
4.8361204013377925,5.834910661479445
4.856187290969899,5.760965114520374
4.8762541806020065,5.694223050199362
4.896321070234113,5.635217105133777
4.916387959866221,5.584437962854937
4.936454849498328,5.542324082778326
4.956521739130435,5.509251734488253
4.976588628762541,5.4855258395960345
4.996655518394649,5.471372135603279
5.016722408026756,5.466931139726704
5.036789297658863,5.472254303301883
5.056856187290969,5.487302615010501
5.076923076923077,5.511947747510625
5.096989966555184,5.545975666689871
5.117056856187291,5.5890924575499294
5.137123745819398,5.640931985545015
5.157190635451505,5.70106492126548
5.177257525083611,5.769008616083448
5.197324414715719,5.8442373250761515
5.217391304347826,5.9261923229276245
5.237458193979933,6.014291536257092
5.257525083612039,6.107938408401973
5.277591973244148,6.206529807746458
5.297658862876254,6.3094628786185645
5.317725752508361,6.416140808328583
5.337792642140468,6.525977542078103
5.357859531772575,6.638401518853675
5.377926421404682,6.752858527484838
5.397993311036789,6.868813795284957
5.418060200668896,6.985753424989499
5.438127090301003,7.103185291878327
5.458193979933109,7.220639504493418
5.478260869565218,7.337668521252151
5.498327759197324,7.453847003031383
5.518394648829431,7.5687714695351955
5.538461538461538,7.6820598156621624
5.558528428093646,7.793350733567246
5.578595317725752,7.902303076865628
5.598662207357859,8.008595195498925
5.618729096989966,8.111924263130486
5.638795986622073,8.212005613452112
5.65886287625418,8.3085720973374
5.678929765886288,8.401373469226106
5.698996655518394,8.490175808331708
5.719063545150501,8.574760978103427
5.739130434782608,8.654926125730686
5.759197324414716,8.73048322225421
5.7792642140468224,8.801258642959583
5.799331103678929,8.867092787107259
5.8193979933110365,8.92783973563964
5.839464882943144,8.983366945254975
5.8595317725752505,9.033554977111677
5.879598662207358,9.078297258395777
5.8996655518394645,9.117499875024887
5.919732441471571,9.15108139385633
5.9397993311036785,9.178972712900505
5.959866220735786,9.20111693820261
5.9799331103678925,9.217469286238329
5.999999999999999,9.22799701086571
6.020066889632107,9.232679354082112
6.040133779264214,9.231507520048066
6.060200668896321,9.224484672057056
6.080267558528428,9.211625952349596
6.100334448160535,9.192958524890082
6.120401337792642,9.168521641444196
6.1404682274247495,9.138366731512052
6.160535117056856,9.102557516885263
6.180602006688963,9.061170151802857
6.200668896321069,9.01429338987787
6.2207357859531776,8.962028779148817
6.240802675585284,8.904490886772331
6.260869565217391,8.841807555006694
6.280936454849498,8.774120190229672
6.301003344481605,8.701584086774364
6.321070234113712,8.624368787335156
6.341137123745819,8.542658481568333
6.361204013377926,8.456652444259852
6.381270903010033,8.366565514017474
6.40133779264214,8.27262861282054
6.421404682274248,8.17508930587008
6.441471571906354,8.074212399955826
6.461538461538461,7.970280576911341
6.481605351170568,7.863595056566355
6.501672240802676,7.754476280812942
6.521739130434782,7.643264606853467
6.54180602006689,7.53032099325609
6.561872909698996,7.4160276569678985
6.581939799331103,7.300788672796439
6.60200668896321,7.185030478963206
6.622073578595318,7.069202243111107
6.642140468227424,6.953776032658253
6.662207357859531,6.839246721827041
6.682274247491639,6.726131555444088
6.702341137123746,6.614969277396299
6.722408026755852,6.506318720499041
6.742474916387959,6.400756745983983
6.762541806020066,6.2988754168242895
6.782608695652174,6.201278292123971
6.80267558528428,6.108575742584751
6.822742474916388,6.0213792124796495
6.842809364548494,5.940294394088134
6.862876254180601,5.865913337661481
6.882943143812709,5.79880559339402
6.903010033444816,5.739508568720311
6.9230769230769225,5.688517378517198
6.94314381270903,5.646274558132162
6.963210702341137,5.613160087524087
6.983277591973244,5.589482225877467
7.0033444816053505,5.575469667572627
7.023411371237458,5.571265493906166
7.0434782608695645,5.576923308347029
7.063545150501672,5.592405812148845
7.083612040133779,5.617585915320836
7.103678929765886,5.652250304516442
7.123745819397993,5.696105225773988
7.143812709030099,5.748784105786002
7.1638795986622075,5.809856544545545
7.183946488294314,5.878838171244541
7.204013377926421,5.95520086268689
7.224080267558528,6.038382871232743
7.2441471571906355,6.127798485391941
7.264214046822742,6.222846937358169
7.2842809364548495,6.3229203658313935
7.304347826086956,6.427410729856919
7.324414715719063,6.5357156438345765
7.34448160535117,6.647243162224023
7.364548494983278,6.761415584304381
7.384615384615384,6.877672375982864
7.404682274247491,6.99547231948727
7.424749163879598,7.114295005642047
7.444816053511706,7.233641780091211
7.464882943143812,7.353036246754678
7.48494983277592,7.47202442099281
7.505016722408026,7.590174612938217
7.525083612040134,7.707077109323103
7.545150501672239,7.822343710602318
7.565217391304348,7.935607169673376
7.585284280936455,8.046520569234808
7.605351170568561,8.154756666862728
7.625418060200669,8.260007230183923
7.645484949832775,8.361982378984404
7.665551839464882,8.460409946588863
7.685618729096991,8.555034869240206
7.705685618729096,8.645618609364682
7.725752508361204,8.731938616400075
7.74581939799331,8.813787827179693
7.765886287625418,8.890974206604383
7.785953177257525,8.963320328415602
7.806020066889631,9.030662995234088
7.826086956521739,9.092852896593282
7.846153846153847,9.149754303427523
7.866220735785952,9.20124479733401
7.88628762541806,9.247215032884439
7.906354515050166,9.287568531293541
7.926421404682274,9.322221503838144
7.946488294314381,9.351102703548268
7.966555183946488,9.374153303849202
7.986622073578595,9.391326803012698
8.006688963210701,9.402588953469959
8.02675585284281,9.40791771524367
8.046822742474916,9.407303232968589
8.066889632107022,9.400747836186438
8.08695652173913,9.388266062819797
8.107023411371236,9.36988470594932
8.127090301003344,9.34564288423751
8.147157190635452,9.315592136558854
8.167224080267557,9.279796541608146
8.187290969899665,9.238332863463881
8.207357859531772,9.191290724277906
8.227424749163879,9.13877280544161
8.247491638795987,9.080895078736237
8.267558528428093,9.017787069101576
8.2876254180602,8.949592150743165
8.307692307692307,8.87646787832695
8.327759197324415,8.798586354965128
8.347826086956522,8.716134638552258
8.367892976588628,8.629315187736445
8.387959866220736,8.538346348369494
8.408026755852843,8.443462880623423
8.42809364548495,8.344916526032332
8.448160535117056,8.242976612447107
8.468227424749163,8.137930693192995
8.488294314381271,8.030085214497515
8.508361204013378,7.91976620239709
8.528428093645484,7.807319956708559
8.548494983277592,7.693113735132012
8.568561872909697,7.577536404998416
8.588628762541806,7.460999033462062
8.608695652173914,7.34393537897034
8.628762541806019,7.226802237582708
8.648829431438127,7.110079587218313
8.668896321070234,6.99427046139606
8.68896321070234,6.879900471915161
8.709030100334449,6.767516887918499
8.729096989966555,6.657687167960505
8.749163879598662,6.550996833574887
8.769230769230768,6.448046569381541
8.789297658862875,6.349448438406559
8.809364548494983,6.255821114747943
8.82943143812709,6.167784061780774
8.849498327759196,6.085950625137511
8.869565217391303,6.010920067077925
8.889632107023411,5.94326864216164
8.909698996655518,5.883539900403353
8.929765886287624,5.8322344972762385
8.949832775919733,5.789799880771709
8.96989966555184,5.7566203023525615
8.989966555183946,5.733007648035003
9.010033444816054,5.719193596092887
9.030100334448159,5.715323570863283
9.050167224080267,5.721452875935983
9.070234113712376,5.737545260392216
9.09030100334448,5.763474011988668
9.110367892976589,5.799025500074293
9.130434782608695,5.843904929525158
9.150501672240802,5.897743934195553
9.17056856187291,5.960109548101521
9.190635451505017,6.0305140511562465
9.210702341137123,6.108425192440504
9.23076923076923,6.1932763400311135
9.250836120401337,6.28447618066733
9.270903010033445,6.381417682048944
9.290969899665551,6.483486123358576
9.311036789297658,6.590066086224473
9.331103678929765,6.700547372502088
9.351170568561873,6.814329873774099
9.37123745819398,6.9308274597446955
9.391304347826086,7.049470979953028
9.411371237458194,7.1697104877465625
9.4314381270903,7.291016799972658
9.451505016722408,7.412882503089874
9.471571906354516,7.534822508799213
9.49163879598662,7.65637425184924
9.511705685618729,7.7770976109125005
9.531772575250837,7.896574621467181
9.551839464882942,8.014409038181268
9.57190635451505,8.130225793831276
9.591973244147155,8.243670392518707
9.612040133779264,8.354408266948411
9.632107023411372,8.462124122776078
9.652173913043477,8.566521287428364
9.672240802675585,8.667321076227427
9.692307692307692,8.764262184978886
9.712374581939798,8.857100115275186
9.732441471571907,8.945606636500893
9.752508361204013,9.029569286789902
9.77257525083612,9.108790913879115
9.792642140468226,9.183089255844967
9.812709030100335,9.252296561027729
9.832775919732441,9.316259245985263
9.852842809364548,9.374837590026111
9.872909698996656,9.427905464711612
9.89297658862876,9.475350096658746
9.91304347826087,9.517071861994463
9.933110367892976,9.552984110889204
9.953177257525082,9.583013020717644
9.97324414715719,9.60709747654682
9.993311036789297,9.625188977826813
10.013377926421404,9.637251570350477
10.033444816053512,9.643261802751741
10.053511705685617,9.643208707022648
10.073578595317725,9.637093802744639
10.093645484949834,9.624931124948334
10.113712374581938,9.606747275734662
10.133779264214047,9.582581500009221
10.153846153846153,9.552485785896852
10.17391304347826,9.516524990614467
10.193979933110368,9.474776992782845
10.214046822742475,9.427332872349345
10.234113712374581,9.374297119468068
10.254180602006688,9.315787873834696
10.274247491638796,9.251937196092044
10.294314381270903,9.182891372996048
10.31438127090301,9.108811258047439
10.334448160535118,9.029872649229528
10.354515050167223,8.946266705325186
10.37458193979933,8.85820040198294
10.394648829431437,8.765897028225153
10.414715719063544,8.669596723392248
10.434782608695652,8.569557053536139
10.454849498327757,8.466053624943772
10.474916387959865,8.359380730702288
10.494983277591974,8.24985202391269
10.515050167224079,8.137801208207382
10.535117056856187,8.023582732502657
10.555183946488295,7.907572472289384
10.5752508361204,7.790168374100891
10.595317725752508,7.671791032977502
10.615384615384615,7.5528841646869225
10.635451505016722,7.433914925134136
10.65551839464883,7.315374018881729
10.675585284280936,7.197775527231545
10.695652173913043,7.081656374338677
10.71571906354515,6.967575338075126
10.735785953177256,6.856111501931915
10.755852842809364,6.7478620366709885
10.775919732441471,6.643439197690409
10.795986622073578,6.543466428549214
10.816053511705684,6.448573475493765
10.836120401337793,6.3593904448247
10.856187290969899,6.2765407767945245
10.876254180602006,6.2006331676273945
10.896321070234114,6.132252544621953
10.916387959866219,6.071950285045412
10.936454849498327,6.020233961535003
10.956521739130435,5.977556985781593
10.97658862876254,5.944308596708616
10.996655518394649,5.920804686496154
11.016722408026755,5.90727996615579
11.036789297658862,5.903881934223589
