Time (s),Filtered Signal
0.0,0.021801872632775766
0.03337000366703337,0.4157655740162341
0.06674000733406674,0.8354235991078821
0.1001100110011001,1.2815449101240401
0.13348001466813347,1.7146674288836978
0.16685001833516683,2.059117179448018
0.2002200220022002,2.2260547106107667
0.2335900256692336,2.1478379348828187
0.26696002933626695,1.8098100078963715
0.3003300330033003,1.2650009491608365
0.33370003667033366,0.6234820078155052
0.36707004033736707,0.018938798631650912
0.4004400440044004,-0.4346355583563356
0.4338100476714338,-0.6785544734782772
0.4671800513384672,-0.7231888413630537
0.5005500550055005,-0.6354840110557191
0.5339200586725339,-0.5072323183420573
0.5672900623395672,-0.41859727680878683
0.6006600660066006,-0.41181553832450873
0.634030069673634,-0.4838132974919663
0.6674000733406673,-0.5972801402027044
0.7007700770077008,-0.7021942238012631
0.7341400806747341,-0.757113703688474
0.7675100843417675,-0.7421036125806509
0.8008800880088008,-0.6606902753911511
0.8342500916758342,-0.5334226903510927
0.8676200953428675,-0.3880533195581837
0.9009900990099009,-0.25064819260915694
0.9343601026769344,-0.13955379842799656
0.9677301063439677,-0.06210443106009798
1.001100110011001,-0.013426530419897087
1.0344701136780343,0.022574549674584648
1.0678401173450678,0.06920361762808931
1.1012101210121013,0.14946815126107307
1.1345801246791345,0.27631899769632245
1.167950128346168,0.44404625356762895
1.2013201320132012,0.6253077584913039
1.2346901356802347,0.7769916819289711
1.268060139347268,0.8544457010085336
1.3014301430143014,0.8290927218606824
1.3348001466813346,0.7016379096608084
1.368170150348368,0.5040086854824203
1.4015401540154016,0.2879659883173414
1.4349101576824348,0.10478657200928494
1.4682801613494683,-0.014840394528531866
1.5016501650165015,-0.07120555643192578
1.535020168683535,-0.09124231973581726
1.5683901723505682,-0.11165619070041424
1.6017601760176017,-0.158051399427407
1.6351301796846351,-0.23075732976653632
1.6685001833516684,-0.30483961501722057
1.7018701870187019,-0.3446732913975191
1.735240190685735,-0.325913438406863
1.7686101943527686,-0.2534209744699234
1.8019801980198018,-0.16491683791924053
1.8353502016868353,-0.11661454363333724
1.8687202053538687,-0.15611274568634387
1.902090209020902,-0.29518572571725266
1.9354602126879354,-0.4967875476044691
1.9688302163549687,-0.6848852333695561
2.002200220022002,-0.7746992611458152
2.0355702236890356,-0.7099729748522062
2.0689402273560686,-0.4891858678118071
2.102310231023102,-0.1673732799070415
2.1356802346901356,0.16769453577978363
2.169050238357169,0.4332693154148194
2.2024202420242025,0.5848314967508355
2.2357902456912355,0.629119816382926
2.269160249358269,0.612010539044081
2.3025302530253025,0.5889352326520981
2.335900256692336,0.593756016737798
2.369270260359369,0.6219418563627912
2.4026402640264024,0.6358852576675383
2.436010267693436,0.5885087977959614
2.4693802713604693,0.4519176803042814
2.502750275027503,0.2355476887421665
2.536120278694536,-0.01580356835772154
2.5694902823615693,-0.24267764677492554
2.6028602860286028,-0.3989160450734483
2.636230289695636,-0.47174600641034314
2.6696002933626692,-0.48354267789617444
2.7029702970297027,-0.47506660445819715
2.736340300696736,-0.47997577713467177
2.7697103043637696,-0.5047521929674741
2.803080308030803,-0.5248261182163912
2.836450311697836,-0.4987916004458761
2.8698203153648696,-0.39304755882053133
2.903190319031903,-0.20385175955325358
2.9365603226989365,0.03482200292294818
2.96993032636597,0.26195286056070904
3.003300330033003,0.4136200321222824
3.0366703337000365,0.44895810969627564
3.07004033736707,0.3658192293316652
3.1034103410341034,0.19984949713024552
3.1367803447011364,0.009229745301619878
3.17015034836817,-0.14636653983339273
3.2035203520352034,-0.22323450354912347
3.236890355702237,-0.20231778166015846
3.2702603593692703,-0.0894462379300906
3.3036303630363033,0.0893902893049481
3.3370003667033368,0.2947165592044908
3.3703703703703702,0.4814111538331409
3.4037403740374037,0.6080764161105533
3.4371103777044367,0.6471052121330476
3.47048038137147,0.5923634925706895
3.5038503850385037,0.460652893593013
3.537220388705537,0.2852631872508235
3.5705903923725706,0.10391095747170594
3.6039603960396036,-0.0535509736217498
3.637330399706637,-0.17231708867424733
3.6707004033736705,-0.25253812457940344
3.704070407040704,-0.3038556458643242
3.7374404107077375,-0.3387264690628387
3.7708104143747705,-0.36796498791155163
3.804180418041804,-0.3992373760907597
3.8375504217088374,-0.43689184338746034
3.870920425375871,-0.48123848398758207
3.904290429042904,-0.5271028105436703
3.9376604327099374,-0.5634246442606111
3.971030436376971,-0.5759160555386585
4.004400440044004,-0.5528065384826311
4.037770443711038,-0.4909258716072847
4.071140447378071,-0.39814520589104524
4.104510451045105,-0.2898588859491961
4.137880454712137,-0.18087735952326225
4.171250458379171,-0.07728378220036947
4.204620462046204,0.0268026893640187
4.237990465713238,0.14534781561835033
4.271360469380271,0.29127756636027546
4.304730473047305,0.46688664224153253
4.338100476714338,0.6587397522355288
4.3714704803813715,0.8396646891412253
4.404840484048405,0.9770269627653364
4.438210487715438,1.0437370472404697
4.471580491382471,1.0274306465752605
4.5049504950495045,0.9341287794589936
4.538320498716538,0.7849349968286038
4.571690502383571,0.6071571434905175
4.605060506050605,0.4236679563511674
4.638430509717638,0.24529966401271344
4.671800513384672,0.06990120207661836
4.705170517051705,-0.11141050934970866
4.738540520718738,-0.3039484714014347
4.771910524385771,-0.5005630106197522
4.805280528052805,-0.6791865809648774
4.838650531719838,-0.808756484419472
4.872020535386872,-0.8613162855966034
4.905390539053905,-0.8250297198296751
4.938760542720939,-0.7122283435852786
4.972130546387972,-0.5584922938471938
5.005500550055006,-0.41217661228095126
5.038870553722038,-0.3175225448499922
5.072240557389072,-0.29741251634735827
5.105610561056105,-0.34287239546697496
5.138980564723139,-0.41471305322457636
5.172350568390172,-0.45818225684165714
5.2057205720572055,-0.4256121859554392
5.239090575724239,-0.2975555917023834
5.272460579391272,-0.09253877005898375
5.305830583058306,0.13976639682247421
5.3392005867253385,0.33934568886942873
5.372570590392372,0.46108322637185284
5.405940594059405,0.4926704411674849
5.439310597726439,0.4571628428554475
5.472680601393472,0.3997972172891848
5.506050605060506,0.3660572778164126
5.539420608727539,0.38141398227929707
5.572790612394573,0.44143105216379147
5.606160616061606,0.5155249501902521
5.63953061972864,0.5615876368537999
5.672900623395672,0.544607244199705
5.706270627062706,0.45158935923979776
5.739640630729739,0.29718568280270646
5.773010634396773,0.11827624086193063
5.806380638063806,-0.040089475392751574
5.83975064173084,-0.14180227870079104
5.873120645397873,-0.17310205458672961
5.9064906490649065,-0.14695097070788637
5.93986065273194,-0.09669230181244573
5.9732306563989725,-0.06179719479618446
6.006600660066006,-0.07179011532975886
6.0399706637330395,-0.1349573953526211
6.073340667400073,-0.23600411469568544
6.106710671067106,-0.3428046682475778
6.14008067473414,-0.41885164161415683
6.173450678401173,-0.4364225007152835
6.206820682068207,-0.38600906073349034
6.24019068573524,-0.2793218637052491
6.273560689402273,-0.1452405874298938
6.306930693069306,-0.020044955030494985
6.34030069673634,0.06492551649580486
6.373670700403373,0.09377310307015051
6.407040704070407,0.07049477032196459
6.44041070773744,0.01546229091838301
6.473780711404474,-0.04429106612224278
6.507150715071507,-0.08607549252836527
6.540520718738541,-0.09844498350490895
6.573890722405573,-0.08122813701962514
6.607260726072607,-0.040119266663439714
6.64063072973964,0.019593170650908803
6.6740007334066735,0.09543729489638209
6.707370737073707,0.1845329064212129
6.7407407407407405,0.27719952419343885
6.774110744407774,0.35274194310508733
6.807480748074807,0.3822717302310011
6.840850751741841,0.3394944031168167
6.8742207554088735,0.21511319635731171
6.907590759075907,0.027090626180590813
6.94096076274294,-0.1801120560648928
6.974330766409974,-0.34906567108218356
7.007700770077007,-0.43071382465339264
7.041070773744041,-0.40404829203277703
7.074440777411074,-0.2849072801831301
7.107810781078108,-0.11962669507798422
7.141180784745141,0.033706083352237744
7.174550788412174,0.12806565690812305
7.207920792079207,0.1444563458730539
7.241290795746241,0.09605182765494343
7.274660799413274,0.018472921021838395
7.308030803080308,-0.04856110137328062
7.341400806747341,-0.07918373110881594
7.3747708104143745,-0.07039991942300887
7.408140814081408,-0.03831929310754683
7.4415108177484415,-0.004442923554366173
7.474880821415475,0.01988440062348168
7.5082508250825075,0.04179403155366616
7.541620828749541,0.0829420382861909
7.5749908324165744,0.16511364317851765
7.608360836083608,0.2931933617782542
7.641730839750641,0.4451393073223411
7.675100843417675,0.5752736432756299
7.708470847084708,0.630494861211566
7.741840850751742,0.5724658526623211
7.775210854418775,0.39575390071849675
7.808580858085808,0.1336335967654179
7.841950861752841,-0.15131659696864935
7.875320865419875,-0.3882525380672676
7.908690869086908,-0.522434586330955
7.942060872753942,-0.5333749168108936
7.975430876420975,-0.4398519192058803
8.008800880088009,-0.2903947652330047
8.042170883755041,-0.1439120936104569
8.075540887422076,-0.048974182145785645
8.108910891089108,-0.030000754540784734
8.142280894756142,-0.08452495500120626
8.175650898423175,-0.19014984636569351
8.20902090209021,-0.315820765261144
8.242390905757242,-0.43150312970899823
8.275760909424275,-0.5130306304182728
8.309130913091309,-0.5427272609643937
8.342500916758341,-0.5089270021396345
8.375870920425376,-0.4072982731544463
8.409240924092408,-0.24435950922737928
8.442610927759443,-0.04067045054219362
8.475980931426475,0.16998600173831974
8.50935093509351,0.34763820148223706
8.542720938760542,0.45826026997106367
8.576090942427575,0.48661944565180953
8.60946094609461,0.4440421975297496
8.642830949761642,0.3666037103895078
8.676200953428676,0.3028730085653761
8.709570957095709,0.29492317810149055
8.742940960762743,0.35991273272310764
8.776310964429776,0.48034433229754486
8.80968096809681,0.6082456013737341
8.843050971763843,0.6827698275943253
8.876420975430875,0.6545174244262357
8.90979097909791,0.5063304624579282
8.943160982764942,0.2614749678069093
8.976530986431976,-0.024342462612460706
9.009900990099009,-0.2834995979789848
9.043270993766043,-0.46064339179650676
9.076640997433076,-0.5306960583599334
9.11001100110011,-0.5042210194487409
9.143381004767143,-0.4193886014610039
9.176751008434175,-0.32506269211628647
9.21012101210121,-0.2622922505726345
9.243491015768242,-0.2510508997312466
9.276861019435277,-0.28615229188120483
9.31023102310231,-0.34244249928341647
9.343601026769344,-0.3862195030964942
9.376971030436376,-0.3883025993775257
9.41034103410341,-0.33437019794650047
9.443711037770443,-0.22959986156324286
9.477081041437476,-0.09660672920992977
9.51045104510451,0.03235908427069057
9.543821048771543,0.1264026572066052
9.577191052438577,0.16668448786469492
9.61056105610561,0.1533484962108943
9.643931059772644,0.10620033279119181
9.677301063439677,0.058478969990100764
9.710671067106711,0.045251965097341994
9.744041070773743,0.089951360103158
9.777411074440776,0.19373889054749296
9.81078107810781,0.3321280602173631
9.844151081774843,0.4612147310685079
9.877521085441877,0.5322899097122393
9.91089108910891,0.5098163500053419
9.944261092775944,0.3856351458769437
9.977631096442977,0.1832835284557345
10.011001100110011,-0.0496208253782788
10.044371103777044,-0.2577155031363212
10.077741107444076,-0.39602863618780787
10.11111111111111,-0.4427621105439404
10.144481114778143,-0.4026935445246397
10.177851118445178,-0.3016190044837906
10.21122112211221,-0.17554284211276486
10.244591125779245,-0.05910482879802059
10.277961129446277,0.02351689200771096
10.311331133113312,0.0637313630096634
10.344701136780344,0.06919828073047442
10.378071140447377,0.059813564900492826
10.411441144114411,0.05932223483297789
10.444811147781444,0.08439800292508924
10.478181151448478,0.13510215788212698
10.51155115511551,0.19161462731338047
10.544921158782545,0.22047444658523815
10.578291162449577,0.18927782725975537
10.611661166116612,0.08387467954387823
10.645031169783644,-0.08042009431157057
10.678401173450677,-0.26016868667671444
10.711771177117711,-0.3983658687105935
10.745141180784744,-0.4459995028555572
10.778511184451778,-0.3805593698706486
10.81188118811881,-0.21305718418962258
10.845251191785845,0.01861490610428607
10.878621195452878,0.26502576577663817
10.911991199119912,0.4806241035362446
10.945361202786945,0.6324228032752867
10.978731206453979,0.7007229731794495
11.012101210121012,0.6758956572075082
11.045471213788044,0.5566017531207212
11.078841217455079,0.35183903343793754
11.112211221122111,0.08458705739952278
11.145581224789145,-0.20770543298380256
11.178951228456178,-0.4790638897331661
11.212321232123212,-0.6863288014749335
11.245691235790245,-0.8009716070300331
11.27906123945728,-0.8158032068583229
11.312431243124312,-0.7439053247423979
11.345801246791344,-0.6113850626795129
11.379171250458379,-0.4482414769905503
11.412541254125411,-0.2813112140822228
11.445911257792446,-0.13083697390472798
11.479281261459478,-0.009813978987398686
11.512651265126513,0.07558376170858831
11.546021268793545,0.12557416436417074
11.57939127246058,0.1463733415789576
11.612761276127612,0.14932625215555223
11.646131279794645,0.14915375630806893
11.67950128346168,0.16131679539883345
11.712871287128712,0.19885143965069035
11.746241290795746,0.2692008169767733
11.779611294462779,0.37162112798684005
11.812981298129813,0.4957656491434153
11.846351301796846,0.6220744319834007
11.87972130546388,0.7245072014707682
11.913091309130913,0.7757449428544023
11.946461312797945,0.7541361485852037
11.97983131646498,0.650601282880272
12.013201320132012,0.47303451397773577
12.046571323799046,0.2460843527606921
12.079941327466079,0.005685832431428956
12.113311331133113,-0.21024741307300965
12.146681334800146,-0.37199286935392556
12.18005133846718,-0.46572479260995414
12.213421342134213,-0.49635818908602714
12.246791345801245,-0.4847814956641062
12.28016134946828,-0.46039978182799285
12.313531353135312,-0.451168753924199
12.346901356802347,-0.47400800621728306
12.38027136046938,-0.5285692969323234
12.413641364136414,-0.5966396994119205
12.447011367803446,-0.6478869099262969
12.48038137147048,-0.6505092655224949
12.513751375137513,-0.5834081475406463
12.547121378804546,-0.4456144504984672
12.58049138247158,-0.2593092860252909
12.613861386138613,-0.06470859994999409
12.647231389805647,0.09225584445179179
12.68060139347268,0.17587661931471799
12.713971397139714,0.17481975533801764
12.747341400806746,0.10886769743212035
12.78071140447378,0.024597659869793665
12.814081408140813,-0.01976312199564694
12.847451411807846,0.024496578463326975
12.88082141547488,0.17735534625772917
12.914191419141913,0.42071174440539694
12.947561422808947,0.7031153924566317
12.98093142647598,0.956885264113069
13.014301430143014,1.1206168114155837
13.047671433810047,1.157998141600723
13.081041437477081,1.0659997676605464
13.114411441144114,0.8706558711525731
13.147781444811146,0.6140915174498977
13.18115144847818,0.33950262372127143
13.214521452145213,0.08029290655218128
13.247891455812248,-0.14370417291325388
13.28126145947928,-0.32397098003050356
13.314631463146315,-0.4586397677571326
13.348001466813347,-0.5491072094103894
13.381371470480381,-0.599560284068563
13.414741474147414,-0.6183301704823144
13.448111477814447,-0.6183550796149351
13.481481481481481,-0.6144986881794176
13.514851485148514,-0.6177653793915828
13.548221488815548,-0.629137884881869
13.58159149248258,-0.6370504571852831
13.614961496149615,-0.6213201634433541
13.648331499816647,-0.5630094375064427
13.681701503483682,-0.45587768982692967
13.715071507150714,-0.31309071128503946
13.748441510817747,-0.16432778693419206
13.781811514484781,-0.043169973311848624
13.815181518151814,0.029639567008533593
13.848551521818848,0.05818107749699192
13.88192152548588,0.07125191566537929
13.915291529152915,0.10889264973998028
13.948661532819948,0.2016286794478654
13.982031536486982,0.35287411197192986
14.015401540154015,0.533669173589487
14.048771543821047,0.692724773805316
14.082141547488082,0.7771766668195628
14.115511551155114,0.7545587455758223
14.148881554822148,0.6264502668888412
14.182251558489181,0.4284331007659168
14.215621562156215,0.21695088129550616
14.248991565823248,0.0487189884181614
14.282361569490282,-0.0392140694118662
14.315731573157315,-0.04128530749947043
14.349101576824348,0.017098357535312674
14.382471580491382,0.09185644407669258
14.415841584158414,0.139087123571813
14.449211587825449,0.13250922289879205
14.482581591492481,0.07210341702405951
14.515951595159516,-0.019464669801513346
14.549321598826548,-0.11032734122061287
14.582691602493583,-0.1758001490152603
14.616061606160615,-0.2095027417266729
14.649431609827648,-0.22409255609974463
14.682801613494682,-0.24208239884324273
14.716171617161715,-0.28226232988777183
14.749541620828749,-0.349038275670219
14.782911624495782,-0.42978109156711775
14.816281628162816,-0.5006021385080677
14.849651631829849,-0.5366366331103452
14.883021635496883,-0.5212506865052493
14.916391639163916,-0.4501480762288226
14.94976164283095,-0.3298027327063386
14.983131646497982,-0.17275885828410548
15.016501650165015,0.006594088955368515
15.04987165383205,0.19344351331177725
15.083241657499082,0.3713646558119696
15.116611661166116,0.5207900942782513
15.149981664833149,0.6198186921445632
15.183351668500183,0.6486463055200253
15.216721672167216,0.5965565680408377
15.25009167583425,0.46842123319135265
15.283461679501283,0.2871135303373317
15.316831683168315,0.08955085799143793
15.35020168683535,-0.08320232347051065
15.383571690502382,-0.198435232017947
15.416941694169417,-0.24192322533712693
15.45031169783645,-0.2213321337810267
15.483681701503484,-0.16132164846122043
15.517051705170516,-0.09253518059491264
15.55042170883755,-0.03954894287487595
15.583791712504583,-0.013266480250769047
15.617161716171616,-0.010797965074048111
15.65053171983865,-0.021807186439401827
15.683901723505683,-0.03695174639907627
15.717271727172717,-0.05334271627183559
15.75064173083975,-0.07423423041000178
15.784011734506784,-0.1039184219780633
15.817381738173816,-0.141734152874785
15.85075174184085,-0.17951399207049268
15.884121745507883,-0.20453693095477046
15.917491749174916,-0.20647063511889346
15.95086175284195,-0.18397087446637045
15.984231756508983,-0.14632159801305392
16.017601760176017,-0.10818517542749594
16.05097176384305,-0.07985608301220405
16.084341767510082,-0.05879748726878449
16.117711771177117,-0.02832266522044115
16.15108177484415,0.03447953368505151
16.184451778511182,0.14512767858883666
16.217821782178216,0.3000229932708323
16.25119178584525,0.4737538929795912
16.284561789512285,0.6275331407568507
16.317931793179316,0.724290013435344
16.35130179684635,0.7421171492217334
16.384671800513384,0.6792608939978091
16.41804180418042,0.549533536602088
16.45141180784745,0.3728956310102196
16.484781811514484,0.1680186017667205
16.51815181518152,-0.0491733927319297
16.55152181884855,-0.26218372699084874
16.584891822515583,-0.4506570153851254
16.618261826182618,-0.5915182366117749
16.651631829849652,-0.6652107969821409
16.685001833516683,-0.6636969566409803
16.718371837183717,-0.5954173363453167
16.75174184085075,-0.4841746241940341
16.785111844517782,-0.36233495898201107
16.818481848184817,-0.2614692341703051
16.85185185185185,-0.20415599206717766
16.885221855518886,-0.19933538885128063
16.918591859185916,-0.24162163578231077
16.95196186285295,-0.3136233471924078
16.985331866519985,-0.390062384430033
17.01870187018702,-0.4429137130206733
17.05207187385405,-0.4471315522519215
17.085441877521085,-0.3863110715478263
17.11881188118812,-0.2570561659491211
17.15218188485515,-0.07052137336205365
17.185551888522184,0.14991902842500351
17.21892189218922,0.37466666145066296
17.252291895856253,0.5758317072078921
17.285661899523284,0.7342924290659327
