Frequency (Hz),Amplitude
0.0,0.6702360376945005
0.04,0.6701967952885505
0.08,0.67007925719891
0.12,0.6698839901586348
0.16,0.6696119365495474
0.19999999999999998,0.6692644111379674
0.24,0.6688430964960072
0.27999999999999997,0.6683500371002998
0.32,0.6677876320980743
0.36,0.6671586267293477
0.39999999999999997,0.6664661023931653
0.44,0.6657134653458098
0.48,0.6649044340195146
0.52,0.6640430249518595
0.5599999999999999,0.6631335373184788
0.6,0.6621805360653972
0.64,0.6611888336419548
0.6799999999999999,0.6601634703413968
0.72,0.6591096932633721
0.76,0.6580329339213271
0.7999999999999999,0.6569387845276947
0.84,0.6558329730012112
0.88,0.6547213367533139
0.9199999999999999,0.6536097953246075
0.96,0.6525043219573567
1.0,0.6514109142061116
1.04,0.6503355637053156
1.0799999999999998,0.6492842252301404
1.1199999999999999,0.6482627852042518
1.1600000000000001,0.6472770298256452
1.2,0.6463326129984784
1.24,0.6454350242747068
1.28,0.6445895570237241
1.3199999999999998,0.6438012770607505
1.3599999999999999,0.6430749919748375
1.4,0.6424152214047346
1.44,0.6418261685149039
1.48,0.6413116929245619
1.52,0.6408752853391633
1.5599999999999998,0.6405200441263944
1.5999999999999999,0.6402486540670129
1.64,0.6400633674951244
1.68,0.6399659880226171
1.72,0.6399578570188867
1.76,0.6400398429899135
1.7999999999999998,0.6402123339708812
1.8399999999999999,0.6404752330142484
1.88,0.640827956821228
1.92,0.6412694375298904
1.9599999999999997,0.6417981276379631
2.0,0.6424120080040516
2.0399999999999996,0.6431085988378353
2.08,0.6438849735587481
2.12,0.6447377753741045
2.1599999999999997,0.6456632364024409
2.2,0.6466571991460109
2.2399999999999998,0.6477151400986471
2.28,0.6488321952613774
2.3200000000000003,0.6500031873286193
2.36,0.6512226543022276
2.4,0.6524848792890887
2.44,0.6537839212400358
2.48,0.6551136463932694
2.5199999999999996,0.6564677601939111
2.56,0.6578398394722211
2.6,0.659223364676037
2.6399999999999997,0.6606117519676737
2.68,0.6619983850112826
2.7199999999999998,0.6633766462933091
2.76,0.6647399478355127
2.8,0.6660817611769637
2.84,0.6673956465178951
2.88,0.6686752809342283
2.92,0.6699144855866382
2.96,0.6711072518620553
2.9999999999999996,0.6722477663983091
3.04,0.6733304349542769
3.08,0.6743499050980686
3.1199999999999997,0.6753010876947945
3.16,0.6761791771828819
3.1999999999999997,0.6769796706342602
3.2399999999999998,0.677698385598579
3.28,0.6783314767353404
3.32,0.6788754512404276
3.36,0.6793271830748371
3.4,0.6796839260039348
3.44,0.6799433254550536
3.4799999999999995,0.6801034291997734
3.52,0.6801626968651948
3.5599999999999996,0.6801200082756298
3.5999999999999996,0.6799746706226131
3.64,0.6797264244571967
3.6799999999999997,0.6793754484939593
3.7199999999999998,0.6789223632112753
3.76,0.6783682332271911
3.7999999999999994,0.6777145684248241
3.84,0.676963323795601
3.88,0.6761168979629635
3.9199999999999995,0.6751781303436594
3.96,0.6741502968981615
4.0,0.673037104416706
4.04,0.6718426832826278
4.079999999999999,0.6705715786505414
4.12,0.6692287399735295
4.16,0.6678195088110119
4.199999999999999,0.6663496048476848
4.24,0.6648251100540585
4.28,0.6632524509207304
4.319999999999999,0.6616383787022195
4.36,0.6599899476118323
4.4,0.6583144909171383
4.4399999999999995,0.6566195948963337
4.4799999999999995,0.6549130706293445
4.5200000000000005,0.6532029236140432
4.56,0.651497321217709
4.6,0.6498045579968152
4.640000000000001,0.6481330189443675
4.68,0.6464911407533659
4.72,0.6448873712170243
4.76,0.6433301269211881
4.8,0.6418277494210473
4.84,0.6403884601324638
4.88,0.6390203142069099
4.92,0.6377311536975919
4.96,0.6365285603612832
5.0,0.6354198084751832
5.039999999999999,0.6344118180787656
5.08,0.6335111090766441
5.12,0.6327237566580728
5.159999999999999,0.6320553485010174
5.2,0.6315109442328439
5.24,0.6310950376143756
5.279999999999999,0.6308115218992862
5.319999999999999,0.6306636587960401
5.36,0.6306540514249076
5.3999999999999995,0.6307846216186026
5.4399999999999995,0.6310565918625206
5.48,0.631470472110522
5.52,0.6320260516463612
5.56,0.6327223960906044
5.6,0.6335578495804788
5.64,0.6345300420771849
5.68,0.6356359016840805
5.72,0.6368716717915508
5.76,0.6382329328020275
5.8,0.6397146281333411
5.84,0.6413110941511256
5.879999999999999,0.6430160936427628
5.92,0.6448228524163844
5.96,0.6467240985894919
5.999999999999999,0.6487121041219961
6.04,0.6507787281481977
6.08,0.6529154616699892
6.119999999999999,0.6551134731890498
6.16,0.6573636548775842
6.2,0.6596566689141654
6.239999999999999,0.6619829936423276
6.279999999999999,0.6643329692435316
6.32,0.6666968426517781
6.359999999999999,0.6690648114735881
6.3999999999999995,0.6714270667132002
6.44,0.6737738341380844
6.4799999999999995,0.6760954141533608
6.52,0.6783822200851152
6.56,0.6806248148014331
6.6,0.6828139456259975
6.64,0.6849405775222215
6.68,0.686995924545954
6.72,0.6889714795819833
6.76,0.6908590423938159
6.8,0.6926507460277895
6.84,0.6943390816215529
6.88,0.6959169216736768
6.92,0.6973775418355799
6.959999999999999,0.6987146412897007
7.0,0.6999223617785847
7.04,0.700995305349019
7.08,0.7019285508733422
7.119999999999999,0.7027176694068784
7.16,0.7033587384362971
7.199999999999999,0.7038483550685609
7.239999999999999,0.7041836482042475
7.28,0.7043622897323513
7.32,0.7043825047764125
7.359999999999999,0.704243081013827
7.3999999999999995,0.7039433770817288
7.4399999999999995,0.7034833300736916
7.4799999999999995,0.7028634621218239
7.52,0.702084886048631
7.5600000000000005,0.7011493100620877
7.599999999999999,0.700059041456072
7.64,0.6988169892661654
7.68,0.6974266658183542
7.719999999999999,0.6958921870948911
7.76,0.6942182718279349
7.800000000000001,0.6924102392174055
7.839999999999999,0.6904740051549537
7.88,0.6884160768211702
7.92,0.6862435455083536
7.959999999999999,0.6839640775065454
8.0,0.6815859028764212
8.040000000000001,0.6791178019194841
8.08,0.6765690891441355
8.12,0.6739495945163296
8.159999999999998,0.6712696417762682
8.2,0.6685400235985399
8.24,0.6657719733734367
8.28,0.6629771333923133
8.32,0.6601675192313327
8.36,0.6573554801461456
8.399999999999999,0.6545536553166215
8.44,0.6517749258158556
8.48,0.6490323622230136
8.52,0.6463391678549061
8.56,0.6437086176574829
8.6,0.6411539928753778
8.639999999999999,0.6386885117048218
8.68,0.6363252562318451
8.72,0.6340770960617897
8.76,0.6319566091559183
8.8,0.6299760005032261
8.84,0.6281470193667404
8.879999999999999,0.626480875950109
8.92,0.6249881584267574
8.959999999999999,0.6236787513565513
9.0,0.6225617565779554
9.040000000000001,0.6216454177034991
9.079999999999998,0.6209370493583893
9.12,0.6204429722836686
9.16,0.6201684553743237
9.2,0.6201176656389437
9.24,0.6202936269517236
9.280000000000001,0.620698188322866
9.32,0.6213320022436334
9.36,0.622194513473481
9.399999999999999,0.6232839584351846
9.44,0.6245973751774653
9.48,0.6261306236607546
9.52,0.6278784159280583
9.559999999999999,0.6298343555463366
9.6,0.631990985550114
9.639999999999999,0.6343398439929638
9.68,0.636871526116902
9.72,0.639575752086258
9.76,0.6424414392010865
9.8,0.6454567775040746
9.84,0.6486093077216648
9.879999999999999,0.6518860005311465
9.92,0.6552733362162085
9.959999999999999,0.6587573838598881
10.0,0.6623238793208515
10.04,0.6659583013424892
10.079999999999998,0.6696459452500155
10.12,0.6733719937954709
10.16,0.6771215848109354
10.2,0.6808798754243423
10.24,0.6846321026782405
10.280000000000001,0.688363640468521
10.319999999999999,0.6920600527870502
10.36,0.6957071433091577
10.4,0.699291001414041
10.44,0.7027980447642704
10.48,0.7062150585998211
10.52,0.7095292319239646
10.559999999999999,0.7127281907730014
10.6,0.7158000287708941
10.639999999999999,0.7187333351737272
10.68,0.7215172206086012
10.72,0.7241413407079892
10.76,0.7265959178342134
10.799999999999999,0.7288717610802357
10.84,0.7309602847231633
10.879999999999999,0.7328535252956909
10.92,0.7345441574290857
10.96,0.736025508609082
11.0,0.7372915729737317
11.04,0.7383370242697167
11.08,0.7391572280713435
11.12,0.73974825335396
11.16,0.7401068835014236
11.2,0.7402306268149401
11.24,0.7401177265784215
11.28,0.7397671707230653
11.319999999999999,0.7391787011213032
11.36,0.7383528225271215
11.4,0.7372908111661701
11.44,0.7359947229645135
11.48,0.7344674013894974
11.52,0.7327124848593976
11.559999999999999,0.7307344136603282
11.6,0.7285384362889465
11.64,0.7261306151175463
11.68,0.7235178312540125
11.72,0.7207077884424989
11.759999999999998,0.7177090158215698
11.799999999999999,0.7145308693246016
11.84,0.711183531472465
11.879999999999999,0.7076780092711373
11.92,0.7040261298867491
11.96,0.7002405337283221
11.999999999999998,0.6963346645244622
12.04,0.6923227559354552
12.08,0.6882198141976283
12.12,0.6840415962540567
12.16,0.6798045827865058
12.200000000000001,0.6755259455304223
12.239999999999998,0.6712235082304356
12.28,0.666915700581781
12.32,0.6626215045068444
12.36,0.6583603921399407
12.4,0.6541522549418971
12.44,0.6500173234433401
12.479999999999999,0.645976077226145
12.52,0.6420491448999115
12.559999999999999,0.6382571940171095
12.6,0.6346208110980415
12.64,0.6311603722038573
12.68,0.6278959047991185
12.719999999999999,0.6248469419786482
12.76,0.6220323704861128
12.799999999999999,0.6194702743118409
12.84,0.6171777760071854
12.88,0.6151708781743043
12.92,0.613464307862185
12.959999999999999,0.6120713668014699
12.999999999999998,0.6110037905223695
13.04,0.6102716194051387
13.08,0.6098830845998834
13.12,0.6098445115170403
13.16,0.6101602432342836
13.2,0.6108325857014796
13.239999999999998,0.6118617760712891
13.28,0.6132459748652503
13.32,0.614981282034355
13.36,0.6170617763230564
13.4,0.619479576728844
13.44,0.6222249242973288
13.479999999999999,0.6252862820294809
13.52,0.6286504503221961
13.559999999999999,0.6323026951256706
13.6,0.6362268858835789
13.64,0.6404056403193388
13.68,0.6448204732324827
13.719999999999999,0.6494519466568212
13.76,0.6542798189877335
13.799999999999999,0.6592831909891227
13.84,0.6644406469216368
13.88,0.669730389374401
13.919999999999998,0.675130366717263
13.959999999999999,0.6806183924068246
14.0,0.686172255668323
14.04,0.6917698233301887
14.08,0.697389132806205
14.120000000000001,0.7030084764001107
14.16,0.7086064772507901
14.2,0.7141621573448811
14.239999999999998,0.7196549981015307
14.28,0.7250649940845236
14.32,0.7303727004247534
14.36,0.7355592745446722
14.399999999999999,0.7406065127700682
14.44,0.7454968823965542
14.479999999999999,0.7502135497518548
14.52,0.7547404047627424
14.56,0.7590620824997301
14.6,0.763163982134991
14.64,0.7670322837110092
14.68,0.770653963080126
14.719999999999999,0.7740168053393673
14.76,0.7771094170511116
14.799999999999999,0.7799212375087591
14.84,0.7824425492777979
14.879999999999999,0.7846644882163893
14.919999999999998,0.7865790531561812
14.959999999999999,0.7881791154028097
15.0,0.7894584281969933
15.04,0.7904116362603701
15.079999999999998,0.7910342855355049
15.120000000000001,0.7913228332163329
15.159999999999998,0.7912746581533889
15.199999999999998,0.790888071707216
15.24,0.7901623291130987
15.28,0.7890976414101025
15.319999999999999,0.7876951879773282
15.36,0.7859571297093025
15.399999999999999,0.7838866228507421
15.439999999999998,0.7814878334973832
15.48,0.7787659527539578
15.52,0.775727212521981
15.559999999999999,0.7723789018680514
15.600000000000001,0.7687293838969573
15.639999999999999,0.7647881130224146
15.679999999999998,0.7605656524903771
15.72,0.7560736919648882
15.76,0.7513250649328865
15.799999999999999,0.746333765621459
15.84,0.7411149650470751
15.879999999999999,0.735685025730873
15.919999999999998,0.7300615145152444
15.96,0.7242632128050177
16.0,0.7183101234300918
16.04,0.7122234731866403
16.080000000000002,0.7060257099610615
16.12,0.6997404931779244
16.16,0.6933926761428282
16.200000000000003,0.6870082786798051
16.24,0.6806144482975827
16.279999999999998,0.6742394079706697
16.319999999999997,0.6679123885024592
16.36,0.661663543365408
16.4,0.6555238439064661
16.439999999999998,0.6495249528868877
16.48,0.6436990745175215
16.52,0.6380787794775864
16.56,0.6326968038884061
16.6,0.627585821870275
16.64,0.6227781921484126
16.68,0.6183056801886416
16.72,0.6141991585137234
16.759999999999998,0.6104882891368606
16.799999999999997,0.6072011933875759
16.84,0.6043641157146081
16.88,0.6020010892302633
16.919999999999998,0.6001336117017266
16.96,0.5987803412870204
17.0,0.5979568214611736
17.04,0.597675244212483
17.080000000000002,0.59794425968058
17.12,0.5987688389764599
17.16,0.6001501950410644
17.2,0.6020857641815364
17.24,0.6045692485283151
17.279999999999998,0.6075907172562658
17.32,0.6111367621834154
17.36,0.6151907014559184
17.4,0.6197328235648873
17.44,0.6247406629903501
17.48,0.6301892983487557
17.52,0.6360516640056552
17.56,0.6422988666370434
17.6,0.6489004990891991
17.64,0.6558249449912912
17.68,0.6630396688120653
17.72,0.6705114873248771
17.759999999999998,0.6782068196744473
17.799999999999997,0.6860919143638488
17.84,0.6941330524617573
17.88,0.7022967271467533
17.919999999999998,0.7105498003524628
17.96,0.7188596377608434
18.0,0.7271942237262575
18.04,0.7355222579195858
18.080000000000002,0.7438132355818615
18.12,0.7520375132921774
18.159999999999997,0.7601663621060751
18.2,0.7681720098257538
18.24,0.7760276740384418
18.279999999999998,0.7837075874160782
18.32,0.7911870166185789
18.36,0.798442275991357
18.4,0.8054507371014773
18.44,0.812190835018721
18.48,0.8186420721211887
18.52,0.8247850200900634
18.560000000000002,0.8306013206563094
18.6,0.8360736855722143
18.64,0.8411858962031477
18.679999999999996,0.8459228030683793
18.72,0.8502703256035182
18.759999999999998,0.8542154523702817
18.799999999999997,0.8577462419006071
18.84,0.8608518243308492
18.88,0.8635224039569918
18.919999999999998,0.8657492628225741
18.96,0.8675247654368171
19.0,0.86884236471011
19.04,0.8696966091877145
19.080000000000002,0.8700831516587829
19.119999999999997,0.8699987592170266
19.159999999999997,0.8694413248502186
19.2,0.8684098806385568
19.24,0.8669046126456317
19.279999999999998,0.8649268775904099
19.32,0.8624792213934203
19.36,0.8595653996948804
19.4,0.8561904004461642
19.44,0.8523604686780322
19.48,0.848083133548719
19.52,0.8433672377709602
19.560000000000002,0.8382229695084517
19.6,0.832661896817271
19.639999999999997,0.8266970046846037
19.68,0.8203427346836424
19.72,0.8136150272166337
19.759999999999998,0.8065313662549977
19.8,0.7991108264017458
19.84,0.7913741219931939
19.88,0.7833436578184294
19.919999999999998,0.775043580860739
19.96,0.7664998322484461
20.0,0.7577401983368786
20.04,0.7487943595212542
20.08,0.7396939349960516
20.119999999999997,0.730472521224896
20.159999999999997,0.7211657213633216
20.2,0.7118111622870693
20.24,0.7024484952281682
20.279999999999998,0.6931193753268665
20.32,0.6838674146979055
20.36,0.6747381029284503
20.4,0.6657786883341609
20.44,0.6570380128828367
20.48,0.6485662935560945
20.52,0.6404148431837542
20.560000000000002,0.6326357245897258
20.599999999999998,0.6252813333714838
20.639999999999997,0.618403906915848
20.68,0.6120549604070926
20.72,0.6062846546051035
20.759999999999998,0.6011411049489783
20.8,0.596669646823658
20.84,0.5929120772145666
20.88,0.5899058979312196
20.92,0.5876835894794001
20.96,0.5862719468652596
21.0,0.5856915085833674
21.04,0.5859561074413514
21.08,0.5870725666819218
21.119999999999997,0.5890405574061852
21.159999999999997,0.5918526242487688
21.2,0.5954943765222216
21.24,0.5999448326611095
21.279999999999998,0.6051768977179582
21.32,0.6111579476444912
21.36,0.6178504905630504
21.4,0.6252128742743321
21.44,0.6332000106153525
21.48,0.6417640904997461
21.52,0.6508552679363885
21.56,0.6604222964113404
21.599999999999998,0.6704131061782287
21.639999999999997,0.6807753158017967
21.68,0.6914566754500068
21.72,0.7024054427803584
21.759999999999998,0.7135706947795211
21.8,0.7249025806400153
21.84,0.7363525217933901
21.88,0.7478733656928244
21.92,0.7594194999801517
21.96,0.7709469334055717
22.0,0.7824133493983518
22.04,0.7937781375995181
22.08,0.805002408028589
22.119999999999997,0.8160489919133436
22.16,0.826882432596945
22.2,0.8374689693702411
22.24,0.8477765165698347
22.28,0.8577746398382313
22.32,0.8674345310609768
22.36,0.876728983173349
22.4,0.8856323657610009
22.44,0.8941206021588529
22.48,0.9021711485745614
22.519999999999996,0.9097629756208212
22.56,0.916876552529491
22.599999999999998,0.923493834234646
22.639999999999997,0.9295982514472042
22.68,0.9351747037967499
22.72,0.9402095560833941
22.759999999999998,0.9446906376614116
22.8,0.9486072449644509
22.84,0.9519501471777144
22.88,0.9547115950638408
22.92,0.9568853329549979
22.96,0.9584666139330247
23.0,0.9594522182307819
23.04,0.9598404749010399
23.08,0.9596312868125386
23.119999999999997,0.9588261590462019
23.16,0.9574282307762364
23.2,0.955442310730533
23.24,0.9528749163305906
23.28,0.9497343166121622
23.32,0.9460305790216822
23.36,0.9417756201684598
23.400000000000002,0.9369832605855956
23.44,0.931669283510542
23.479999999999997,0.9258514976349846
23.519999999999996,0.9195498036886978
23.56,0.9127862646071031
23.599999999999998,0.9055851788812469
23.639999999999997,0.8979731564933765
23.68,0.8899791965929666
23.72,0.881634765756873
23.759999999999998,0.8729738752927894
23.8,0.8640331555773563
23.84,0.8548519248588397
23.88,0.8454722492920644
23.92,0.8359389902063665
23.96,0.8262998337386922
23.999999999999996,0.8166052970061718
24.04,0.8069087039725545
24.08,0.7972661231262443
24.119999999999997,0.7877362581043273
24.16,0.7783802815657938
24.2,0.7692616020693833
24.24,0.7604455536120255
24.28,0.7519989980245619
24.32,0.7439898318119593
24.36,0.7364863914664828
24.400000000000002,0.7295567549372687
24.439999999999998,0.72326794188565
24.479999999999997,0.7176850215357019
24.52,0.7128701441026845
24.56,0.708881519489759
24.599999999999998,0.7057723745043253
24.64,0.7035899263979369
24.68,0.7023744151287993
24.72,0.702158238491841
24.759999999999998,0.7029652324941971
24.8,0.7048101338044958
24.84,0.7076982520078657
24.88,0.711625367520188
24.92,0.7165778575592076
24.959999999999997,0.7225330389954228
24.999999999999996,0.7294597046785575
25.04,0.7373188201842519
25.08,0.7460643416534173
25.119999999999997,0.7556441127913084
25.16,0.7660007999454959
25.2,0.7770728278920287
25.24,0.7887952846946087
25.28,0.8011007708623504
25.32,0.8139201751886198
25.36,0.8271833664405024
25.4,0.8408197960251111
25.439999999999998,0.8547590116285114
25.479999999999997,0.8689310855239968
25.52,0.883266963826991
25.56,0.897698744566466
25.599999999999998,0.9121598932224434
25.64,0.9265854045315326
25.68,0.9409119190631274
25.72,0.9550778024697351
25.76,0.9690231945398805
25.8,0.9826900343262049
25.84,0.9960220667534674
25.880000000000003,1.008964835277898
25.919999999999998,1.021465664399769
25.959999999999997,1.0334736351407707
25.999999999999996,1.0449395559928079
26.04,1.0558159313247777
26.08,1.0660569287937363
26.119999999999997,1.0756183469400833
26.16,1.0844575838440056
26.2,1.0925336074749057
26.24,1.0998069281676734
26.28,1.1062395735027932
26.32,1.1117950657440328
26.36,1.1164384018921156
26.4,1.1201360363400814
26.439999999999998,1.122855866061947
26.479999999999997,1.1245672182265807
26.52,1.1252408401011302
26.56,1.1248488910896464
26.599999999999998,1.123364936741314
26.64,1.1207639445570332
26.68,1.1170222814216288
26.72,1.1121177124908943
26.76,1.1060294013670928
26.8,1.0987379114027014
26.84,1.0902252079799502
26.88,1.0804746616224774
26.919999999999998,1.0694710518051496
26.959999999999997,1.057200571338763
27.0,1.0436508312177684
27.04,1.0288108658318245
27.08,1.0126711384559883
27.119999999999997,0.9952235469501827
27.16,0.9764614296173576
27.2,0.9563795711919649
27.24,0.9349742089585309
27.28,0.912243039035754
27.32,0.8881852229091602
27.36,0.8628013943596787
27.4,0.8360936670254986
27.439999999999998,0.8080656429628262
27.479999999999997,0.7787224227586336
27.52,0.7480706180282767
27.56,0.7161183675585033
27.599999999999998,0.6828753590252953
27.64,0.6483528592898145
27.68,0.6125637580477677
27.72,0.5755226326239904
27.76,0.5372458470189487
27.8,0.4977517080557011
27.839999999999996,0.4570607201571965
27.88,0.41519601805039996
27.919999999999998,0.3721841379579565
