Frequency (Hz),Amplitude
0.0,3.374056753452092
0.019801980198019802,3.3735961097996676
0.039603960396039604,3.372215680636938
0.0594059405940594,3.369919969857689
0.07920792079207921,3.366716478958308
0.09900990099009901,3.3626156994522294
0.1188118811881188,3.3576311020583476
0.13861386138613863,3.3517791224698272
0.15841584158415842,3.345079143452997
0.1782178217821782,3.337553472966968
0.19801980198019803,3.3292273179349485
0.21782178217821782,3.320128753236528
0.2376237623762376,3.3102886854274853
0.25742574257425743,3.2997408106297303
0.27722772277227725,3.2885215659695897
0.297029702970297,3.276670073878335
0.31683168316831684,3.2642280785060223
0.33663366336633666,3.2512398734388466
0.3564356435643564,3.237752219854218
0.37623762376237624,3.2238142541975328
0.39603960396039606,3.209477384423157
0.4158415841584158,3.1947951738124893
0.43564356435643564,3.1798232113670037
0.45544554455445546,3.1646189677777428
0.4752475247524752,3.14924163599918
0.495049504950495,3.1337519555085045
0.5148514851485149,3.118212019416278
0.5346534653465347,3.1026850637148393
0.5544554455445545,3.087235238111659
0.5742574257425742,3.0719273580992934
0.594059405940594,3.0568266381648845
0.613861386138614,3.0419984063415058
0.6336633663366337,3.0275078006517933
0.6534653465346534,3.013419448388659
0.6732673267326733,2.9997971296145005
0.6930693069306931,2.9867034267326242
0.7128712871287128,2.974199362480989
0.7326732673267327,2.96234402920916
0.7524752475247525,2.951194212803907
0.7722772277227723,2.940804015113883
0.7920792079207921,2.9312244791640523
0.8118811881188118,2.9225032218275837
0.8316831683168316,2.9146840789121407
0.8514851485148516,2.9078067678005133
0.8712871287128713,2.9019065728410314
0.891089108910891,2.89701405859989
0.9108910891089109,2.893154815852889
0.9306930693069307,2.8903492448089825
0.9504950495049505,2.888612379522855
0.9702970297029703,2.8879537567846416
0.99009900990099,2.888377331987025
1.00990099009901,2.889881443593013
1.0297029702970297,2.8924588268887668
1.0495049504950495,2.8960966767433
1.0693069306930694,2.9007767581437554
1.0891089108910892,2.906475562368373
1.108910891089109,2.913164505831336
1.1287128712871286,2.9208101679130176
1.1485148514851484,2.929374563496326
1.1683168316831685,2.9388154454824997
1.188118811881188,2.9490866322616434
1.2079207920792079,2.9601383549689535
1.227722772277228,2.9719176193560117
1.2475247524752475,2.9843685772384037
1.2673267326732673,2.997432902728109
1.2871287128712872,3.0110501688010753
1.3069306930693068,3.0251582201667344
1.3267326732673268,3.039693538873424
1.3465346534653466,3.054591599581937
1.3663366336633662,3.0697872119484217
1.3861386138613863,3.0852148480602044
1.405940594059406,3.100808953351718
1.4257425742574257,3.1165042398779095
1.4455445544554455,3.1322359612352386
1.4653465346534653,3.1479401687862234
1.4851485148514851,3.16355394916366
1.504950495049505,3.179015643299894
1.5247524752475248,3.194265047451162
1.5445544554455446,3.2092435968641713
1.5643564356435644,3.223894532869477
1.5841584158415842,3.2381630542847266
1.6039603960396038,3.251996454077542
1.6237623762376237,3.265344242274014
1.6435643564356437,3.2781582561125497
1.6633663366336633,3.2903927584348476
1.683168316831683,3.3020045252825674
1.7029702970297032,3.31295292363143
1.7227722772277227,3.3231999801483174
1.7425742574257426,3.3327104418033464
1.7623762376237624,3.341451829110496
1.782178217821782,3.3493944827083135
1.801980198019802,3.3565116039291842
1.8217821782178218,3.362779289941398
1.8415841584158414,3.3681765639843975
1.8613861386138615,3.3726854011547465
1.881188118811881,3.376290750138608
1.900990099009901,3.378980551225808
1.920792079207921,3.3807457508819936
1.9405940594059405,3.3815803130973072
1.9603960396039604,3.3814812276735853
1.98019801980198,3.380448515556458
2.0,3.378485231263153
2.01980198019802,3.375597462402287
2.0396039603960396,3.3717943262260914
2.0594059405940595,3.36708796309998
2.0792079207920793,3.361493526717434
2.099009900990099,3.3550291708299143
2.118811881188119,3.347716032201731
2.1386138613861387,3.339578209438383
2.1584158415841586,3.3306427372731973
2.1782178217821784,3.320939555831909
2.1980198019801978,3.3105014743276313
2.217821782178218,3.2993641285704474
2.237623762376238,3.2875659316065207
2.257425742574257,3.2751480167329614
2.2772277227722775,3.2621541720668334
2.297029702970297,3.2486307657819804
2.3168316831683167,3.234626661067564
2.336633663366337,3.220193119809225
2.3564356435643563,3.205383693951111
2.376237623762376,3.190254103467511
2.3960396039603964,3.174862099860332
2.4158415841584158,3.1592673141075687
2.4356435643564356,3.1435310880224314
2.455445544554456,3.127716288048254
2.4752475247524752,3.111887100615267
2.495049504950495,3.096108808326768
2.514851485148515,3.080447546429265
2.5346534653465347,3.064970039256434
2.5544554455445545,3.049743316624479
2.5742574257425743,3.0348344104973197
2.594059405940594,3.020310032633158
2.6138613861386135,3.0062362343673863
2.633663366336634,2.9926780501736356
2.6534653465346536,2.9796991271675184
2.673267326732673,2.9673613432625547
2.6930693069306932,2.9557244172408272
2.712871287128713,2.9448455145420795
2.7326732673267324,2.9347788530840258
2.7524752475247527,2.925575313878399
2.7722772277227725,2.917282061579518
2.792079207920792,2.9099421803687413
2.811881188118812,2.90359433071871
2.8316831683168315,2.8982724325758156
2.8514851485148514,2.8940053803357038
2.8712871287128716,2.8908167946562777
2.891089108910891,2.8887248156580525
2.910891089108911,2.8877419414100056
2.9306930693069306,2.8878749148088207
2.9504950495049505,2.8891246610551424
2.9702970297029703,2.8914862769435965
2.99009900990099,2.894949072151012
3.00990099009901,2.8994966616685285
3.0297029702970297,2.9051071075173787
3.0495049504950495,2.911753106953843
3.0693069306930694,2.919402223538325
3.089108910891089,2.9280171567447657
3.108910891089109,2.937556045239131
3.128712871287129,2.947972798571244
3.148514851485148,2.9592174518055723
3.1683168316831685,2.9712365375595646
3.1881188118811883,2.9839734700108997
3.2079207920792077,2.9973689356605067
3.227722772277228,3.011361285975536
3.2475247524752473,3.0258869274618285
3.267326732673267,3.0408807052048425
3.2871287128712874,3.056276276447355
3.3069306930693068,3.0720064713199293
3.3267326732673266,3.088003638385973
3.346534653465347,3.1041999731909358
3.366336633663366,3.1205278285022
3.386138613861386,3.136920005381138
3.4059405940594063,3.1533100246368573
3.4257425742574257,3.1696323785672313
3.4455445544554455,3.185822763196113
3.4653465346534653,3.201818291466999
3.485148514851485,3.2175576880552574
3.504950495049505,3.2329814666165637
3.5247524752475248,3.2480320904032434
3.5445544554455446,3.2626541172570827
3.564356435643564,3.2767943300321956
3.5841584158415842,3.2904018535191897
3.603960396039604,3.30342825893716
3.6237623762376234,3.3158276570369454
3.6435643564356437,3.3275567808217774
3.6633663366336635,3.3385750588429213
3.683168316831683,3.3488446799717777
3.702970297029703,3.3583306504877846
3.722772277227723,3.3670008442562183
3.7425742574257423,3.3748260467027342
3.762376237623762,3.381779993223686
3.7821782178217824,3.3878394026038388
3.801980198019802,3.3929840059466656
3.8217821782178216,3.397196571557624
3.841584158415842,3.4004629261573984
3.8613861386138613,3.402771972740613
3.881188118811881,3.4041157053356628
3.9009900990099013,3.4044892208625908
3.9207920792079207,3.4038907282287343
3.9405940594059405,3.4023215547447694
3.96039603960396,3.3997861498876816
3.98019801980198,3.396292086380256
4.0,3.391850058499539
4.01980198019802,3.38647387746816
4.03960396039604,3.3801804637226884
4.0594059405940595,3.372989835790842
4.079207920792079,3.364925095445397
4.099009900990099,3.3560124087355803
4.118811881188119,3.3462809824271913
4.138613861386139,3.3357630353101246
4.158415841584159,3.3244937637572236
4.178217821782178,3.3125113008409444
4.198019801980198,3.2998566682357344
4.217821782178218,3.286573720054583
4.237623762376238,3.2727090776897385
4.257425742574258,3.258312054651322
4.2772277227722775,3.2434345703263645
4.297029702970297,3.2281310515168946
4.316831683168317,3.212458320562404
4.336633663366336,3.1964754688139227
4.356435643564357,3.180243714207353
4.376237623762377,3.1638262416887555
4.3960396039603955,3.147288025278872
4.415841584158416,3.130695630634318
4.435643564356436,3.114116997074759
4.455445544554455,3.0976211982046795
4.475247524752476,3.0812781804713634
4.4950495049504955,3.065158479271179
4.514851485148514,3.0493329125488633
4.534653465346535,3.03387225223012
4.554455445544555,3.0188468742864507
4.574257425742574,3.0043263887488174
4.594059405940594,2.9903792515564147
4.613861386138614,2.97707236073823
4.633663366336633,2.9644706400620873
4.653465346534653,2.952636613929994
4.673267326732674,2.9416299779268757
4.693069306930693,2.931507170014589
4.712871287128713,2.9223209478770964
4.732673267326733,2.9141199783354867
4.752475247524752,2.906948445034302
4.772277227722772,2.900845680727749
4.792079207920793,2.895845830444003
4.811881188118812,2.8919775515642625
4.8316831683168315,2.889263756413495
4.851485148514852,2.8877214023266244
4.871287128712871,2.887361333340532
4.891089108910891,2.888188176693432
4.910891089108912,2.8902002962220106
4.930693069306931,2.8933898035743066
4.9504950495049505,2.8977426269482636
4.97029702970297,2.9032386358710798
4.99009900990099,2.9098518193990075
5.00990099009901,2.917550514086129
5.02970297029703,2.9262976771794595
5.0495049504950495,2.936051199776252
5.069306930693069,2.9467642541453616
5.089108910891089,2.9583856690773613
5.108910891089109,2.970860326985208
5.128712871287129,2.9841295765188547
5.148514851485149,2.99813165466418
5.1683168316831685,3.012802112645854
5.188118811881188,3.028074240416859
5.207920792079208,3.043879485065869
5.227722772277227,3.060147859077622
5.247524752475248,3.076808335014092
5.267326732673268,3.093789223820686
5.2871287128712865,3.1110185345808135
5.306930693069307,3.128424314127625
5.326732673267327,3.1459349654599547
5.346534653465346,3.163479544392693
5.366336633663367,3.1809880342941566
5.3861386138613865,3.1983915991226812
5.405940594059405,3.215622815273182
5.425742574257426,3.232615882982639
5.445544554455446,3.2493068182281664
5.465346534653465,3.265633626184967
5.485148514851486,3.2815364574022508
5.504950495049505,3.296957747907213
5.524752475247524,3.311842344467639
5.544554455445545,3.3261376162374026
5.564356435643565,3.3397935539818557
5.584158415841584,3.3527628580359656
5.603960396039604,3.365001016091659
5.623762376237624,3.37646637184549
5.643564356435643,3.387120185466413
5.663366336633663,3.3969266867683383
5.683168316831684,3.4058531218960786
5.702970297029703,3.4138697942561707
5.7227722772277225,3.4209501003489207
5.742574257425743,3.427070561083919
5.762376237623762,3.4322108490897754
5.782178217821782,3.4363538124595823
5.801980198019803,3.439485495307266
5.821782178217822,3.4415951554453184
5.841584158415841,3.442675279432634
5.861386138613861,3.4427215951803682
5.881188118811881,3.441733082244721
5.900990099009901,3.439711979876929
5.920792079207921,3.4366637928422605
5.9405940594059405,3.4325972949610386
5.96039603960396,3.4275245302646886
5.98019801980198,3.4214608115979313
6.0,3.414424716434339
6.01980198019802,3.406438079605569
6.03960396039604,3.3975259825738204
6.0594059405940595,3.3877167388035763
6.079207920792079,3.377041874709674
6.099009900990099,3.3655361055767226
6.118811881188119,3.3532373057579057
6.138613861386139,3.340186472370464
6.158415841584159,3.326427681611258
6.178217821782178,3.312008036719148
6.198019801980198,3.296977606513916
6.217821782178218,3.281389353344503
6.237623762376237,3.2652990491866047
6.257425742574258,3.248765178542876
6.2772277227722775,3.231848826723058
6.297029702970296,3.2146135520199812
6.316831683168317,3.1971252402570327
6.336633663366337,3.1794519401686374
6.356435643564356,3.1616636780950644
6.376237623762377,3.1438322505338356
6.396039603960396,3.126030993200196
6.415841584158415,3.1083345254163657
6.435643564356436,3.0908184688817038
6.455445544554456,3.073559140180075
6.475247524752475,3.0566332167624473
6.495049504950495,3.04011737660531
6.514851485148515,3.0240879122891697
6.534653465346534,3.008620320863318
6.554455445544554,2.993788871555127
6.574257425742575,2.9796661541313054
6.594059405940594,2.9663226115071653
6.6138613861386135,2.9538260610023723
6.633663366336634,2.942241209429846
6.653465346534653,2.9316291679429765
6.673267326732673,2.9220469732180256
6.693069306930694,2.9135471220747013
6.712871287128713,2.9061771269994026
6.732673267326732,2.899979100199282
6.752475247524753,2.894989373751435
6.772277227722772,2.8912381631026527
6.792079207920792,2.8887492806130566
6.811881188118813,2.887539905027816
6.8316831683168315,2.8876204117248214
6.851485148514851,2.8889942673569085
6.871287128712871,2.8916579911295672
6.891089108910891,2.8956011834859194
6.910891089108911,2.900806621470246
6.930693069306931,2.9072504185742103
6.9504950495049505,2.9149022454960836
6.97029702970297,2.923725607019025
6.99009900990099,2.933678169183789
7.00990099009901,2.944712130127925
7.02970297029703,2.956774627406379
7.0495049504950495,2.9698081743026976
7.069306930693069,2.9837511175782536
7.089108910891089,2.998538109269361
7.108910891089109,3.014100585500853
7.128712871287128,3.030367245805437
7.148514851485149,3.0472645270818974
7.1683168316831685,3.0647170670552093
7.188118811881187,3.0826481528785408
7.207920792079208,3.1009801513091935
7.227722772277228,3.1196349176672067
7.247524752475247,3.1385341815237675
7.267326732673268,3.157599907748208
7.287128712871287,3.1767546321551063
7.306930693069306,3.195921771528289
7.326732673267327,3.215025908255014
7.346534653465347,3.2339930501796705
7.366336633663366,3.252750866587327
7.3861386138613865,3.271228901457151
7.405940594059406,3.2893587652925276
7.425742574257425,3.307074306944754
7.445544554455446,3.3243117669095685
7.465346534653466,3.3410099135974405
7.485148514851485,3.3571101640677314
7.504950495049505,3.3725566906790583
7.524752475247524,3.3872965150513292
7.544554455445544,3.4012795906624
7.564356435643565,3.4144588753201193
7.584158415841584,3.4267903946616864
7.603960396039604,3.438233297740124
7.623762376237624,3.448749905664345
7.643564356435643,3.4583057541673283
7.663366336633663,3.4668696308866758
7.683168316831684,3.4744136080551873
7.702970297029703,3.4809130712157574
7.7227722772277225,3.4863467444961027
7.742574257425743,3.4906967129031434
7.762376237623762,3.493948442026057
7.782178217821782,3.4960907954684926
7.801980198019803,3.497116050265597
7.821782178217822,3.4970199104787967
7.841584158415841,3.4958015190999054
7.861386138613862,3.4934634683360204
7.881188118811881,3.4900118082865483
7.900990099009901,3.4854560539627033
7.92079207920792,3.4798091905376674
7.9405940594059405,3.4730876766505427
7.96039603960396,3.465311445519463
7.980198019801979,3.4565039035470404
8.0,3.446691926024701
8.01980198019802,3.435905849459867
8.03960396039604,3.4241794599619975
8.05940594059406,3.4115499770282725
8.07920792079208,3.3980580319684663
8.099009900990099,3.383747640099894
8.118811881188119,3.368666165728945
8.138613861386139,3.3528642788151117
8.158415841584159,3.336395902088726
8.178217821782178,3.3193181472662943
8.198019801980198,3.301691238879851
8.217821782178218,3.283578424112885
8.237623762376238,3.2650458669190376
8.257425742574258,3.24616252459667
8.277227722772277,3.2270000049089123
8.297029702970297,3.2076324017826177
8.316831683168317,3.188136107599794
8.336633663366337,3.168589600121235
8.356435643564357,3.149073202165392
8.376237623762377,3.129668812317088
8.396039603960396,3.1104596051722715
8.415841584158416,3.091529699947104
8.435643564356436,3.072963796702903
8.455445544554456,3.054846779968453
8.475247524752476,3.0372632901837946
8.495049504950495,3.0202972641421484
8.514851485148515,3.004031446463878
8.534653465346535,2.9885468750833857
8.554455445544555,2.973922344746192
8.574257425742575,2.9602338535681394
8.594059405940595,2.947554038763809
8.613861386138613,2.935951608661423
8.633663366336634,2.9254907790342646
8.653465346534654,2.9162307225398196
8.673267326732672,2.908225040611833
8.693069306930694,2.901521267446244
8.712871287128714,2.8961604157170635
8.732673267326732,2.8921765733217053
8.752475247524753,2.8895965597736897
8.772277227722773,2.888439649838801
8.792079207920791,2.8887173706746547
8.811881188118813,2.89043337712911
8.831683168316832,2.893583408044282
8.85148514851485,2.898155324478258
8.871287128712872,2.904129228783629
8.891089108910892,2.911477661560023
8.91089108910891,2.9201658717137273
8.930693069306932,2.9301521532871964
8.950495049504951,2.941388241425806
8.97029702970297,2.953819758871661
8.990099009900991,2.9673867037369996
9.00990099009901,2.9820239690141483
9.029702970297029,2.9976618843092955
9.04950495049505,3.0142267706104406
9.06930693069307,3.031641499472249
9.089108910891088,3.0498260487705773
9.10891089108911,3.0686980480921173
9.12871287128713,3.088173307826571
9.148514851485148,3.108166327068787
9.16831683168317,3.1285907764732883
9.188118811881187,3.1493599531959204
9.207920792079207,3.1703872059796465
9.227722772277229,3.191586329272537
9.247524752475247,3.212871925994647
9.267326732673267,3.23415973918943
9.287128712871288,3.2553669533059737
9.306930693069306,3.2764124662638245
9.326732673267326,3.2972171337606664
9.346534653465348,3.3177039875038035
9.366336633663366,3.3377984291903755
9.386138613861386,3.357428402139738
9.405940594059407,3.376524542505256
9.425742574257425,3.3950203119728637
9.445544554455445,3.4128521137991266
9.465346534653467,3.429959393961415
9.485148514851485,3.4462847290939385
9.504950495049505,3.4617739027721717
9.524752475247526,3.476375971590516
9.544554455445544,3.49004332235644
9.564356435643564,3.5027317216039084
9.584158415841586,3.5144003585105645
9.603960396039604,3.525011882189381
9.623762376237623,3.534532434217408
9.643564356435645,3.542931677162188
9.663366336633663,3.5501828197709373
9.683168316831683,3.5562626393984673
9.702970297029704,3.561151502167228
9.722772277227723,3.5648333812750095
9.742574257425742,3.567295873794233
9.762376237623764,3.5685302162381736
9.782178217821782,3.5685312991049476
9.801980198019802,3.5672976805478465
9.821782178217823,3.564831599259457
9.841584158415841,3.5611389865967165
9.861386138613861,3.5562294779125616
9.881188118811881,3.5501164229969686
9.900990099009901,3.54281689546392
9.92079207920792,3.534351700850876
9.94059405940594,3.5247453831219273
9.96039603960396,3.5140262291840973
9.98019801980198,3.5022262709369953
10.0,3.4893812842786898
10.01980198019802,3.4755307843832006
10.03960396039604,3.46071801644833
10.05940594059406,3.4449899409843763
10.07920792079208,3.4283972125756743
10.099009900990099,3.4109941508974355
10.118811881188119,3.3928387026109075
10.138613861386139,3.3739923925915676
10.158415841584159,3.3545202627709125
10.178217821782178,3.334490796694087
10.198019801980198,3.3139758277195375
10.217821782178218,3.2930504286169473
10.237623762376238,3.271792780164811
10.257425742574258,3.2502840162171145
10.277227722772277,3.228608042611793
10.297029702970297,3.206851327243531
10.316831683168317,3.185102658636125
10.336633663366337,3.163452870439568
10.356435643564357,3.141994529463233
10.376237623762377,3.1208215851547534
10.396039603960396,3.1000289788630138
10.415841584158416,3.079712211797025
10.435643564356436,3.0599668713218193
10.455445544554454,3.040888116125141
10.475247524752476,3.022570121841507
10.495049504950495,3.0051054899242065
10.514851485148514,2.9885846238881744
10.534653465346535,2.973095078472756
10.554455445544555,2.9587208887459435
10.574257425742573,2.9455418876291786
10.594059405940595,2.9336330216921365
10.613861386138614,2.923063676270371
10.633663366336632,2.913897021909896
10.653465346534654,2.9061893947613804
10.673267326732674,2.8999897237591257
10.693069306930692,2.895339017170627
10.712871287128714,2.892269920358002
10.732673267326733,2.890806355348992
10.752475247524751,2.8909632510993744
