Frequency (Hz),Amplitude
0.0,3.915115202659864
0.020066889632107024,3.928994562132418
0.04013377926421405,3.9702874353697357
0.060200668896321065,4.037993570259318
0.0802675585284281,4.1305554059576535
0.10033444816053512,4.245996515834289
0.12040133779264213,4.382073895068973
0.14046822742474915,4.5364204618115656
0.1605351170568562,4.706662456521795
0.1806020066889632,4.8905055853884685
0.20066889632107024,5.085790840109105
0.22073578595317725,5.290524963740132
0.24080267558528426,5.502891931521727
0.2608695652173913,5.721251521374986
0.2809364548494983,5.9441299523937134
0.3010033444816054,6.170206277815958
0.3210702341137124,6.398297052402417
0.34113712374581934,6.627340873129512
0.3612040133779264,6.856383725436066
0.3812709030100334,7.084565615379526
0.4013377926421405,7.311108678905585
0.42140468227424743,7.535306785165264
0.4414715719063545,7.756516553470615
0.4615384615384615,7.9741496553738465
0.4816053511705685,8.187666255377684
0.5016722408026756,8.396569443297292
0.5217391304347826,8.60040052022525
0.5418060200668896,8.798735013422931
0.5618729096989966,8.991179310322766
0.5819397993311036,9.177367816511946
0.6020066889632107,9.356960556214771
0.6220735785953176,9.529641146013962
0.6421404682274248,9.695115083243339
0.6622073578595318,9.85310829969292
0.6822742474916387,10.003365939114259
0.7023411371237458,10.145651323653222
0.7224080267558528,10.279745079929329
0.7424749163879598,10.405444400177378
0.7625418060200668,10.522562417806196
0.7826086956521738,10.63092768003312
0.802675585284281,10.730383703025044
0.8227424749163879,10.820788597307779
0.8428093645484949,10.902014753169864
0.862876254180602,10.9739485774486
0.882943143812709,11.03649027449786
0.903010033444816,11.089553665343383
0.923076923076923,11.133066040069954
0.9431438127090299,11.166968039386276
0.963210702341137,11.191213562105062
0.983277591973244,11.205769695980385
1.0033444816053512,11.210616669980839
1.0234113712374582,11.20574782666392
1.0434782608695652,11.19116961386876
1.0635451505016722,11.166901595476183
1.0836120401337792,11.13297648151037
1.1036789297658862,11.089440178388779
1.1237458193979932,11.036351860680018
1.1438127090301002,10.973784066317776
1.1638795986622072,10.901822817858262
1.1839464882943145,10.820567773076151
1.2040133779264215,10.730132408989908
1.2240802675585283,10.63064424431409
1.2441471571906353,10.52224510638098
1.2642140468227423,10.405091449787841
1.2842809364548495,10.279354735447075
1.3043478260869565,10.145221880389176
1.3244147157190636,10.002895790646036
1.3444816053511706,9.852595991888876
1.3645484949832773,9.694559375285927
1.3846153846153846,9.52904107937085
1.4046822742474916,9.356315532677836
1.4247491638795986,9.1766776866259
1.4448160535117056,8.9904444737614
1.4648829431438126,8.79795653314589
1.4849498327759196,8.599580252565726
1.5050167224080266,8.395710186493371
1.5250836120401337,8.186771919466194
1.5451505016722407,7.973225456808802
1.5652173913043477,7.75556923829216
1.5852842809364547,7.534344884996492
1.605351170568562,7.31014280443407
1.625418060200669,7.083608792188093
1.6454849498327757,6.8554517769181125
1.6655518394648827,6.626452854500663
1.6856187290969897,6.397475738105993
1.705685618729097,6.169478701328924
1.725752508361204,5.943527991737111
1.745819397993311,5.720812514388511
1.765886287625418,5.5026592907653615
1.7859531772575248,5.290548740200402
1.806020066889632,5.086128156513123
1.826086956521739,4.8912208239817
1.846153846153846,4.707827045831673
1.866220735785953,4.538112071011766
1.8862876254180598,4.384374830231254
1.9063545150501673,4.248991145864326
1.926421404682274,4.134326557566283
1.9464882943143813,4.04261803950355
1.966555183946488,3.9758310493451305
1.9866220735785953,3.935507509335096
2.0066889632107023,3.9226285024959457
2.026755852842809,3.93751843794781
2.0468227424749164,3.9798119651627912
2.0668896321070234,4.048491440480591
2.0869565217391304,4.141986110590415
2.1070234113712374,4.25831111335202
2.1270903010033444,4.395219504363134
2.1471571906354514,4.550343947666046
2.1672240802675584,4.721313075276128
2.1872909698996654,4.905836617555618
2.2073578595317724,5.101760384669085
2.2274247491638794,5.307096119485628
2.2474916387959865,5.520032578423601
2.267558528428094,5.7389338731484605
2.2876254180602005,5.962330003359126
2.3076923076923075,6.1889032247350535
2.3277591973244145,6.417472739416702
2.3478260869565215,6.64697928517053
2.367892976588629,6.876470540722288
2.3879598662207355,7.105087818715512
2.408026755852843,7.332054232577005
2.4280936454849495,7.556664351844264
2.4481605351170566,7.778275264703625
2.468227424749164,7.9962989192511875
2.4882943143812706,8.210195597461055
2.508361204013378,8.419468375553166
2.5284280936454846,8.62365843343352
2.548494983277592,8.822341089223487
2.568561872909699,9.01512244968974
2.5886287625418056,9.201636581992986
2.608695652173913,9.381543125740198
2.6287625418060196,9.554525276472962
2.648829431438127,9.720288082350867
2.668896321070234,9.878557004940511
2.688963210702341,10.029076702819491
2.709030100334448,10.171610003304135
2.7290969899665547,10.305937033169192
2.749163879598662,10.431854483896759
2.769230769230769,10.549174990909737
2.789297658862876,10.657726609530496
2.809364548494983,10.757352373163666
2.82943143812709,10.847909921521257
2.849498327759197,10.929271188663682
2.869565217391304,11.001322142284144
2.8896321070234112,11.063962567070236
2.9096989966555182,11.117105886178184
2.9297658862876252,11.160679015890278
2.9498327759197323,11.194622249425029
2.9698996655518393,11.218889166659768
2.9899665551839463,11.233446567228604
3.0100334448160533,11.238274425095039
3.0301003344481603,11.233365863285423
3.0501672240802673,11.21872714802199
3.0702341137123748,11.194377702027417
3.0903010033444813,11.160350137300059
3.1103678929765888,11.116690308193721
3.1304347826086953,11.063457386192347
3.1505016722408024,11.000723958362169
3.1705685618729094,10.928576152107976
3.1906354515050164,10.847113789573351
3.210702341137124,10.756450575827596
3.2307692307692304,10.656714325896633
3.250836120401338,10.548047236749442
3.270903010033445,10.430606211576835
3.2909698996655514,10.304563245133336
3.311036789297659,10.170105880601
3.3311036789297654,10.027437750429549
3.351170568561873,9.876779215974631
3.3712374581939795,9.718368123570984
3.391304347826087,9.552460698030478
3.411371237458194,9.379332598551121
3.4314381270903005,9.199280166784208
3.451505016722408,9.012621902470876
3.471571906354515,8.819700208776926
3.491638795986622,8.620883457382819
3.511705685618729,8.416568432673664
3.531772575250836,8.207183225132539
3.551839464882943,7.993190656300709
3.5719063545150496,7.775092331295201
3.591973244147157,7.55343342943998
3.612040133779264,7.32880835813919
3.632107023411371,7.101867407933368
3.652173913043478,6.873324554627012
3.672240802675585,6.643966552259553
3.692307692307692,6.414663440131492
3.712374581939799,6.18638053503919
3.732441471571906,5.960191876697225
3.752508361204013,5.737294911794568
3.7725752508361197,5.519025901860848
3.7926421404682276,5.306875074348134
3.8127090301003346,5.102499854313486
3.832775919732441,4.907733579949163
3.852842809364548,4.724585935396566
3.872909698996655,4.555230061937306
3.8929765886287626,4.401970272024931
3.9130434782608696,4.267184112811508
3.933110367892976,4.153234099147078
3.953177257525083,4.062348669152875
3.9732441471571907,3.996479129048503
3.9933110367892977,3.9571484467813556
4.013377926421405,3.9453157164559003
4.033444816053511,3.9612827634175978
4.053511705685618,4.004663607043112
4.073578595317726,4.074423952462513
4.093645484949833,4.168981439876457
4.113712374581939,4.286344669710232
4.133779264214047,4.424264450929101
4.153846153846153,4.580374302682831
4.173913043478261,4.752305579562359
4.193979933110368,4.937771560289553
4.214046822742475,5.134621677189522
4.234113712374581,5.340870902315706
4.254180602006689,5.554710590731486
4.274247491638796,5.774506744562092
4.294314381270903,5.998790566457142
4.314381270903009,6.226244900284983
4.334448160535117,6.45568901557203
4.354515050167224,6.686063293292291
4.374581939799331,6.916414720600586
4.394648829431437,7.145883661613831
4.414715719063545,7.373692089420319
4.434782608695651,7.599133294500134
4.454849498327759,7.821562989723848
4.474916387959866,8.04039168510941
4.494983277591973,8.255078187952703
4.5150501672240795,8.46512408348415
4.535117056856188,8.670069059966995
4.555183946488294,8.86948695527732
4.575250836120401,9.062982416602205
4.595317725752508,9.250188079328646
4.615384615384615,9.430762184621159
4.635451505016722,9.60438656722003
4.655518394648829,9.770764955527833
4.6755852842809364,9.929621535132165
4.695652173913043,10.080699734655763
4.71571906354515,10.223761199381972
4.735785953177258,10.358584923629385
4.7558528428093645,10.484966517493964
4.775919732441471,10.602717587475158
4.795986622073578,10.711665213773758
4.816053511705686,10.811651509796464
4.8361204013377925,10.902533251713443
4.856187290969899,10.984181567864391
4.8762541806020065,11.05648167945891
4.896321070234113,11.11933268541993
4.916387959866221,11.172647385419324
4.936454849498328,11.216352136188837
4.956521739130435,11.250386737088503
4.976588628762541,11.274704341705405
4.996655518394649,11.289271392959828
5.016722408026756,11.294067579834078
5.036789297658863,11.289085814428043
5.056856187290969,11.274332228601105
5.076923076923077,11.249826189996046
5.096989966555184,11.215600337772027
5.117056856187291,11.171700638912775
5.137123745819398,11.118186466537919
5.157190635451505,11.055130702243773
5.177257525083611,10.982619865151081
5.197324414715719,10.900754271059064
5.217391304347826,10.809648225917126
5.237458193979933,10.709430258752024
5.257525083612039,10.6002434002552
5.277591973244148,10.48224551447558
5.297658862876254,10.355609692514607
5.317725752508361,10.220524718828644
5.337792642140468,10.077195622762597
5.357859531772575,9.925844330332831
5.377926421404682,9.766710434122553
5.397993311036789,9.600052102539875
5.418060200668896,9.426147153722486
5.438127090301003,9.24529432417415
5.458193979933109,9.057814767924565
5.478260869565218,8.864053828762753
5.498327759197324,8.664383136058875
5.518394648829431,8.459203084001265
5.538461538461538,8.248945764835925
5.558528428093646,8.034078438917266
5.578595317725752,7.815107637900871
5.598662207357859,7.592584011764202
5.618729096989966,7.367108044538825
5.638795986622073,7.1393367758268385
5.65886287625418,6.909991672130764
5.678929765886288,6.679867788387486
5.698996655518394,6.4498443372677015
5.719063545150501,6.2208967284662995
5.739130434782608,5.9941100324651915
5.759197324414716,5.770693634629865
5.7792642140468224,5.551996537630321
5.799331103678929,5.339522295854629
5.8193979933110365,5.1349418756253
5.839464882943144,4.940101797310691
5.8595317725752505,4.757023752511787
5.879598662207358,4.587890643635249
5.8996655518394645,4.435013012761292
5.919732441471571,4.300769740406618
5.9397993311036785,4.1875185848828975
5.959866220735786,4.097476469878233
5.9799331103678925,4.032576663092234
5.999999999999999,3.9943189464619264
6.020066889632107,3.983636528905944
6.040133779264214,4.000805705657578
6.060200668896321,4.045418235070209
6.080267558528428,4.116422872312558
6.100334448160535,4.21222638207103
6.120401337792642,4.330832100480089
6.1404682274247495,4.469989898275956
6.160535117056856,4.627335094072803
6.180602006688963,4.800502109983934
6.200668896321069,4.9872074410586675
6.2207357859531776,5.1853031719556375
6.240802675585284,5.392806002932144
6.260869565217391,5.607907988266243
6.280936454849498,5.828974853598203
6.301003344481605,6.054536684129471
6.321070234113712,6.283274529432756
6.341137123745819,6.51400535038502
6.361204013377926,6.745666850008379
6.381270903010033,6.977303089696368
6.40133779264214,7.208051357373854
6.421404682274248,7.437130475006739
6.441471571906354,7.663830563988541
6.461538461538461,7.8875041920890885
6.481605351170568,8.10755877837616
6.501672240802676,8.323450114485022
6.521739130434782,8.53467685964098
6.54180602006689,8.74077587513416
6.561872909698996,8.94131827666791
6.581939799331103,9.13590609726895
6.60200668896321,9.324169467621099
6.622073578595318,9.50576423390615
6.642140468227424,9.680369945113089
6.662207357859531,9.847688152194229
6.682274247491639,10.007440970438783
6.702341137123746,10.15936986411172
6.722408026755852,10.303234618914532
6.742474916387959,10.438812473314881
6.762541806020066,10.565897384411544
6.782608695652174,10.684299407881216
6.80267558528428,10.793844174812314
6.822742474916388,10.894372450970117
6.842809364548494,10.98573976634298
6.862876254180601,11.067816104765976
6.882943143812709,11.140485645066521
6.903010033444816,11.203646546579929
6.9230769230769225,11.257210773083315
6.94314381270903,11.301103950232163
6.963210702341137,11.335265252484955
6.983277591973244,11.359647316294309
7.0033444816053505,11.374216177050828
7.023411371237458,11.378951227907217
7.0434782608695645,11.373845199203457
7.063545150501672,11.35890415777366
7.083612040133779,11.334147525956823
7.103678929765886,11.299608120670467
7.123745819397993,11.255332213452409
7.143812709030099,11.201379612944837
7.1638795986622075,11.137823771901964
7.183946488294314,11.06475192146362
7.204013377926421,10.982265236170122
7.224080267558528,10.89047903401883
7.2441471571906355,10.789523016803841
7.264214046822742,10.679541557064754
7.2842809364548495,10.560694039230215
7.304347826086956,10.433155264016325
7.324414715719063,10.297115926874028
7.34448160535117,10.152783183328049
7.364548494983278,10.000381316477224
7.384615384615384,9.840152524808964
7.404682274247491,9.672357851908886
7.424749163879598,9.497278283725358
7.444816053511706,9.315216043897736
7.464882943143812,9.12649612341046
7.48494983277592,8.931468087638562
7.505016722408026,8.730508211848711
7.525083612040134,8.524022005546612
7.545150501672239,8.312447196800704
7.565217391304348,8.096257259813205
7.585284280936455,7.875965582355446
7.605351170568561,7.652130383714903
7.625418060200669,7.425360507447277
7.645484949832775,7.196322224528533
7.665551839464882,6.9657471880796145
7.685618729096991,6.734441675122144
7.705685618729096,6.503297224958879
7.725752508361204,6.273302724131201
7.74581939799331,6.045557874278274
7.765886287625418,5.821287782946831
7.785953177257525,5.601858100266919
7.806020066889631,5.388789640167105
7.826086956521739,5.183770726807377
7.846153846153847,4.9886645676654755
7.866220735785952,4.805507804948707
7.88628762541806,4.63649519008105
7.906354515050166,4.483944421663216
7.926421404682274,4.3502352177645545
7.946488294314381,4.237718523346843
7.966555183946488,4.148596200626177
7.986622073578595,4.084778779078998
8.006688963210701,4.047737594074096
8.02675585284281,4.038374885350795
8.046822742474916,4.056937207809849
8.066889632107022,4.102991185730935
8.08695652173913,4.175467202877601
8.107023411371236,4.272760956057585
8.127090301003344,4.392871114338634
8.147157190635452,4.533547500712158
8.167224080267557,4.692427995104028
8.187290969899665,4.867150440515499
8.207357859531772,5.055434362402127
8.227424749163879,5.255133760476853
8.247491638795987,5.464265838393381
8.267558528428093,5.6810217380559065
8.2876254180602,5.903765019704451
8.307692307692307,6.131022586098793
8.327759197324415,6.361471536453607
8.347826086956522,6.593924342439642
8.367892976588628,6.827313873296432
8.387959866220736,7.06067916798866
8.408026755852843,7.29315242337981
8.42809364548495,7.5239473908947785
8.448160535117056,7.7523492059526165
8.468227424749163,7.977705579309431
8.488294314381271,8.19941923144425
8.508361204013378,8.416941432233232
8.528428093645484,8.629766506376129
8.548494983277592,8.837427172627965
8.568561872909697,9.039490597031747
8.588628762541806,9.235555054154592
8.608695652173914,9.42524710414832
8.628762541806019,9.60821920640618
8.648829431438127,9.784147702263084
8.668896321070234,9.952731109454596
8.68896321070234,10.113688679931983
8.709030100334449,10.266759180229597
8.729096989966555,10.411699860032625
8.749163879598662,10.548285580044324
8.769230769230768,10.676308074843805
8.789297658862875,10.795575330287205
8.809364548494983,10.905911058252132
8.82943143812709,11.007154254256937
8.849498327759196,11.099158825788791
8.869565217391303,11.181793281119317
8.889632107023411,11.254940470035871
8.909698996655518,11.318497369321442
8.929765886287624,11.372374907019672
8.949832775919733,11.416497820560803
8.96989966555184,11.450804544729477
8.989966555183946,11.475247126253159
9.010033444816054,11.489791162502396
9.030100334448159,11.494415762441355
9.050167224080267,11.489113528565984
9.070234113712376,11.47389055913362
9.09030100334448,11.448766470536846
9.110367892976589,11.41377444021885
9.130434782608695,11.368961271082904
9.150501672240802,11.314387478927436
9.17056856187291,11.250127405056485
9.190635451505017,11.176269356889273
9.210702341137123,11.092915780139935
9.23076923076923,11.000183466980223
9.250836120401337,10.89820380555823
9.270903010033445,10.787123077351648
9.290969899665551,10.667102810119495
9.311036789297658,10.538320195718452
9.331103678929765,10.400968583816407
9.351170568561873,10.255258064620977
9.37123745819398,10.101416156209092
9.391304347826086,9.939688614972486
9.411371237458194,9.770340391172617
9.4314381270903,9.59365675573073
9.451505016722408,9.409944629283643
9.471571906354516,9.219534150343412
9.49163879598662,9.0227805262498
9.511705685618729,8.820066218635525
9.531772575250837,8.611803524453506
9.551839464882942,8.398437624307986
9.57190635451505,8.180450181843282
9.591973244147155,7.958363591031749
9.612040133779264,7.732745981776466
9.632107023411372,7.504217107135292
9.652173913043477,7.2734552455805614
9.672240802675585,7.041205255461037
9.692307692307692,6.808287910405506
9.712374581939798,6.575610614624273
9.732441471571907,6.344179531937417
9.752508361204013,6.115113041340734
9.77257525083612,5.8896562261990475
9.792642140468226,5.669195775868777
9.812709030100335,5.4552741828537155
9.832775919732441,5.249601412152785
9.852842809364548,5.054061281057548
9.872909698996656,4.87070865811509
9.89297658862876,4.701752435969266
9.91304347826087,4.549518426477068
9.933110367892976,4.416386501448541
9.953177257525082,4.304698297137638
9.97324414715719,4.216636364334847
9.993311036789297,4.1540828387273425
10.013377926421404,4.118474179079898
10.033444816053512,4.110675254519386
10.053511705685617,4.130897290477005
10.073578595317725,4.178677561781712
10.093645484949834,4.25292545010637
10.113712374581938,4.3520243951774376
10.133779264214047,4.473968260253363
10.153846153846153,4.616507247175231
10.17391304347826,4.777282344443652
10.193979933110368,4.953935158074998
10.214046822742475,5.144188194297116
10.234113712374581,5.345896860055989
10.254180602006688,5.557077914408429
10.274247491638796,5.775920265023392
10.294314381270903,6.0007836971891
10.31438127090301,6.230190121303483
10.334448160535118,6.46281075403168
10.354515050167223,6.697451587850183
10.37458193979933,6.933038660574544
10.394648829431437,7.168604020511308
10.414715719063544,7.403272860714519
10.434782608695652,7.636252022119956
10.454849498327757,7.866819897663884
10.474916387959865,8.0943176737367
10.494983277591974,8.318141796238187
10.515050167224079,8.537737528442968
10.535117056856187,8.752593465021102
10.555183946488295,8.962236873224047
10.5752508361204,9.166229743639693
10.595317725752508,9.36416544613759
10.615384615384615,9.555665899992308
10.635451505016722,9.740379179782934
10.65551839464883,9.91797749008963
10.675585284280936,10.08815545209009
10.695652173913043,10.25062865390742
10.71571906354515,10.405132424062968
10.735785953177256,10.551420793772422
10.755852842809364,10.689265619227516
10.775919732441471,10.81845583956626
10.795986622073578,10.93879685007556
10.816053511705684,11.050109973405014
10.836120401337793,11.152232014295047
10.856187290969899,11.245014885622394
10.876254180602006,11.328325295510552
10.896321070234114,11.40204448690448
10.916387959866219,11.466068022416774
10.936454849498327,11.520305608461037
