Time (s),Filtered Signal
0.0,0.03042016136012054
0.033370535714285714,0.12748303731914779
0.06674107142857143,0.32120315187970233
0.10011160714285713,0.6602487772266673
0.13348214285714285,1.1176509244258572
0.16685267857142858,1.5970567005365663
0.20022321428571427,1.9693803888006671
0.23359375,2.123614933762088
0.2669642857142857,2.0099855121808172
0.30033482142857143,1.6577985759132663
0.33370535714285715,1.1618940853239763
0.36707589285714287,0.6450796250707711
0.40044642857142854,0.21340451805062616
0.43381696428571426,-0.07716543371698728
0.4671875,-0.23042613834326325
0.5005580357142857,-0.29484668219192806
0.5339285714285714,-0.3333380575359195
0.5672991071428571,-0.39298754586285994
0.6006696428571429,-0.4878649066220345
0.6340401785714286,-0.600106924637211
0.6674107142857143,-0.6952171873544447
0.70078125,-0.7417265134131101
0.7341517857142857,-0.7254532388522583
0.7675223214285715,-0.653425125025779
0.8008928571428571,-0.5485160921944792
0.8342633928571428,-0.4395583282699887
0.8676339285714285,-0.3518539679032908
0.9010044642857142,-0.3008718909685757
0.934375,-0.28972972830247845
0.9677455357142857,-0.3101331191839156
1.0011160714285714,-0.34633441468880616
1.0344866071428571,-0.38117235881078043
1.0678571428571428,-0.40203662286953545
1.1012276785714286,-0.40378449037120157
1.1345982142857143,-0.3866404353305258
1.16796875,-0.3500161217715926
1.2013392857142857,-0.28630922717501334
1.2347098214285714,-0.1797810516359478
1.2680803571428572,-0.01337603446811069
1.3014508928571429,0.21834365146656068
1.3348214285714286,0.49660421621810885
1.3681919642857143,0.7743055973894574
1.4015625,0.985653013514413
1.4349330357142858,1.0682064852535058
1.4683035714285715,0.9888881668970336
1.5016741071428572,0.7618304890130777
1.535044642857143,0.4483208643387029
1.5684151785714286,0.13689550716947588
1.6017857142857141,-0.08888226834490835
1.6351562499999999,-0.18119001372721225
1.6685267857142856,-0.14384950791377857
1.7018973214285713,-0.026747723221535718
1.735267857142857,0.09808294475809848
1.7686383928571427,0.16758880285382421
1.8020089285714285,0.1522068973620807
1.8353794642857142,0.06351631777316609
1.86875,-0.05715928946289442
1.9021205357142856,-0.16244527841334544
1.9354910714285714,-0.22247288159888137
1.968861607142857,-0.23638999799211233
2.002232142857143,-0.2266866461780473
2.0356026785714287,-0.22078912686512234
2.0689732142857142,-0.23142917073673747
2.10234375,-0.24764305629154437
2.1357142857142857,-0.24166663804424854
2.169084821428571,-0.18743288224152516
2.202455357142857,-0.07954804330142312
2.2358258928571426,0.058569110324639774
2.2691964285714286,0.182399951488665
2.302566964285714,0.2460140093694781
2.3359375,0.22351368128766325
2.3693080357142855,0.12151536827452328
2.4026785714285714,-0.023007982692308252
2.436049107142857,-0.15787609945567507
2.469419642857143,-0.23652964437847648
2.5027901785714284,-0.2355487894131716
2.5361607142857143,-0.16214090882670176
2.56953125,-0.04940766050393548
2.6029017857142858,0.05804670432132967
2.6362723214285713,0.1222023550588662
2.669642857142857,0.1262885987485073
2.7030133928571427,0.08029428677288482
2.7363839285714286,0.015156749816145355
2.769754464285714,-0.03194594855242542
2.803125,-0.03495030589301712
2.8364955357142856,0.008650070049915592
2.8698660714285715,0.07587393309476338
2.903236607142857,0.12793659533079643
2.936607142857143,0.12753812443684934
2.9699776785714285,0.056229201502191954
3.0033482142857144,-0.07599098859619617
3.03671875,-0.23345951196391806
3.070089285714286,-0.36902953861049775
3.1034598214285714,-0.44318225703015424
3.1368303571428573,-0.4390983432353606
3.170200892857143,-0.36678223373028096
3.2035714285714283,-0.2551004966075245
3.2369419642857142,-0.1368797581594835
3.2703124999999997,-0.03534497576444468
3.3036830357142857,0.04158560685758989
3.337053571428571,0.09793497461592131
3.370424107142857,0.14134186007382404
3.4037946428571426,0.17598433444640957
3.4371651785714286,0.2009520942207993
3.470535714285714,0.21396794068384523
3.50390625,0.2168033494789679
3.5372767857142855,0.2180587694291249
3.5706473214285714,0.23117376341209733
3.604017857142857,0.2687588763821748
3.637388392857143,0.3364087301463091
3.6707589285714284,0.4289879291185024
3.7041294642857143,0.530540931539145
3.7375,0.6170567563829098
3.7708705357142858,0.6607064837919795
3.8042410714285713,0.6350028315375349
3.837611607142857,0.5213592782942734
3.8709821428571427,0.31712866300382003
3.9043526785714286,0.042944074393308204
3.937723214285714,-0.2553286479900091
3.97109375,-0.5147495997457109
4.004464285714286,-0.6742825325571189
4.0378348214285715,-0.6987166804990496
4.0712053571428575,-0.5966155368949829
4.1045758928571425,-0.42186369180779343
4.1379464285714285,-0.25522538403538847
4.171316964285714,-0.17224150379545772
4.2046875,-0.21130284547819872
4.238058035714285,-0.3565559285230287
4.271428571428571,-0.5438270640823138
4.304799107142857,-0.6872667704862577
4.338169642857142,-0.715093919324479
4.371540178571428,-0.5989787226739949
4.404910714285714,-0.3647288412195909
4.43828125,-0.0803040199559099
4.471651785714285,0.17305532739893617
4.505022321428571,0.3338078295876868
4.538392857142857,0.38305916319763694
4.571763392857143,0.3481093352761897
4.605133928571428,0.2860219078413026
4.638504464285714,0.25548638567626414
4.671875,0.29007651228850373
4.705245535714286,0.38465683705354514
4.738616071428571,0.5000491077434467
4.771986607142857,0.5825738111524372
4.805357142857143,0.5888028316399426
4.838727678571429,0.5044081381571325
4.872098214285714,0.3494620307429292
4.90546875,0.1688825616296574
4.938839285714286,0.01298769755599611
4.972209821428572,-0.08316253182075775
5.005580357142857,-0.11299240665585884
5.038950892857143,-0.09904485920154003
5.072321428571429,-0.08126215723344299
5.105691964285715,-0.09828142977423875
5.1390625,-0.16990106126477847
5.172433035714286,-0.2881696591498946
5.2058035714285715,-0.4206682450322532
5.2391741071428575,-0.5242024076755795
5.2725446428571425,-0.5626602210690476
5.3059151785714285,-0.5211998646711818
5.339285714285714,-0.41088918775702005
5.3726562499999995,-0.2624716933082065
5.406026785714285,-0.11291137493105004
5.439397321428571,0.00858598369139086
5.472767857142857,0.08869859007231103
5.506138392857142,0.1293865416892889
5.539508928571428,0.14057358062976444
5.572879464285714,0.13176100921484432
5.60625,0.10845519914836972
5.639620535714285,0.07575104195020996
5.672991071428571,0.0460101643704797
5.706361607142857,0.04366257825029425
5.739732142857143,0.10064294302985385
5.773102678571428,0.24130897464127868
5.806473214285714,0.46315537280907343
5.83984375,0.7245842449597378
5.873214285714286,0.9496568852463636
5.906584821428571,1.0519015870781874
5.939955357142857,0.9688000026846588
5.973325892857143,0.6914747554022038
6.006696428571429,0.2747564641671096
6.040066964285714,-0.1786896876220552
6.0734375,-0.5544781779226817
6.106808035714286,-0.7677970892580723
6.140178571428572,-0.7926386750783723
6.173549107142857,-0.6673719820054159
6.206919642857143,-0.4754608009056161
6.240290178571429,-0.31038871628056247
6.273660714285715,-0.23964586754881095
6.30703125,-0.28192975006616844
6.340401785714286,-0.4053588995082504
6.3737723214285715,-0.5455536020148836
6.407142857142857,-0.634680019683615
6.4405133928571425,-0.6289164703154662
6.4738839285714285,-0.5234080019954954
6.507254464285714,-0.3497285580477237
6.5406249999999995,-0.1586074630725202
6.573995535714285,0.003149517983021575
6.607366071428571,0.11077978154389893
6.640736607142857,0.16725221761685627
6.674107142857142,0.1956723355807025
6.707477678571428,0.2239579765487457
6.740848214285714,0.2702326506225225
6.77421875,0.3356143088624633
6.807589285714285,0.40620682341638054
6.840959821428571,0.46125528049026293
6.874330357142857,0.48224915234874455
6.907700892857143,0.4588778373175102
6.941071428571428,0.3907163361331427
6.974441964285714,0.2860925899056416
7.0078125,0.1602535631498
7.041183035714286,0.033756870758183684
7.074553571428571,-0.06968614532494426
7.107924107142857,-0.12730917345540219
7.141294642857143,-0.12358620082990263
7.174665178571429,-0.05685345130933481
7.208035714285714,0.0570508662273193
7.24140625,0.18691202451105476
7.274776785714286,0.2944256215159573
7.308147321428572,0.34614621352860486
7.341517857142857,0.32476049010890295
7.374888392857143,0.23539052420171694
7.408258928571429,0.10440238346822821
7.441629464285715,-0.029101151155774576
7.475,-0.1262995749906919
7.508370535714286,-0.1617551446321004
7.5417410714285715,-0.1321119328551295
7.575111607142857,-0.05745473684955262
7.6084821428571425,0.025038334164049957
7.6418526785714285,0.07289710719457762
7.675223214285714,0.05171320406860088
7.7085937499999995,-0.05396669863245198
7.741964285714285,-0.2350107590158142
7.775334821428571,-0.45844986723525083
7.808705357142857,-0.6743646376817514
7.842075892857142,-0.8277673320665466
7.875446428571428,-0.8733463411912656
7.908816964285714,-0.7895316187121308
7.9421875,-0.5871530029241232
7.975558035714285,-0.3084034304485696
8.008928571428571,-0.014808119991045773
8.042299107142856,0.23232931917279914
8.075669642857143,0.391449926609596
8.109040178571428,0.45199558332839523
8.142410714285715,0.4328546537000455
8.17578125,0.36973814501261354
8.209151785714285,0.29847870389338077
8.242522321428572,0.2423708216440064
8.275892857142857,0.2082664893901587
8.309263392857142,0.19073482436515055
8.342633928571429,0.17973545610147648
8.376004464285714,0.16694714007972947
8.409375,0.148424340975392
8.442745535714286,0.12421047702159983
8.47611607142857,0.09688205108589915
8.509486607142858,0.07041751684224348
8.542857142857143,0.04942792711257635
8.576227678571428,0.03802768979981573
8.609598214285715,0.03800668740827641
8.64296875,0.04699173526262431
8.676339285714285,0.05795411212585443
8.709709821428572,0.06102442271444079
8.743080357142857,0.0472464529744431
8.776450892857143,0.012539261640188577
8.809821428571428,-0.0402326585920672
8.843191964285714,-0.10218689903039378
8.8765625,-0.16170727555579598
8.909933035714285,-0.20813731075257427
8.94330357142857,-0.23397950621378158
8.976674107142857,-0.2350223704512447
9.010044642857142,-0.20940279613904375
9.04341517857143,-0.15724130433808745
9.076785714285714,-0.08168053186489721
9.11015625,0.009450854449843768
9.143526785714286,0.10324159662523444
9.176897321428571,0.18409647622856884
9.210267857142856,0.23870054180912154
9.243638392857143,0.2613206071072945
9.277008928571428,0.2563924160706017
9.310379464285715,0.23639267759548951
9.34375,0.21544761522635184
9.377120535714285,0.20164460474004361
9.410491071428572,0.19213765935767815
9.443861607142857,0.17407732854807037
9.477232142857142,0.13149756922131225
9.510602678571429,0.05498195221161459
9.543973214285714,-0.050970978934653445
9.57734375,-0.16724963290299044
9.610714285714286,-0.26727857942199257
9.64408482142857,-0.32905452751444214
9.677455357142858,-0.34617698349751114
9.710825892857143,-0.3319456191345049
9.744196428571428,-0.31372211519030996
9.777566964285715,-0.31962706377038874
9.8109375,-0.3637888709184002
9.844308035714285,-0.4375050962741864
9.877678571428572,-0.5110148688994963
9.911049107142857,-0.5453623608999195
9.944419642857143,-0.5087901004284747
9.977790178571428,-0.3899479779877701
10.011160714285714,-0.20204173178583218
10.04453125,0.023265260510673128
10.077901785714285,0.24847894469609502
10.11127232142857,0.44312805598386573
10.144642857142857,0.5912998485125257
10.178013392857142,0.6915627382465274
10.21138392857143,0.7507665565151318
10.244754464285714,0.7757207001659575
10.278125,0.7671571086188423
10.311495535714286,0.7188990864291562
10.344866071428571,0.622561883638222
10.378236607142856,0.4753619516262421
10.411607142857143,0.28674116231371977
10.444977678571428,0.07952712431062368
10.478348214285715,-0.11626377067065566
10.51171875,-0.2748423832511459
10.545089285714285,-0.38551675155854664
10.578459821428572,-0.4564417350346373
10.611830357142857,-0.5078422601800199
10.645200892857142,-0.5572215650952935
10.678571428571429,-0.6044490697229281
10.711941964285714,-0.6259687517216613
10.745312499999999,-0.5832570443618794
10.778683035714286,-0.4429599876852925
10.81205357142857,-0.19913869032490344
10.845424107142858,0.11410321243473662
10.878794642857143,0.42721748549829647
10.912165178571428,0.6564177644864743
10.945535714285715,0.7329586370448595
10.97890625,0.6283575343528928
11.012276785714285,0.3655897848773722
11.045647321428572,0.012556308164065687
11.079017857142857,-0.3388850259144759
11.112388392857143,-0.6003548481815479
11.145758928571428,-0.7117661335766111
11.179129464285714,-0.6563048510966659
11.2125,-0.4618839885144212
11.245870535714285,-0.18939042456924166
11.27924107142857,0.08817478487192942
11.312611607142857,0.3087343450990676
11.345982142857142,0.4385227690943924
11.37935267857143,0.47782989496293327
11.412723214285714,0.45349789757786696
11.44609375,0.40197588577736254
11.479464285714286,0.35076860014830674
11.512834821428571,0.30674572481800877
11.546205357142856,0.25646685434048455
11.579575892857143,0.17780349275921836
11.612946428571428,0.05649099509172439
11.646316964285715,-0.10128329016424822
11.6796875,-0.26710394628287687
11.713058035714285,-0.400550107923583
11.746428571428572,-0.46632201850125415
11.779799107142857,-0.4496604724130472
11.813169642857142,-0.36250984848486595
11.846540178571429,-0.23775837147215115
11.879910714285714,-0.11483689757010859
11.913281249999999,-0.023876821816538815
11.946651785714286,0.024259503785168713
11.98002232142857,0.03817397307663326
12.013392857142858,0.037416813679870556
12.046763392857143,0.04031021742369335
12.080133928571428,0.05435629320799771
12.113504464285715,0.07358778384375257
12.146875,0.08346663031118967
12.180245535714285,0.07025983637187078
12.213616071428572,0.029899607969072563
12.246986607142857,-0.02813161910277513
12.280357142857143,-0.08379731948763058
12.313727678571428,-0.1149754917338567
12.347098214285714,-0.10740852596297278
12.38046875,-0.06142171778792397
12.413839285714285,0.007834607519780636
12.44720982142857,0.07685578226822806
12.480580357142857,0.12407064073371248
12.513950892857142,0.13932969233641965
12.54732142857143,0.12846922082183393
12.580691964285714,0.11112765379235137
12.6140625,0.11279452972983038
12.647433035714286,0.1540702753088246
12.680803571428571,0.24077795171264518
12.714174107142856,0.35821045363118215
12.747544642857143,0.4719330171803863
12.780915178571428,0.5362345414244243
12.814285714285713,0.5091521167882389
12.84765625,0.3699902233745778
12.881026785714285,0.13256360403517875
12.914397321428572,-0.1529797073208336
12.947767857142857,-0.41346624872700344
12.981138392857142,-0.5781930832545698
13.014508928571429,-0.6068229538127848
13.047879464285714,-0.5069066791845991
13.081249999999999,-0.3316928151931423
13.114620535714286,-0.15780615923558958
13.14799107142857,-0.05244185806849255
13.181361607142858,-0.04542937519621096
13.214732142857143,-0.11940758071532842
13.248102678571428,-0.22220996072046295
13.281473214285715,-0.294250981119436
13.31484375,-0.2964831550579993
13.348214285714285,-0.22527888798948853
13.381584821428572,-0.10857134430171173
13.414955357142857,0.012177450606420488
13.448325892857143,0.10299124718562937
13.481696428571428,0.15038407611763585
13.515066964285714,0.16133620138263788
13.5484375,0.15287860889042368
13.581808035714285,0.1389218017343917
13.61517857142857,0.12214553064985133
13.648549107142857,0.09484447181516195
13.681919642857142,0.04723190262370836
13.71529017857143,-0.02227017603348892
13.748660714285714,-0.1010010446900426
13.78203125,-0.16403909672264527
13.815401785714286,-0.18360017805742124
13.848772321428571,-0.14131969274254544
13.882142857142856,-0.03732736953228746
13.915513392857143,0.10831786661343568
13.948883928571428,0.26230191244237017
13.982254464285713,0.38929643281757526
14.015625,0.46246376936465133
14.048995535714285,0.46924837426815336
14.082366071428572,0.41168859001875013
14.115736607142857,0.30324600337646507
14.149107142857142,0.16476926274589113
14.182477678571429,0.020849323232445472
14.215848214285714,-0.10383788243925733
14.249218749999999,-0.18894893938739352
14.282589285714286,-0.2232453243174125
14.31595982142857,-0.20792692154035813
14.349330357142858,-0.15655602975152635
14.382700892857143,-0.09097867340187119
14.416071428571428,-0.0346104975020249
14.449441964285715,-0.005624871952417301
14.4828125,-0.012306476975297322
14.516183035714285,-0.05157062364117569
14.549553571428572,-0.11042508169484841
14.582924107142857,-0.16964394373861838
14.616294642857143,-0.20894696196971438
14.649665178571428,-0.2128343124239458
14.683035714285714,-0.1755906254582762
14.71640625,-0.10341676512271565
14.749776785714285,-0.012174848023510496
14.78314732142857,0.07883455441859998
14.816517857142857,0.15429998944717085
14.849888392857142,0.2077447357459542
14.88325892857143,0.24133631919620724
14.916629464285714,0.26121087318616104
14.95,0.27150859047376513
14.983370535714286,0.2707678613495731
15.016741071428571,0.2523837791125478
15.050111607142856,0.2080556671681815
15.083482142857143,0.13156740268793055
15.116852678571428,0.020814693828565257
15.150223214285713,-0.12204281052508077
15.18359375,-0.2908042565678863
15.216964285714285,-0.4743529151623246
15.250334821428572,-0.6548100253092589
15.283705357142857,-0.8066648100878419
15.317075892857142,-0.8992927641839122
15.350446428571429,-0.9037519429694542
15.383816964285714,-0.8020780922904642
15.417187499999999,-0.5952490853826844
15.450558035714286,-0.30599255598828823
15.48392857142857,0.02525068792753037
15.517299107142858,0.3499030614312834
15.550669642857143,0.6229098611475551
15.584040178571428,0.8126886384912946
15.617410714285715,0.9068170084374586
15.65078125,0.912669462856711
15.684151785714285,0.8535021078235965
15.717522321428572,0.7610711405034324
15.750892857142857,0.6662544952028329
15.784263392857143,0.5898153831461139
15.817633928571428,0.5361474575319067
15.851004464285714,0.4926381579682727
15.884375,0.4354908083876882
15.917745535714285,0.3399699020371776
15.95111607142857,0.19076150889700386
15.984486607142857,-0.011868718583624047
16.017857142857142,-0.2519890989435772
16.05122767857143,-0.5026000794248378
16.084598214285712,-0.7317617518635356
16.11796875,-0.9078716191572899
16.151339285714286,-1.003944232529864
16.18470982142857,-1.002162141347425
16.218080357142856,-0.8991650103537745
16.251450892857143,-0.7102576767448074
16.28482142857143,-0.46921006583391267
16.318191964285713,-0.2214019679192509
16.3515625,-0.011469379372024135
16.384933035714287,0.1298988102885461
16.41830357142857,0.19427889373313706
16.451674107142857,0.19540039523595865
16.485044642857144,0.1611936772227208
16.518415178571427,0.12216874481444316
16.551785714285714,0.10137916175485316
16.58515625,0.10953729310896276
16.618526785714284,0.14572072700496233
16.65189732142857,0.20147373693660436
16.685267857142858,0.2653077709692972
16.71863839285714,0.3257124426874423
16.752008928571428,0.37269285894057225
16.785379464285715,0.39903676605127353
16.81875,0.40210971128575
16.852120535714285,0.3854126906523414
16.88549107142857,0.3579269345087788
16.91886160714286,0.32985903295110375
16.95223214285714,0.30586368948460674
16.98560267857143,0.27951871823018304
17.018973214285715,0.23347179189446626
17.05234375,0.14712794024558123
17.085714285714285,0.009106991830737375
17.119084821428572,-0.17215858912453288
17.152455357142856,-0.3665815252170422
17.185825892857142,-0.5321163000211327
17.21919642857143,-0.6322936045707347
17.252566964285712,-0.6528203032621073
17.2859375,-0.6081069350650139
17.319308035714286,-0.5335862189112378
17.35267857142857,-0.46743407836142353
17.386049107142856,-0.4312970647923508
17.419419642857143,-0.4202292080558992
17.45279017857143,-0.4068421997280624
17.486160714285713,-0.3568216466693563
17.51953125,-0.24711613783400094
17.552901785714287,-0.07744541091542528
17.58627232142857,0.12984664883773517
17.619642857142857,0.3401617499076421
17.653013392857144,0.5210439957807704
