Time (s),Filtered Signal
0.0,0.018096666178122413
0.033370165745856356,0.08866203309398767
0.06674033149171271,0.18163941906853667
0.10011049723756907,0.31065018751573986
0.13348066298342542,0.4764288235491136
0.16685082872928178,0.6657006713414823
0.20022099447513814,0.854321877912488
0.2335911602209945,1.013465650807491
0.26696132596685085,1.1167613945071486
0.30033149171270723,1.146282937046673
0.33370165745856356,1.0960338658138151
0.3670718232044199,0.9726113737251005
0.4004419889502763,0.7935163043433945
0.43381215469613266,0.5838622574681153
0.467182320441989,0.3721173008703259
0.5005524861878453,0.1852920379898218
0.5339226519337017,0.043987178501322374
0.5672928176795581,-0.04191408467515761
0.6006629834254145,-0.07557628380248918
0.6340331491712707,-0.07209630710920081
0.6674033149171271,-0.05337252369636987
0.7007734806629835,-0.0403147048680188
0.7341436464088398,-0.04568610764940839
0.7675138121546962,-0.07126297773099109
0.8008839779005525,-0.11098719004145871
0.8342541436464089,-0.1581992596484268
0.8676243093922653,-0.21216110541383568
0.9009944751381216,-0.2791453653133817
0.934364640883978,-0.36680054502865106
0.9677348066298344,-0.4753041022965367
1.0011049723756906,-0.5917449654881429
1.0344751381215471,-0.6929441731856979
1.0678453038674034,-0.7568790802823042
1.1012154696132597,-0.7769591040533336
1.1345856353591162,-0.7703485632358507
1.1679558011049724,-0.7735683543960756
1.201325966850829,-0.8250418308383709
1.2346961325966852,-0.9417828469476339
1.2680662983425415,-1.1019236286347411
1.301436464088398,-1.2435141609774778
1.3348066298342542,-1.283158389009212
1.3681767955801105,-1.1486502459924746
1.401546961325967,-0.8123350960094886
1.4349171270718233,-0.31021030266197325
1.4682872928176796,0.263041369917451
1.501657458563536,0.7829186112022178
1.5350276243093923,1.137407027974132
1.5683977900552488,1.2663539755862057
1.601767955801105,1.182625970308816
1.6351381215469614,0.9670933815949598
1.6685082872928179,0.7395798623212865
1.7018784530386741,0.6165115362642082
1.7352486187845306,0.6701118187593583
1.768618784530387,0.9028238838339749
1.8019889502762432,1.2452807359824252
1.8353591160220997,1.5785692646934715
1.868729281767956,1.7738631542358474
1.9020994475138122,1.736683305926948
1.9354696132596687,1.44083374358902
1.968839779005525,0.9396919696194541
2.0022099447513813,0.34994041401162024
2.0355801104972375,-0.18710406766037696
2.0689502762430942,-0.5525836377169078
2.1023204419889505,-0.6880889515177714
2.135690607734807,-0.6106229987120482
2.169060773480663,-0.39989229838381124
2.2024309392265193,-0.16414775925138958
2.235801104972376,0.0012526101496987206
2.2691712707182323,0.04627288861762396
2.3025414364640886,-0.02250336408601413
2.335911602209945,-0.15514885808858708
2.369281767955801,-0.28961315264441134
2.402651933701658,-0.38643480818381065
2.436022099447514,-0.4501664386920501
2.4693922651933704,-0.5257215034568833
2.5027624309392267,-0.6693112246795773
2.536132596685083,-0.9073585068187865
2.5695027624309392,-1.2060168250668957
2.602872928176796,-1.4723851347227699
2.636243093922652,-1.5943622433281661
2.6696132596685085,-1.5045398310036138
2.7029834254143648,-1.2355881218654599
2.736353591160221,-0.9316724359708933
2.7697237569060777,-0.7975713695240512
2.803093922651934,-0.998644617451763
2.8364640883977903,-1.555465291951936
2.8698342541436466,-2.289199006715135
2.903204419889503,-2.857339190176184
2.936574585635359,-2.878379794971305
2.969944751381216,-2.0973380631302856
3.003314917127072,-0.5168831700469415
3.0366850828729284,1.5713799404552036
3.0700552486187846,3.6761256503603925
3.103425414364641,5.279281763156962
3.1367955801104976,6.01678036106623
3.170165745856354,5.790668466959747
3.20353591160221,4.772775031575622
3.2369060773480665,3.3118430662501352
3.2702762430939227,1.795223644426406
3.3036464088397794,0.5258234189114711
3.3370165745856357,-0.34391735400052253
3.370386740331492,-0.8115886090293188
3.4037569060773483,-0.9763244786798249
3.4371270718232045,-0.9731592367291341
3.4704972375690613,-0.9178303698607488
3.5038674033149175,-0.8772519272735702
3.537237569060774,-0.8673283869194036
3.57060773480663,-0.870175371165252
3.6039779005524863,-0.8587230978162458
3.6373480662983426,-0.8174187532542634
3.6707182320441993,-0.751788277234369
3.7040883977900556,-0.6851932745616043
3.737458563535912,-0.6463418872438819
3.770828729281768,-0.6542957362108601
3.8041988950276244,-0.7079323230410104
3.837569060773481,-0.7843090746153736
3.8709392265193374,-0.8463885118482507
3.9043093922651937,-0.8567981830996622
3.93767955801105,-0.7921186806705685
3.9710497237569062,-0.6522807610079632
4.0044198895027625,-0.4617553963843996
4.037790055248619,-0.2623256846824778
4.071160220994475,-0.10005993626617923
4.104530386740332,-0.01074685576852132
4.1379005524861885,-0.008280631159511642
4.171270718232044,-0.07955395568494777
4.204640883977901,-0.18764813639353656
4.238011049723757,-0.28274725642112064
4.271381215469614,-0.3176721230392132
4.30475138121547,-0.2630407470687828
4.338121546961326,-0.11677624450308005
4.371491712707183,0.09550473248862125
4.404861878453039,0.3292776289098948
4.438232044198895,0.5355697931627259
4.471602209944752,0.6756007783384508
4.504972375690608,0.7306028702376695
4.538342541436465,0.7043356227143254
4.5717127071823205,0.6188081044110733
4.605082872928177,0.5056960846667923
4.638453038674034,0.3963932690729309
4.67182320441989,0.31317020289802666
4.7051933701657465,0.26340204183811794
4.738563535911602,0.23847930947553206
4.771933701657459,0.2182644518956152
4.805303867403316,0.18024680382444613
4.8386740331491715,0.11025893440068603
4.872044198895028,0.010127984875524111
4.905414364640884,-0.10165493707193804
4.938784530386741,-0.1970731998871783
4.972154696132597,-0.250349882715915
5.005524861878453,-0.24856160056269233
5.03889502762431,-0.19582015289941382
5.072265193370166,-0.10920193874245951
5.105635359116023,-0.009069545269311365
5.1390055248618784,0.09069299294893132
5.172375690607735,0.1873307048049101
5.205745856353592,0.28674292683401725
5.239116022099448,0.395945116889305
5.272486187845304,0.5151195160214773
5.30585635359116,0.6336803636992332
5.339226519337017,0.7321308067932812
5.372596685082874,0.7881844232399876
5.4059668508287295,0.7836615712273757
5.439337016574586,0.7090433913312638
5.472707182320442,0.564693425935057
5.506077348066299,0.3599614115159223
5.5394475138121555,0.1121013496788432
5.572817679558011,-0.15420605395503958
5.606187845303868,-0.40790942900459287
5.639558011049724,-0.6155217390145296
5.672928176795581,-0.7493148224515768
5.706298342541437,-0.7983684981273189
5.739668508287293,-0.7779691849887183
5.77303867403315,-0.7315246427008507
5.806408839779006,-0.7209784434946558
5.839779005524862,-0.8064009491738724
5.873149171270718,-1.0210234327470258
5.906519337016575,-1.351649677386477
5.939889502762432,-1.733875237759999
5.9732596685082875,-2.066454052410888
6.006629834254144,-2.2413552487993202
6.04,-2.179032901410283
6.073370165745857,-1.8556111094055094
6.1067403314917135,-1.3115591792138523
6.140110497237569,-0.638636131448669
6.173480662983426,0.049968438001513085
6.206850828729282,0.6556085330824378
6.240220994475139,1.1238203723254743
6.273591160220995,1.4573166726629254
6.306961325966851,1.7072960637710604
6.340331491712708,1.9453874839831469
6.373701657458564,2.2261420878565636
6.40707182320442,2.554876066259249
6.440441988950277,2.8750429461313014
6.473812154696133,3.0824433483863682
6.50718232044199,3.0627955713801502
6.5405524861878455,2.738956059123023
6.573922651933702,2.1088602905949707
6.607292817679559,1.2575843498424306
6.640662983425415,0.33645831419805583
6.674033149171271,-0.484366458960194
6.707403314917127,-1.0715350117744256
6.740773480662984,-1.3693225458980343
6.774143646408841,-1.4087311843381798
6.8075138121546965,-1.282537775292614
6.840883977900553,-1.0999912155616522
6.874254143646409,-0.9435337095674928
6.907624309392266,-0.8465919555166517
6.9409944751381225,-0.7986391143956947
6.974364640883978,-0.7692790621458034
7.007734806629835,-0.7350894282453763
7.041104972375691,-0.6946850943630263
7.074475138121548,-0.6663631354109703
7.107845303867403,-0.6729134270112795
7.14121546961326,-0.7243404417280289
7.174585635359117,-0.8089016269459676
7.207955801104973,-0.8970561559505452
7.241325966850829,-0.9551904911773357
7.274696132596685,-0.9606235119908846
7.308066298342542,-0.9092830537753921
7.341436464088399,-0.8124872625505921
7.3748066298342545,-0.6862691692826978
7.408176795580111,-0.5411668535351984
7.441546961325967,-0.3794263455085706
7.474917127071824,-0.20080439191608188
7.5082872928176805,-0.011606172852463289
7.541657458563536,0.1711083360712796
7.575027624309393,0.3250160624634807
7.608397790055249,0.43551556356054044
7.641767955801106,0.5078435059433997
7.675138121546962,0.569088694193368
7.708508287292818,0.6563128453679506
7.741878453038675,0.7956443313920283
7.775248618784531,0.9836860163424581
7.808618784530387,1.1825740444454014
7.841988950276244,1.3331332115542083
7.8753591160221,1.3806199991264885
7.908729281767957,1.3002575875038946
7.9420994475138125,1.1093627222406612
7.975469613259669,0.8596595627752075
8.008839779005525,0.6137110159276303
8.042209944751383,0.4176819460017133
8.075580110497238,0.28435463950876966
8.108950276243094,0.19444914297468513
8.14232044198895,0.11406534468539514
8.175690607734808,0.01723452593743909
8.209060773480664,-0.09974756162835675
8.24243093922652,-0.21996309689569635
8.275801104972377,-0.3211411416154234
8.309171270718233,-0.39375172790960705
8.342541436464089,-0.4495653500412211
8.375911602209946,-0.5146102133746246
8.409281767955802,-0.6106189933517471
8.442651933701658,-0.7366969025111789
8.476022099447514,-0.863320310320291
8.509392265193371,-0.9436747602301645
8.542762430939227,-0.9370408242063192
8.576132596685083,-0.8315045048215022
8.60950276243094,-0.6530191666202664
8.642872928176796,-0.45498766015981484
8.676243093922652,-0.29315010628837845
8.709613259668508,-0.19878801706898408
8.742983425414366,-0.164485095571509
8.776353591160222,-0.15014524094155984
8.809723756906077,-0.10619099035958725
8.843093922651935,-0.0017271987174137249
8.87646408839779,0.15712057007463573
8.909834254143647,0.32822524145291465
8.943204419889504,0.45323590119021234
8.97657458563536,0.48594213266720226
9.009944751381216,0.4149618096162154
9.043314917127072,0.2697554823056194
9.07668508287293,0.1076055113140135
9.110055248618785,-0.011442485795171266
9.143425414364641,-0.04935787933197209
9.176795580110499,-0.0034113074918413434
9.210165745856354,0.09680217804520314
9.24353591160221,0.2053304336053122
9.276906077348068,0.28006692455975335
9.310276243093924,0.29787882619694367
9.34364640883978,0.2592634204964778
9.377016574585635,0.18284692959038648
9.410386740331493,0.09440747761389678
9.443756906077349,0.01626651838934322
9.477127071823205,-0.03895794165530301
9.510497237569062,-0.06937438698992196
9.543867403314918,-0.08117899304301401
9.577237569060774,-0.0845768705156081
9.610607734806631,-0.08968232032480962
9.643977900552487,-0.10274681068421537
9.677348066298343,-0.12283467994953218
9.710718232044199,-0.13984499545367543
9.744088397790057,-0.13564223413367324
9.777458563535912,-0.08972156545774358
9.810828729281768,0.011238831404161835
9.844198895027626,0.16349897661718504
9.877569060773482,0.34139628549720136
9.910939226519337,0.5017521788455113
9.944309392265193,0.5976876735634669
9.97767955801105,0.5968210509305126
10.011049723756907,0.4956464690256189
10.044419889502763,0.3229133451191851
10.07779005524862,0.1297962736641145
10.111160220994476,-0.029110399271495103
10.144530386740332,-0.1158233975730271
10.17790055248619,-0.1218933366251458
10.211270718232045,-0.0697931311702619
10.244640883977901,-0.003440352893747631
10.278011049723757,0.02758040169712843
10.311381215469615,-0.01574485856443695
10.34475138121547,-0.149874142551733
10.378121546961326,-0.363465888561254
10.411491712707184,-0.6193561508508482
10.44486187845304,-0.8629346663081864
10.478232044198895,-1.0351868195751779
10.511602209944753,-1.0876888995448093
10.544972375690609,-0.9958937929695645
10.578342541436465,-0.7668282049700308
10.61171270718232,-0.43850484726368705
10.645082872928178,-0.0708247307220216
10.678453038674034,0.26948642501738534
10.71182320441989,0.5255288046274922
10.745193370165747,0.6638256544185556
10.778563535911603,0.6812929522052406
10.811933701657459,0.6037240684003446
10.845303867403315,0.47587993878861257
10.878674033149172,0.34549441145691295
10.912044198895028,0.24595364927976773
10.945414364640884,0.1842500103069827
10.978784530386742,0.14043167282204627
11.012154696132598,0.08090996200964551
11.045524861878453,-0.018730700697694228
11.078895027624311,-0.15227400573514574
11.112265193370167,-0.2756492933696038
11.145635359116023,-0.32166665573160186
11.179005524861878,-0.23328086463135578
11.212375690607736,-0.00023253910684237444
11.245745856353592,0.3213293562554242
11.279116022099448,0.6209202414118171
11.312486187845305,0.77689366697473
11.345856353591161,0.7127337060340928
11.379226519337017,0.43876332493334946
11.412596685082875,0.05600870250375459
11.44596685082873,-0.28347527822005436
11.479337016574586,-0.44343935519902505
11.512707182320442,-0.3661747580098096
11.5460773480663,-0.10049184101108671
11.579447513812156,0.21946369992893866
11.612817679558011,0.43519811612291076
11.646187845303869,0.4360580038976066
11.679558011049725,0.2088575323415632
11.71292817679558,-0.15762668830801782
11.746298342541436,-0.5142051529484641
11.779668508287294,-0.7184286871213845
11.81303867403315,-0.6960270014079016
11.846408839779006,-0.4695422930139215
11.879779005524863,-0.1435220502033309
11.91314917127072,0.1442223977884525
11.946519337016575,0.28159626955893285
11.979889502762433,0.2254788059470455
12.013259668508288,0.012721024629064446
12.046629834254144,-0.2621404033971655
12.08,-0.48948487697289256
12.113370165745858,-0.5878836315034249
12.146740331491714,-0.5307760368662208
12.18011049723757,-0.3483412000024127
12.213480662983427,-0.10744304263227647
12.246850828729283,0.1191172349006428
12.280220994475139,0.2801283953133878
12.313591160220996,0.3596829753319505
12.346961325966852,0.37376724155763086
12.380331491712708,0.35429010908557806
12.413701657458564,0.3301716277611757
12.447071823204421,0.3151995154621247
12.480441988950277,0.3075795644809029
12.513812154696133,0.2990166815823254
12.54718232044199,0.28571708015688474
12.580552486187846,0.2730831866147058
12.613922651933702,0.27048365218497217
12.64729281767956,0.27950299167495674
12.680662983425416,0.2841027690576076
12.714033149171271,0.2508907815290039
12.747403314917127,0.14210996045010527
12.780773480662985,-0.06380085523042804
12.81414364640884,-0.3545913679371007
12.847513812154697,-0.6797293903880056
12.880883977900554,-0.9631687168376365
12.91425414364641,-1.128762325581728
12.947624309392266,-1.1272101366323017
12.980994475138122,-0.952656685075823
13.01436464088398,-0.6423488768372579
13.047734806629835,-0.2610420396840043
13.081104972375691,0.12148697774657279
13.114475138121549,0.449725042863538
13.147845303867404,0.6918325277180533
13.18121546961326,0.8384207087554986
13.214585635359118,0.8947817874160405
13.247955801104974,0.8721942573839611
13.28132596685083,0.7823085486626208
13.314696132596685,0.6357165976106808
13.348066298342543,0.4436064031696594
13.381436464088399,0.22068812749839367
13.414806629834255,-0.012188492428570152
13.448176795580112,-0.22707256720139563
13.481546961325968,-0.3909923872274104
13.514917127071824,-0.47210098953087504
13.548287292817681,-0.4493407645186149
13.581657458563537,-0.32253327130432424
13.615027624309393,-0.11786755467457723
13.648397790055249,0.11564307592346033
13.681767955801106,0.3194770045036745
13.715138121546962,0.44430108939142404
13.748508287292818,0.46611898833203325
13.781878453038676,0.39243627254058777
13.815248618784532,0.2556328815789553
13.848618784530387,0.09702827987364693
13.881988950276245,-0.05045808358915458
13.9153591160221,-0.17302359420039892
13.948729281767957,-0.2760174995560712
13.982099447513813,-0.37476026821274055
14.01546961325967,-0.4816202214436701
14.048839779005526,-0.5956271549635967
14.082209944751382,-0.6988934209670029
14.11558011049724,-0.7609116789915529
14.148950276243095,-0.7489205530789425
14.182320441988951,-0.6406674157136417
14.215690607734807,-0.4351501794625775
14.249060773480664,-0.1573409173793788
14.28243093922652,0.1453909588628453
14.315801104972376,0.41464199808293256
14.349171270718234,0.5966478303827342
14.38254143646409,0.6570201657974332
14.415911602209945,0.5897040239900825
14.449281767955803,0.4177365953547396
14.482651933701659,0.18654310826204867
14.516022099447515,-0.047259785056470674
14.54939226519337,-0.22820061871330757
14.582762430939228,-0.31317732126784187
14.616132596685084,-0.2805618421286
14.64950276243094,-0.13635408579849578
14.682872928176797,0.08436732402653478
14.716243093922653,0.32314413673218023
14.749613259668509,0.5122429949521787
14.782983425414367,0.5949019086801298
14.816353591160222,0.5452147245946131
14.849723756906078,0.37909231757567496
14.883093922651934,0.15006168174317236
14.916464088397792,-0.06998425019319399
14.949834254143648,-0.217692009420613
14.983204419889503,-0.2612826691273893
15.016574585635361,-0.20969501469912918
15.049944751381217,-0.10428527365846253
15.083314917127073,0.002383599300556007
15.116685082872928,0.07045695967145708
15.150055248618786,0.08851288124487636
15.183425414364642,0.07453122579119856
15.216795580110498,0.06264312071051437
15.250165745856355,0.08273676027500988
15.283535911602211,0.14306626162379496
15.316906077348067,0.22432640254561675
15.350276243093925,0.2880451196722054
15.38364640883978,0.29517867280070703
15.417016574585636,0.2257019445946828
15.450386740331492,0.0892562317498959
15.48375690607735,-0.07888634636518473
15.517127071823205,-0.23494853698164542
15.550497237569061,-0.3483097190104116
15.583867403314919,-0.41621440716813235
15.617237569060775,-0.46303646330935905
15.65060773480663,-0.523475190355549
15.683977900552488,-0.6179694781921587
15.717348066298344,-0.7337503445188043
15.7507182320442,-0.8230829322661023
15.784088397790056,-0.8217745388812352
15.817458563535913,-0.6801429029580451
15.85082872928177,-0.39126279907489175
15.884198895027625,-0.0017419789834015997
15.917569060773483,0.40139515067390646
15.950939226519338,0.7222545054257087
15.984309392265194,0.8914935465570369
16.01767955801105,0.8895059645878339
16.051049723756908,0.7478016953194861
16.084419889502765,0.5298973776068325
16.11779005524862,0.30246903600266273
16.151160220994477,0.11090272985514554
16.18453038674033,-0.0304219798874378
16.21790055248619,-0.13118351477194085
16.251270718232046,-0.20796997625613056
16.2846408839779,-0.2676568362204083
16.318011049723758,-0.3004574665225693
16.351381215469615,-0.2856791086739114
16.38475138121547,-0.20601634117928913
16.418121546961327,-0.06172649698976699
16.451491712707185,0.12352442383250944
16.48486187845304,0.30849941824967836
16.518232044198896,0.44892285822538325
16.551602209944754,0.5134611376458554
16.584972375690608,0.4938093336163853
16.618342541436466,0.4051205849339666
16.651712707182323,0.2778637979001149
16.685082872928177,0.1456962965706618
16.718453038674035,0.034727094284156476
16.751823204419892,-0.04211001021361626
16.785193370165747,-0.08467246187453469
16.818563535911604,-0.10088928935793201
16.851933701657458,-0.10077559073448636
16.885303867403316,-0.0921499277131879
16.918674033149173,-0.07967782948999334
16.952044198895027,-0.06694820408273928
16.985414364640885,-0.05965989885491664
17.018784530386743,-0.06736941484010586
17.052154696132597,-0.10191484905169598
17.085524861878454,-0.17232656594060397
17.118895027624312,-0.27804864956002834
17.152265193370166,-0.4037161312008992
17.185635359116024,-0.5188065676796121
17.21900552486188,-0.5839578415440869
17.252375690607735,-0.563054810176068
17.285745856353593,-0.43737415294375626
17.31911602209945,-0.21640370095806086
17.352486187845304,0.05963378160910494
