Frequency (Hz),Amplitude
0.0,0.3886205070400972
0.019867549668874173,0.39246391525477864
0.039735099337748346,0.4037600214528154
0.059602649006622516,0.42186856905478026
0.07947019867549669,0.44589429094885397
0.09933774834437085,0.4748534032883585
0.11920529801324503,0.5077991300357496
0.13907284768211922,0.5438901962467472
0.15894039735099338,0.5824136928212046
0.17880794701986755,0.6227810157557211
0.1986754966887417,0.6645118327132261
0.2185430463576159,0.70721497816609
0.23841059602649006,0.7505705421063545
0.2582781456953642,0.7943147059318622
0.27814569536423844,0.8382275501255348
0.2980132450331126,0.8821235155857363
0.31788079470198677,0.9258440446127892
0.33774834437086093,0.9692519381835552
0.3576158940397351,1.0122270351412537
0.3774834437086093,1.0546628984668214
0.3973509933774834,1.0964642654513874
0.4172185430463576,1.1375450771414706
0.4370860927152318,1.1778269480397086
0.45695364238410596,1.2172379716904425
0.4768211920529801,1.2557117837539886
0.49668874172185434,1.29318682352824
0.5165562913907285,1.3296057492734428
0.5364238410596026,1.3649149734165527
0.5562913907284769,1.3990642917166145
0.5761589403973509,1.4320065864745317
0.5960264900662252,1.4636975883917767
0.6158940397350993,1.4940956851063874
0.6357615894039735,1.5231617670419437
0.6556291390728477,1.5508591032020964
0.6754966887417219,1.5771532410813855
0.695364238410596,1.6020119260552055
0.7152317880794702,1.625405036540525
0.7350993377483444,1.6473045319473416
0.7549668874172186,1.6676844110151179
0.7748344370860927,1.6865206785838156
0.7947019867549668,1.7037913192126326
0.8145695364238411,1.7194762763512204
0.8344370860927152,1.7335574360039019
0.8543046357615894,1.7460186140191132
0.8741721854304636,1.7568455462935948
0.8940397350993378,1.7660258813102938
0.9139072847682119,1.77354917453796
0.9337748344370861,1.7794068843112327
0.9536423841059603,1.7835923688886322
0.9735099337748344,1.7861008844536985
0.9933774834437087,1.7869295838848451
1.0132450331125828,1.786077516173819
1.033112582781457,1.783545626423778
1.0529801324503312,1.779336756406013
1.0728476821192052,1.77345564570282
1.0927152317880795,1.7659089335120906
1.1125827814569538,1.7567051612408024
1.1324503311258278,1.7458547760694583
1.1523178807947019,1.7333701357306357
1.1721854304635762,1.7192655148138192
1.1920529801324504,1.7035571129883489
1.2119205298013245,1.686263065629365
1.2317880794701985,1.667403457442388
1.2516556291390728,1.6470003398145194
1.271523178807947,1.6250777527809233
1.2913907284768211,1.6016617526911916
1.3112582781456954,1.5767804469009703
1.3311258278145695,1.5504640371126825
1.3509933774834437,1.5227448733606956
1.370860927152318,1.493657521101805
1.390728476821192,1.4632388444594642
1.410596026490066,1.4315281094141494
1.4304635761589404,1.3985671116823537
1.4503311258278146,1.3644003352444811
1.4701986754966887,1.329075149053618
1.4900662251655628,1.2926420514965833
1.5099337748344372,1.2551549748403072
1.5298013245033113,1.2166716653897682
1.5496688741721854,1.1772541596934416
1.5695364238410596,1.1369693832461643
1.5894039735099337,1.0958899062851615
1.609271523178808,1.0540949021694364
1.6291390728476822,1.011671368438357
1.6490066225165563,0.9687156902366683
1.6688741721854303,0.9253356520098689
1.6887417218543048,0.881653038206036
1.7086092715231789,0.8378070093265121
1.728476821192053,0.7939584977387916
1.7483443708609272,0.7502959377970191
1.7682119205298013,0.7070427207071825
1.7880794701986755,0.6644668258074228
1.8079470198675496,0.6228930752607198
1.8278145695364238,0.5827182752013194
1.847682119205298,0.544428916416391
1.8675496688741722,0.5086197103360053
1.8874172185430464,0.476008454423776
1.9072847682119205,0.4474380897307048
1.9271523178807946,0.4238510202800896
1.9470198675496688,0.4062177504352035
1.9668874172185429,0.39541030650337117
1.9867549668874174,0.3920387882968721
2.0066225165562916,0.3963077408759397
2.0264900662251657,0.4079625619476615
2.0463576158940397,0.42635604107208114
2.066225165562914,0.4505979312743006
2.086092715231788,0.4797163497491223
2.1059602649006623,0.5127782675461852
2.1258278145695364,0.5489548714227864
2.1456953642384105,0.5875431893027273
2.165562913907285,0.627961949904803
2.185430463576159,0.6697359647467892
2.205298013245033,0.7124775477528154
2.2251655629139075,0.7558690714034001
2.2450331125827816,0.7996481666110905
2.2649006622516556,0.84359579528646
2.2847682119205297,0.8875268974243642
2.3046357615894038,0.9312831596687241
2.324503311258278,0.974727459192489
2.3443708609271523,1.0177396013027435
2.364238410596027,1.0602130449736473
2.384105960264901,1.1020523793479307
2.403973509933775,1.1431713708019573
2.423841059602649,1.1834914444056726
2.443708609271523,1.2229404973228117
2.463576158940397,1.2614519670443602
2.4834437086092715,1.2989640962828537
2.5033112582781456,1.3354193504700824
2.52317880794702,1.3707639543319745
2.543046357615894,1.4049475218917018
2.562913907284768,1.4379227601677296
2.5827814569536423,1.4696452312958745
2.6026490066225163,1.5000731611887401
2.622516556291391,1.5291672854255018
2.642384105960265,1.556890725043736
2.662251655629139,1.5832088864301215
2.6821192052980134,1.6080893806902552
2.7019867549668874,1.631501958800748
2.7218543046357615,1.6534184595710444
2.741721854304636,1.6738127680138548
2.76158940397351,1.6926607821769335
2.781456953642384,1.709940386850953
2.801324503311258,1.7256314328596627
2.821192052980132,1.7397157208734344
2.8410596026490067,1.7521769888793775
2.8609271523178808,1.763000902597976
2.8807947019867552,1.7721750482666736
2.9006622516556293,1.7796889273191456
2.9205298013245033,1.78553395258114
2.9403973509933774,1.7897034456822238
2.9602649006622515,1.7921926354516082
2.9801324503311255,1.7929986571268033
3.0,1.7921205522594648
3.0198675496688745,1.7895592692542726
3.0397350993377485,1.7853176645262432
3.0596026490066226,1.7794005043111139
3.0794701986754967,1.771814467213324
3.0993377483443707,1.762568147629105
3.119205298013245,1.7516720602392006
3.1390728476821192,1.7391386458290898
3.1589403973509933,1.724982278766443
3.1788079470198674,1.7092192765484344
3.198675496688742,1.691867911928674
3.218543046357616,1.6729484282489766
3.23841059602649,1.6524830587392902
3.2582781456953644,1.630496050716936
3.2781456953642385,1.6070136958205077
3.2980132450331126,1.5820643676652668
3.3178807947019866,1.5556785686176786
3.3377483443708607,1.5278889877740014
3.3576158940397347,1.4987305727125302
3.3774834437086096,1.4682406181997925
3.3973509933774837,1.4364588758045833
3.4172185430463577,1.403427689358975
3.437086092715232,1.3691921624676289
3.456953642384106,1.3338003658927329
3.47682119205298,1.2973035947476677
3.4966887417218544,1.2597566881752558
3.5165562913907285,1.221218427777135
3.5364238410596025,1.181752035785707
3.556291390728477,1.141425800215952
3.576158940397351,1.1003138625235247
3.596026490066225,1.058497214329465
3.615894039735099,1.016064964480159
3.6357615894039736,0.973115957303453
3.6556291390728477,0.9297608489069755
3.6754966887417218,0.8861247824959562
3.695364238410596,0.8423508476813223
3.7152317880794703,0.7986045635104235
3.7350993377483444,0.7550796887016664
3.754966887417219,0.7120057266865146
3.774834437086093,0.6696575334760931
3.794701986754967,0.6283673966716373
3.814569536423841,0.5885397153279835
3.834437086092715,0.5506677460040645
3.854304635761589,0.5153504102101186
3.8741721854304636,0.4833043838635492
3.8940397350993377,0.4553623300169289
3.9139072847682117,0.432443161600192
3.9337748344370858,0.41547865883928353
3.9536423841059607,0.4052903802095169
3.9735099337748347,0.402437340490972
3.993377483443709,0.40708791239281483
4.013245033112583,0.41897743676784005
4.033112582781457,0.4374745788861911
4.052980132450331,0.46172086848522714
4.072847682119205,0.49077984743594766
4.0927152317880795,0.5237491690030108
4.112582781456953,0.5598226961903504
4.132450331125828,0.598312321610495
4.152317880794702,0.6386454742438077
4.172185430463576,0.6803513489049685
4.19205298013245,0.7230438534860967
4.211920529801325,0.7664052666160556
4.231788079470199,0.810172172157898
4.251655629139073,0.854123997042724
4.271523178807947,0.8980739413168922
4.291390728476821,0.941861912074184
4.311258278145695,0.985349059256482
4.33112582781457,1.0284135604531264
4.3509933774834435,1.0709473670521075
4.370860927152318,1.1128536860320066
4.390728476821192,1.154045023853476
4.410596026490066,1.1944416604065753
4.43046357615894,1.2339704529942697
4.450331125827815,1.2725638946457518
4.470198675496689,1.3101593693608784
4.490066225165563,1.3466985606265676
4.509933774834438,1.3821269798552676
4.529801324503311,1.4163935891455006
4.549668874172186,1.4494504986094296
4.569536423841059,1.4812527229384884
4.589403973509934,1.5117579852460041
4.6092715231788075,1.5409265588014596
4.629139072847682,1.5687211392510985
4.649006622516556,1.595106741450684
4.66887417218543,1.6200506162263024
4.688741721854305,1.643522183309346
4.708609271523179,1.6654929774233518
4.728476821192054,1.685936605078443
4.748344370860927,1.7048287100891217
4.768211920529802,1.7221469461987153
4.788079470198675,1.7378709554897522
4.80794701986755,1.751982351499285
4.827814569536423,1.7644647061533996
4.847682119205298,1.775303539796014
4.867549668874172,1.7844863137197604
4.887417218543046,1.792002424718497
4.9072847682119205,1.7978432012751175
4.927152317880794,1.802001901079465
4.947019867549669,1.804473709641776
4.966887417218543,1.805255739830346
4.986754966887418,1.8043470322194424
5.006622516556291,1.8017485561872426
5.026490066225166,1.7974632117557765
5.04635761589404,1.7914958322159773
5.066225165562914,1.7838531876342498
5.086092715231788,1.774543989392375
5.105960264900662,1.763578895973445
5.125827814569536,1.7509705202736905
5.14569536423841,1.7367334387965436
5.1655629139072845,1.7208842031735574
5.185430463576159,1.703441354560481
5.205298013245033,1.6844254415794802
5.225165562913908,1.6638590426261215
5.245033112582782,1.6417667935380718
5.264900662251656,1.6181754218397502
5.28476821192053,1.5931137890446652
5.304635761589404,1.566612942826873
5.324503311258278,1.538706181283361
5.344370860927152,1.5094291320222313
5.364238410596027,1.4788198494561673
5.3841059602649,1.4469189344958642
5.403973509933775,1.4137696818736216
5.4238410596026485,1.3794182616503465
5.443708609271523,1.3439139431579255
5.463576158940397,1.3073093718216835
5.483443708609272,1.2696609121513416
5.503311258278146,1.2310290738953746
5.52317880794702,1.1914790432040898
5.543046357615895,1.1510813470191825
5.562913907284768,1.109912687303078
5.582781456953643,1.0680569927990358
5.602649006622516,1.025606750626653
5.622516556291391,0.9826646992306858
5.642384105960264,0.9393459892709458
5.662251655629139,0.8957809512683187
5.682119205298013,0.8521186491471315
5.701986754966887,0.8085314468250635
5.7218543046357615,0.7652208667530176
5.741721854304636,0.7224250628038401
5.7615894039735105,0.6804282362513412
5.781456953642384,0.6395722307867057
5.801324503311259,0.600270229025045
5.821192052980132,0.5630217229871844
5.841059602649007,0.5284264157654187
5.860927152317881,0.497192070020638
5.880794701986755,0.47012753496365034
5.900662251655629,0.4481085183356502
5.920529801324503,0.43200395981115763
5.940397350993377,0.422561265700907
5.960264900662251,0.42027200885234917
5.980132450331126,0.42526499683169705
6.0,0.43727599010560214
6.0198675496688745,0.45570960599051186
6.039735099337749,0.47976227483944045
6.059602649006623,0.5085537092785671
6.079470198675497,0.5412278734198495
6.099337748344371,0.577011433508829
6.119205298013245,0.6152366786343549
6.139072847682119,0.6553419611030084
6.158940397350993,0.6968609447639693
6.178807947019867,0.7394079671940937
6.198675496688741,0.7826634027349028
6.218543046357616,0.8263607127849996
6.23841059602649,0.8702756744335939
6.258278145695365,0.9142177176755697
6.2781456953642385,0.9580230861980463
6.298013245033113,1.0015494894046886
6.317880794701987,1.0446719376646019
6.337748344370861,1.0872795011525627
6.357615894039735,1.1292727836740177
6.377483443708609,1.1705619481679708
6.397350993377484,1.211065167831788
6.417218543046357,1.2507074062477528
6.437086092715232,1.2894194526477305
6.456953642384105,1.3271371558369955
6.47682119205298,1.3638008135010606
6.496688741721854,1.3993546836257007
6.516556291390729,1.433746592347269
6.5364238410596025,1.4669276183147528
6.556291390728477,1.4988518380388836
6.5761589403973515,1.5294761200661569
6.596026490066225,1.5587599584001721
6.6158940397351,1.586665337589192
6.635761589403973,1.6131566234485155
6.655629139072848,1.6382004745956145
6.675496688741721,1.6617657709245444
6.695364238410596,1.6838235558941563
6.715231788079469,1.7043469900978747
6.735099337748344,1.7233113140556306
6.754966887417219,1.7406938185478258
6.774834437086093,1.756473821116992
6.794701986754967,1.7706326476111187
6.814569536423841,1.783153617845601
6.8344370860927155,1.794022034627805
6.854304635761589,1.8032251755270363
6.874172185430464,1.8107522868893922
6.894039735099337,1.8165945796955194
6.913907284768212,1.8207452269449385
6.933774834437086,1.8231993623249092
6.95364238410596,1.8239540799886524
6.973509933774834,1.8230084353288805
6.993377483443709,1.820363446689931
7.013245033112583,1.8160220980173147
7.033112582781457,1.8099893424990623
7.052980132450331,1.8022721073100272
7.072847682119205,1.7928792996309553
7.0927152317880795,1.7818218141795303
7.112582781456954,1.7691125425637897
7.132450331125828,1.7547663848514865
7.152317880794702,1.738800263844842
7.172185430463576,1.7212331426626197
7.19205298013245,1.7020860463652359
7.211920529801324,1.6813820885182489
7.231788079470198,1.6591465037830875
7.251655629139073,1.6354066878591078
7.271523178807947,1.6101922463895006
7.291390728476822,1.5835350547990363
7.311258278145695,1.5554693314726837
7.33112582781457,1.5260317272336406
7.3509933774834435,1.4952614347681512
7.370860927152318,1.463200322511993
7.390728476821192,1.429893098611414
7.410596026490066,1.3953875119676407
7.430463576158941,1.3597345991579852
7.450331125827814,1.3229889883162356
7.470198675496689,1.2852092740052143
7.490066225165562,1.2464584809312027
7.509933774834438,1.2068046393023382
7.52980132450331,1.1663215010748897
7.549668874172186,1.125089434718605
7.569536423841059,1.0831965470457683
7.589403973509934,1.0407400947992924
7.6092715231788075,0.9978282669093954
7.629139072847682,0.954582441448502
7.649006622516557,0.9111400499564545
7.66887417218543,0.8676582157782988
7.6887417218543055,0.8243183701290959
7.708609271523178,0.7813320830418139
7.728476821192054,0.73894836020724
7.748344370860927,0.6974626172645467
7.768211920529802,0.6572273847772859
7.788079470198675,0.6186644025927781
7.80794701986755,0.5822769440757144
7.827814569536423,0.5486597243839783
7.847682119205298,0.5185014147354633
7.8675496688741715,0.492571871782039
7.887417218543046,0.47168413109806556
7.907284768211921,0.4566232752563818
7.927152317880795,0.44804456806749743
7.9470198675496695,0.44636189338736654
7.966887417218543,0.4516644824009328
7.986754966887418,0.463697921672735
8.006622516556291,0.4819184052800158
8.026490066225167,0.5055952380321422
8.046357615894038,0.5339213525286737
8.066225165562914,0.5661010740287181
8.086092715231787,0.6014041200030104
8.105960264900663,0.6391897783123104
8.125827814569536,0.6789109463056795
8.14569536423841,0.720107198026351
8.165562913907285,0.762393282218008
8.185430463576159,0.8054467524064611
8.205298013245034,0.8489965324928432
8.225165562913906,0.89281310226993
8.245033112582782,0.9367004094779174
8.264900662251655,0.9804893572521727
8.28476821192053,1.0240326275259966
8.304635761589404,1.0672005935966717
8.324503311258278,1.1098781012420496
8.344370860927151,1.151961934049987
8.364238410596027,1.1933588144315477
8.3841059602649,1.233983823062877
8.403973509933774,1.2737591452308858
8.42384105960265,1.3126130730488064
8.443708609271523,1.3504792085270443
8.463576158940398,1.3872958248796847
8.483443708609272,1.4230053529877735
8.503311258278146,1.4575539672694782
8.52317880794702,1.4908912508390582
8.543046357615895,1.5229699241714174
8.562913907284768,1.5537456248350816
8.582781456953642,1.5831767284481644
8.602649006622515,1.6112242030273352
8.62251655629139,1.6378514904741386
8.642384105960264,1.6630244101779206
8.66225165562914,1.6867110806886754
8.682119205298013,1.7088818561841814
8.701986754966887,1.7295092750704049
8.721854304635762,1.7485680185455583
8.741721854304636,1.7660348773540386
8.76158940397351,1.781888725276558
8.781456953642383,1.7961104981638276
8.801324503311259,1.8086831775347298
8.821192052980132,1.8195917779367627
8.841059602649008,1.8288233374137663
8.86092715231788,1.8363669105496034
8.880794701986755,1.8422135636624686
8.90066225165563,1.8463563718153544
8.920529801324504,1.8487904173887255
8.940397350993377,1.849512790033399
8.960264900662251,1.8485225878878209
8.980132450331126,1.8458209200065154
9.0,1.8414109100069829
9.019867549668875,1.8352977010034044
9.039735099337747,1.827488461958047
9.059602649006623,1.817992395647897
9.079470198675496,1.8068207485166132
9.099337748344372,1.7939868227628226
9.119205298013245,1.7795059911075166
9.139072847682119,1.7633957147896189
9.158940397350994,1.7456755654630578
9.178807947019868,1.726367251816006
9.198675496688743,1.7054946519089875
9.218543046357615,1.6830838524409086
9.23841059602649,1.6591631964098594
9.258278145695364,1.6337633409504535
9.27814569536424,1.6069173275163087
9.298013245033111,1.57866066705446
9.317880794701987,1.549031443411502
9.33774834437086,1.5180704389512312
9.357615894039736,1.485821287290564
9.37748344370861,1.452330659226353
9.397350993377483,1.4176484893988384
9.417218543046358,1.3818282531054942
9.437086092715232,1.3449273050552761
9.456953642384107,1.307007294886536
9.47682119205298,1.2681346781510199
9.496688741721854,1.228381346435314
9.516556291390728,1.1878254066556853
9.536423841059603,1.1465521476999259
9.556291390728477,1.1046552429465923
9.57615894039735,1.0622382502599244
9.596026490066224,1.0194164872993763
9.6158940397351,0.976319379655872
9.635761589403973,0.9330934021169501
9.655629139072847,0.8899057576370472
9.675496688741722,0.8469489599767931
9.695364238410596,0.8044464947742875
9.715231788079471,0.7626597104825866
9.735099337748345,0.721895998535081
9.754966887417218,0.6825180974107886
9.774834437086092,0.6449538964535554
9.794701986754967,0.6097052839202663
9.814569536423841,0.5773532466474348
9.834437086092716,0.5485546015082935
9.854304635761588,0.5240238996872438
9.874172185430464,0.5044935702350845
9.894039735099337,0.49064862578061275
9.913907284768213,0.48304128802280605
9.933774834437086,0.4820041224579806
9.95364238410596,0.4875898191909871
9.973509933774835,0.49956142307938317
9.993377483443709,0.5174371359915978
10.013245033112582,0.5405712468189452
10.033112582781456,0.568242625576269
10.052980132450331,0.5997279996126382
10.072847682119205,0.6343503672649435
10.09271523178808,0.6715038222507259
10.112582781456952,0.7106611440352729
10.132450331125828,0.7513710094251388
10.152317880794701,0.7932501025483222
10.172185430463577,0.8359734862279594
10.192052980132452,0.8792650820572538
10.211920529801324,0.9228891174486008
10.2317880794702,0.9666428302156719
10.251655629139073,1.0103504306006834
10.271523178807948,1.0538581921762593
10.29139072847682,1.0970305012774897
10.311258278145695,1.1397466950465494
10.331125827814569,1.1818985364701708
10.350993377483444,1.2233881985504358
10.370860927152318,1.2641266531549602
10.390728476821192,1.3040323807776213
10.410596026490065,1.3430303347417536
10.43046357615894,1.3810511074067608
10.450331125827816,1.4180302571093641
10.470198675496688,1.45390776337121
10.490066225165563,1.4886275847977966
10.509933774834437,1.5221372994782898
10.529801324503312,1.5543878118998593
10.549668874172186,1.5853331136758666
10.56953642384106,1.614930087959936
10.589403973509933,1.6431383494382088
10.609271523178808,1.6699201133837678
10.629139072847682,1.695240088515893
10.649006622516556,1.719065389405979
10.66887417218543,1.74136546496905
10.688741721854305,1.7621120402174228
