Time (s),Filtered Signal
0.0,0.07534087315070861
0.03337008452774715,0.12141266790049252
0.0667401690554943,0.17655416589233164
0.10011025358324147,0.23779408136037264
0.1334803381109886,0.2842563383865113
0.16685042263873576,0.28399003984278887
0.20022050716648293,0.20903883448025706
0.23359059169423008,0.050653669728522
0.2669606762219772,-0.17321642205655738
0.30033076074972437,-0.4214206508765085
0.3337008452774715,-0.64161037014461
0.36707092980521866,-0.7849194131066035
0.40044101433296586,-0.8179063203837869
0.433811098860713,-0.7291484340579266
0.46718118338846015,-0.5305260524695035
0.5005512679162073,-0.2542114623763239
0.5339213524439544,0.053903188479101694
0.5672914369717016,0.34370055548559425
0.6006615214994487,0.5716737711649298
0.6340316060271959,0.7101300153088962
0.667401690554943,0.7514382510770348
0.7007717750826902,0.7056920945181803
0.7341418596104373,0.5933388987518016
0.7675119441381845,0.4369979228031928
0.8008820286659317,0.2568056374748024
0.8342521131936789,0.0707664211607762
0.867622197721426,-0.10240501816665028
0.9009922822491732,-0.2426137730164407
0.9343623667769203,-0.3329727638734204
0.9677324513046675,-0.3682435633134133
1.0011025358324146,-0.36150963791433693
1.0344726203601617,-0.34287529693588037
1.0678427048879089,-0.3480345787997304
1.101212789415656,-0.40095879003873935
1.1345828739434032,-0.4995436118494801
1.1679529584711503,-0.6126101242990457
1.2013230429988975,-0.6910951757463488
1.2346931275266446,-0.6887261761218998
1.2680632120543918,-0.5822573481300439
1.301433296582139,-0.381328484495668
1.334803381109886,-0.1231533317639839
1.3681734656376332,0.14515207587613752
1.4015435501653803,0.3875776498163104
1.4349136346931275,0.5928381548605722
1.4682837192208746,0.7736268751372835
1.5016538037486218,0.9519706489815715
1.535023888276369,1.1385434811374442
1.568393972804116,1.3172393802548683
1.6017640573318634,1.4438826603791914
1.6351341418596106,1.4608765769912107
1.6685042263873577,1.3215515438089451
1.7018743109151049,1.0130666867366738
1.735244395442852,0.567257433087748
1.7686144799705992,0.054311242098969134
1.8019845644983463,-0.43821901471576324
1.8353546490260935,-0.8323862383122119
1.8687247335538406,-1.082081639189092
1.9020948180815878,-1.1824869397992321
1.935464902609335,-1.164555245062783
1.968834987137082,-1.0785059958944523
2.002205071664829,-0.9740893285685328
2.0355751561925763,-0.8853840065439156
2.0689452407203235,-0.8246952485224183
2.1023153252480706,-0.7856851320431874
2.1356854097758178,-0.7523655298319308
2.169055494303565,-0.7092257670798019
2.202425578831312,-0.6484580934016446
2.235795663359059,-0.5720754536018862
2.2691657478868064,-0.48876884998689485
2.3025358324145535,-0.40715115241537225
2.3359059169423007,-0.3284035294317591
2.369276001470048,-0.24195244177653116
2.402646085997795,-0.12705769289436925
2.436016170525542,0.039238752808097244
2.4693862550532892,0.270722080820179
2.5027563395810364,0.5625208556263227
2.5361264241087835,0.8885180317017792
2.5694965086365307,1.2072731814518438
2.602866593164278,1.4736514745607376
2.636236677692025,1.6507427388906994
2.669606762219772,1.7174137439525892
2.7029768467475193,1.6700326104442917
2.7363469312752664,1.519967520061273
2.7697170158030135,1.2893573119376875
2.8030871003307607,1.0064407815780332
2.836457184858508,0.7002481275306152
2.869827269386255,0.39449840249448787
2.903197353914002,0.10220412629226792
2.9365674384417493,-0.17596951115132103
2.9699375229694964,-0.44715754180767264
3.0033076074972436,-0.7163864488516397
3.0366776920249907,-0.9762124872616417
3.070047776552738,-1.2026684995462118
3.103417861080485,-1.3618388342083008
3.136787945608232,-1.4253464873777035
3.1701580301359793,-1.3868396442460786
3.203528114663727,-1.2693684898409088
3.236898199191474,-1.1174805633565528
3.270268283719221,-0.9763259236763387
3.3036383682469683,-0.8682850816163594
3.3370084527747155,-0.7804201011101566
3.3703785373024626,-0.6710879911603704
3.4037486218302098,-0.4936576385894256
3.437118706357957,-0.22527928770650987
3.470488790885704,0.1149776093570068
3.503858875413451,0.4691527958199477
3.5372289599411983,0.7638555846603052
3.5705990444689455,0.9422888852773542
3.6039691289966926,0.9882157450043763
3.63733921352444,0.9295698430719614
3.670709298052187,0.8204552061542
3.704079382579934,0.7119507993070193
3.7374494671076812,0.6279537896682531
3.7708195516354284,0.5590013334365105
3.8041896361631755,0.476452614706084
3.8375597206909227,0.3575982200591999
3.87092980521867,0.20599218364137525
3.904299889746417,0.054241487513933505
3.937669974274164,-0.053012556295936195
3.9710400588019112,-0.08621327795302008
4.004410143329658,-0.05196894763238009
4.0377802278574055,0.005099596835211912
4.071150312385153,0.022245877573314136
4.1045203969129,-0.049568569529628875
4.137890481440647,-0.21853809817800038
4.171260565968394,-0.44387359924217207
4.204630650496141,-0.6510162796314887
4.238000735023888,-0.7627945872744135
4.2713708195516356,-0.7318270394332088
4.304740904079383,-0.5598717361347587
4.33811098860713,-0.29669241980000866
4.371481073134877,-0.020181794256773966
4.404851157662624,0.19336826819118993
4.438221242190371,0.2971990597790519
4.471591326718118,0.2902112444211468
4.504961411245866,0.21590016671743573
4.538331495773613,0.144585023514019
4.57170158030136,0.14501654983232742
4.605071664829107,0.2554191158282732
4.638441749356854,0.4650330708182489
4.671811833884601,0.7142998169458392
4.7051819184123485,0.9151758619580784
4.738552002940096,0.9847124148352556
4.771922087467843,0.8785613638084109
4.80529217199559,0.6099768552963347
4.838662256523337,0.24549474458532808
4.872032341051084,-0.12132059483605592
4.905402425578831,-0.4066731397129999
4.9387725101065785,-0.567691511204145
4.972142594634326,-0.6146005722473997
5.005512679162073,-0.5995795764244033
5.03888276368982,-0.588660656197496
5.072252848217567,-0.630233906400363
5.105622932745314,-0.7342876299786842
5.138993017273061,-0.8706165896030542
5.1723631018008085,-0.9850922877474337
5.205733186328556,-1.0251697989821962
5.239103270856303,-0.9625999199402769
5.27247335538405,-0.8037936431306729
5.305843439911797,-0.5846937047032282
5.339213524439544,-0.3540054886421301
5.372583608967291,-0.15307863884486603
5.4059536934950385,-0.001080513075846076
5.439323778022786,0.10914965774826825
5.472693862550533,0.20413973462670848
5.50606394707828,0.3157423063251301
5.539434031606027,0.4663458126319741
5.572804116133774,0.6592519041315642
5.606174200661521,0.8774356221406183
5.6395442851892685,1.0901601849217888
5.672914369717016,1.2636977339651223
5.706284454244763,1.371102069343966
5.73965453877251,1.3971845565406513
5.773024623300257,1.3379028290162167
5.806394707828004,1.1965256703922529
5.839764792355751,0.9802916126273705
5.873134876883499,0.700064500513472
5.906504961411246,0.3726559355737271
5.939875045938993,0.02306798145534704
5.97324513046674,-0.3164025315450108
6.006615214994487,-0.6113032109386727
6.039985299522234,-0.8327275272167681
6.073355384049981,-0.9642270216353529
6.106725468577729,-1.0050715586792998
6.140095553105476,-0.9690794870555576
6.173465637633223,-0.88030307477596
6.20683572216097,-0.7675560093803512
6.240205806688717,-0.6590483935594879
6.273575891216464,-0.5773470018132251
6.3069459757442115,-0.534679719993835
6.340316060271959,-0.5294369062398627
6.373686144799706,-0.5456343737659006
6.407056229327454,-0.5568742351002198
6.440426313855201,-0.5346141058009906
6.473796398382948,-0.4582480095253405
6.507166482910695,-0.3231439115027266
6.540536567438442,-0.14333434414564672
6.5739066519661895,0.05230440020277385
6.607276736493937,0.22908325754875028
6.640646821021684,0.3578008926360504
6.674016905549431,0.4248554876217666
6.707386990077178,0.4379479367765805
6.740757074604925,0.42490138531746485
6.774127159132672,0.42463575703757117
6.8074972436604195,0.4719187929503433
6.840867328188167,0.5806811211987878
6.874237412715914,0.7329197363222247
6.907607497243661,0.8797135994694427
6.940977581771408,0.9567813210127285
6.974347666299155,0.9103753059011568
7.007717750826902,0.7230920194139469
7.0410878353546495,0.4270435562341258
7.074457919882397,0.09603335891190456
7.107828004410144,-0.18211855992409123
7.141198088937891,-0.3416242103545383
7.174568173465638,-0.36627182183320867
7.207938257993385,-0.2947192725090805
7.241308342521132,-0.20042580376177
7.27467842704888,-0.15584091073380082
7.308048511576627,-0.1984710675948496
7.341418596104374,-0.3153631864928946
7.374788680632121,-0.45295354788277564
7.408158765159868,-0.5462878577183274
7.441528849687615,-0.5521685940511087
7.4748989342153624,-0.46961949207256
7.50826901874311,-0.33840164429328473
7.541639103270857,-0.21791322718846673
7.575009187798604,-0.15840174356160516
7.608379272326351,-0.1791795020640406
7.641749356854098,-0.263514148264567
7.675119441381845,-0.3703035475230858
7.7084895259095925,-0.45402751759244037
7.74185961043734,-0.4814573632428462
7.775229694965087,-0.4374501488302185
7.808599779492834,-0.3200586324680244
7.841969864020581,-0.1320195567142389
7.875339948548328,0.12285273779559491
7.908710033076075,0.4344954259692029
7.9420801176038225,0.7762811831466362
7.97545020213157,1.0983991209068027
8.008820286659317,1.3330565091733995
8.042190371187063,1.4131937545801523
8.075560455714811,1.2980992194239274
8.108930540242557,0.9940928591317962
8.142300624770305,0.5594004613648896
8.175670709298052,0.08904067275740506
8.2090407938258,-0.3154163142427401
8.242410878353546,-0.5793733011314897
8.275780962881294,-0.6784312428196896
8.30915104740904,-0.641979256960254
8.342521131936788,-0.5361900973351664
8.375891216464534,-0.43431419578807745
8.409261300992283,-0.3874939013430232
8.442631385520029,-0.40855334318147235
8.476001470047777,-0.47461445013277137
8.509371554575523,-0.5451621405617163
8.542741639103271,-0.5850066303579824
8.57611172363102,-0.5801214757849859
8.609481808158765,-0.5391587261458161
8.642851892686513,-0.48173407722625944
8.67622197721426,-0.42170966816623173
8.709592061742008,-0.355865568841852
8.742962146269754,-0.2646283486565197
8.776332230797502,-0.12428033116374645
8.809702315325248,0.07652972891615474
8.843072399852996,0.32553041206771854
8.876442484380743,0.5874044060641138
8.90981256890849,0.8162125139580357
8.943182653436237,0.9731556952993119
8.976552737963985,1.0402881765700493
9.009922822491731,1.0232447653883192
9.04329290701948,0.9425201044535839
9.076662991547225,0.8195333084256813
9.110033076074973,0.6664555356694599
9.14340316060272,0.4857552703992188
9.176773245130468,0.2785940123199446
9.210143329658214,0.0551540143862533
9.243513414185962,-0.16125487414869774
9.276883498713708,-0.3401407714294635
9.310253583241456,-0.45676020590592514
9.343623667769203,-0.5040755618193407
9.37699375229695,-0.49606691264948105
9.410363836824697,-0.45998741818958155
9.443733921352445,-0.42205079882853486
9.477104005880191,-0.3952149857302094
9.51047409040794,-0.3764838237078452
9.543844174935685,-0.35514307531579037
9.577214259463434,-0.32625274437346885
9.61058434399118,-0.30002909797763927
9.643954428518928,-0.29997095261489626
9.677324513046674,-0.34954581324377787
9.710694597574422,-0.45470873383150634
9.744064682102168,-0.5927991864434441
9.777434766629916,-0.7153398514644612
9.810804851157663,-0.7647525165587701
9.84417493568541,-0.6974754399638246
9.877545020213157,-0.5026235367315678
9.910915104740905,-0.20765442030055392
9.944285189268651,0.1312330629484146
9.9776552737964,0.44947444977641443
10.011025358324146,0.6965908857309628
10.044395442851894,0.8517333149191062
10.07776552737964,0.9265258941045766
10.111135611907388,0.9545262969184067
10.144505696435134,0.9718077649189798
10.177875780962882,0.9967790755204241
10.211245865490628,1.0181553736820452
10.244615950018376,0.9973687886960321
10.277986034546123,0.8860655087440484
10.31135611907387,0.652422753197219
10.344726203601617,0.30472946047898986
10.378096288129365,-0.10003444820814741
10.411466372657111,-0.4696567033605954
10.44483645718486,-0.7095453130014588
10.478206541712606,-0.7623535427230631
10.511576626240354,-0.6365247547177244
10.5449467107681,-0.40879052178539044
10.578316795295848,-0.19633360197402275
10.611686879823594,-0.10843376927793662
10.645056964351342,-0.19826591716245393
10.678427048879088,-0.4372922689551069
10.711797133406836,-0.7255788946869038
10.745167217934583,-0.9349987469628592
10.77853730246233,-0.9663577158036762
10.811907386990077,-0.7940462834134292
10.845277471517825,-0.4770386953834893
10.878647556045571,-0.13078317000227133
10.91201764057332,0.12683680078303083
10.945387725101066,0.22991378749644206
10.978757809628814,0.19365557597839014
11.01212789415656,0.10469485869238573
11.045497978684308,0.07730710103113426
11.078868063212054,0.19608570153387603
11.112238147739802,0.4717138847484951
11.145608232267548,0.8302865235557554
11.178978316795297,1.1412744127237493
11.212348401323043,1.271856485706041
11.24571848585079,1.1438177033980166
11.279088570378537,0.7684643192730625
11.312458654906285,0.24498614431862822
11.345828739434031,-0.27639382184305156
11.37919882396178,-0.6504635590893959
11.412568908489526,-0.7890525082063871
11.445938993017274,-0.688786850711868
11.47930907754502,-0.42546980439990995
11.512679162072768,-0.12001987080439341
11.546049246600514,0.10837230636799927
11.579419331128262,0.18298664501253248
11.612789415656009,0.09011371033070241
11.646159500183757,-0.12502323863154793
11.679529584711503,-0.38161141413596467
11.71289966923925,-0.594670977815983
11.746269753766997,-0.7029015647384674
11.779639838294745,-0.6849307525382006
11.813009922822491,-0.5610868832640469
11.84638000735024,-0.38227230237197
11.879750091877986,-0.210405795074659
11.913120176405734,-0.09644921221315964
11.94649026093348,-0.06257707947853593
11.979860345461228,-0.09435206676497226
12.013230429988974,-0.1462165139347685
12.046600514516722,-0.1591497736951047
12.079970599044469,-0.08428089944149124
12.113340683572217,0.09698685045161727
12.146710768099963,0.36499846751879117
12.180080852627711,0.669527103919308
12.213450937155457,0.9492839558879047
12.246821021683205,1.1536988296795565
12.280191106210951,1.2566082300852424
12.3135611907387,1.2563555786133151
12.346931275266446,1.1647501478062425
12.380301359794194,0.9936808132807092
12.41367144432194,0.7489685825996988
12.447041528849688,0.4356069270340102
12.480411613377434,0.07019839672293175
12.513781697905182,-0.30946798187121455
12.547151782432929,-0.6470966356180637
12.580521866960677,-0.8850339687847073
12.613891951488423,-0.988591836577359
12.647262036016171,-0.9643388957980602
12.680632120543917,-0.8607901690938404
12.714002205071665,-0.7486393429017537
12.747372289599411,-0.6887598330521404
12.78074237412716,-0.7034164938254263
12.814112458654908,-0.7653086137001943
12.847482543182654,-0.8104779896082346
12.880852627710402,-0.7693076857884338
12.914222712238148,-0.6010182172401812
12.947592796765896,-0.315620603168298
12.980962881293642,0.0265127676851658
13.01433296582139,0.3370211714634861
13.047703050349137,0.5341273300924005
13.081073134876885,0.5751247474879169
13.114443219404631,0.4738840117321159
13.147813303932379,0.29657185506253153
13.181183388460125,0.13705131742723328
13.214553472987873,0.08105019381502729
13.24792355751562,0.17262633099970204
13.281293642043368,0.39604506031316894
13.314663726571114,0.6806580376286525
13.348033811098862,0.9273605156541903
13.381403895626608,1.0461325079102688
13.414773980154356,0.9891658005534862
13.448144064682102,0.7659349613187579
13.48151414920985,0.4348373906653721
13.514884233737597,0.07676118668055605
13.548254318265345,-0.23630806043194216
13.581624402793091,-0.4635971935696231
13.614994487320839,-0.600660673402781
13.648364571848585,-0.668388072797939
13.681734656376333,-0.6944416442176172
13.71510474090408,-0.6977656158068158
13.748474825431828,-0.6831594398411787
13.781844909959574,-0.6461864254523842
13.815214994487322,-0.5829278659576623
13.848585079015068,-0.4973372525066294
13.881955163542816,-0.4016388718030957
13.915325248070562,-0.3101794520078463
13.94869533259831,-0.23115132239986808
13.982065417126057,-0.1614250410165451
14.015435501653805,-0.08734409960401301
14.048805586181551,0.009335070674291056
14.082175670709299,0.14372603888784105
14.115545755237045,0.3218038443290928
14.148915839764793,0.5377165007775117
14.18228592429254,0.773833687729035
14.215656008820288,1.0020787073564363
14.249026093348034,1.1860185909789882
14.282396177875782,1.2848927175359102
14.315766262403528,1.2614161204268257
14.349136346931276,1.0935382892686751
14.382506431459023,0.786858742628378
14.41587651598677,0.3813974200513867
14.449246600514517,-0.05337117367431054
14.482616685042265,-0.43678046444723534
14.515986769570011,-0.7030446389854504
14.54935685409776,-0.8241302209532243
14.582726938625505,-0.8182313978852311
14.616097023153253,-0.7387719452580446
14.649467107681,-0.6484236712709707
14.682837192208748,-0.5904862206014285
14.716207276736494,-0.5716606459649287
14.749577361264242,-0.5646351793265995
14.782947445791988,-0.5288246112559105
14.816317530319736,-0.438284663328403
14.849687614847483,-0.3020478604560051
14.88305769937523,-0.16579831962754984
14.916427783902977,-0.0930575259932055
14.949797868430725,-0.13429672900196224
14.983167952958471,-0.29862895343691404
15.01653803748622,-0.5420071554311048
15.049908122013965,-0.7785766370803924
15.083278206541713,-0.9114219447333747
15.11664829106946,-0.8701242779873134
15.150018375597208,-0.639178741025794
15.183388460124954,-0.26486809043661086
15.216758544652702,0.1628076857058098
15.250128629180448,0.5458412718378837
15.283498713708196,0.8164306345276363
15.316868798235943,0.9611359403745648
15.35023888276369,1.0203116491105844
15.383608967291437,1.0630145854928703
15.416979051819185,1.1487270192519823
15.450349136346931,1.2935821098818188
15.48371922087468,1.4572452674437255
15.517089305402425,1.5575670445935346
15.550459389930174,1.5074196283926637
15.58382947445792,1.2574811382094586
15.617199558985668,0.825201335393661
15.650569643513414,0.29574486770537994
15.683939728041162,-0.20688772176935205
15.717309812568908,-0.5667544350973878
15.750679897096656,-0.7206909483941533
15.784049981624403,-0.681530883635904
15.81742006615215,-0.5301675467081607
15.850790150679897,-0.3805752302074008
15.884160235207645,-0.3333725157757941
15.917530319735391,-0.43768109868079086
15.95090040426314,-0.676493045440248
15.984270488790886,-0.9798983358660301
16.017640573318634,-1.2582763705915585
16.05101065784638,-1.4393294589568595
16.084380742374126,-1.4922736577901954
16.117750826901876,-1.4297616390937027
16.151120911429622,-1.2895717062677294
16.18449099595737,-1.1079581675654702
16.217861080485115,-0.8997944239885891
16.251231165012864,-0.6557406699097511
16.28460124954061,-0.3565317297384089
16.317971334068357,0.005187505115181465
16.351341418596103,0.40896971948825656
16.384711503123853,0.8063639756600317
16.4180815876516,1.1371375457128114
16.451451672179346,1.353513591743661
16.484821756707092,1.4397140219864442
16.51819184123484,1.4167416580686727
16.551561925762588,1.3302218793951186
16.584932010290334,1.2278383465316969
16.61830209481808,1.1378355672529104
16.65167217934583,1.0588949900884599
16.685042263873576,0.9654186641707949
16.718412348401323,0.8243922839399247
16.75178243292907,0.6145937761892073
16.78515251745682,0.3385169799459062
16.818522601984565,0.02190226834620928
16.85189268651231,-0.2974006526196259
16.885262771040058,-0.5841474390315903
16.918632855567807,-0.8159132012728526
16.952002940095554,-0.9844451171813741
16.9853730246233,-1.0897033245838208
17.018743109151046,-1.1324493228920967
17.052113193678796,-1.111323931551351
17.085483278206542,-1.0264435061800747
17.11885336273429,-0.8864676221884853
17.15222344726204,-0.7132915848696337
17.185593531789785,-0.5397183089616455
17.21896361631753,-0.39968200121123754
17.252333700845277,-0.31506163671590326
17.285703785373027,-0.28526085037976906
17.319073869900773,-0.2846614982661558
17.35244395442852,-0.2697125241154828
17.385814038956266,-0.19357456073227505
