Time (s),Filtered Signal
0.0,-0.06940591269344301
0.033370165745856356,0.006245420322119454
0.06674033149171271,0.04863631576220793
0.10011049723756907,0.03582665549522373
0.13348066298342542,-0.03452735014571727
0.16685082872928178,-0.1453832752765644
0.20022099447513814,-0.2674046375112913
0.2335911602209945,-0.36950932210911935
0.26696132596685085,-0.428505863043882
0.30033149171270723,-0.4345099195530201
0.33370165745856356,-0.391096670259158
0.3670718232044199,-0.3113717142962343
0.4004419889502763,-0.21235659017465536
0.43381215469613266,-0.11000804756132831
0.467182320441989,-0.01622242182320769
0.5005524861878453,0.06198940944939898
0.5339226519337017,0.12178921056636438
0.5672928176795581,0.16317798787470308
0.6006629834254145,0.18781162668302423
0.6340331491712707,0.1983536924472535
0.6674033149171271,0.19831726164640812
0.7007734806629835,0.1920127366060334
0.7341436464088398,0.1841294359324028
0.7675138121546962,0.17871286839715111
0.8008839779005525,0.17777800391517132
0.8342541436464089,0.18026382759977094
0.8676243093922653,0.1821584825118247
0.9009944751381216,0.1782110015250322
0.934364640883978,0.16480059169885702
0.9677348066298344,0.14267905484142
1.0011049723756906,0.1179825647268076
1.0344751381215471,0.10047556484668772
1.0678453038674034,0.09931880482864265
1.1012154696132597,0.118111887691237
1.1345856353591162,0.15169560229880608
1.1679558011049724,0.1866435730005577
1.201325966850829,0.20566131661391046
1.2346961325966852,0.19410360565987575
1.2680662983425415,0.14565012875528124
1.301436464088398,0.06456310842250992
1.3348066298342542,-0.03628857508586791
1.3681767955801105,-0.14032440372391405
1.401546961325967,-0.2324837521278936
1.4349171270718233,-0.30248326443896345
1.4682872928176796,-0.3453063556807037
1.501657458563536,-0.35984378150998775
1.5350276243093923,-0.34742086545404866
1.5683977900552488,-0.3114480338552738
1.601767955801105,-0.258106501571121
1.6351381215469614,-0.19684668834498528
1.6685082872928179,-0.13935946238970834
1.7018784530386741,-0.09666541145703578
1.7352486187845306,-0.07537503457241615
1.768618784530387,-0.07503680767767565
1.8019889502762432,-0.08819580378800078
1.8353591160220997,-0.10345399989306926
1.868729281767956,-0.11022394364199015
1.9020994475138122,-0.10293745215396174
1.9354696132596687,-0.08274847214642343
1.968839779005525,-0.056083638322463894
2.0022099447513813,-0.030992010898794425
2.0355801104972375,-0.013253601945812647
2.0689502762430942,-0.00413342876673149
2.1023204419889505,-0.0006468080152807527
2.135690607734807,0.00214439078365165
2.169060773480663,0.008232385032952538
2.2024309392265193,0.018708898109080743
2.235801104972376,0.03164267112053372
2.2691712707182323,0.04366351762798629
2.3025414364640886,0.05229773929796689
2.335911602209945,0.057816798872855284
2.369281767955801,0.0636764613773984
2.402651933701658,0.07531794460836742
2.436022099447514,0.0978421219812205
2.4693922651933704,0.13356221696371778
2.5027624309392267,0.18052722723453912
2.536132596685083,0.2327634349433306
2.5695027624309392,0.28230372970125917
2.602872928176796,0.3222785991293642
2.636243093922652,0.3497409957412194
2.6696132596685085,0.36681821560673467
2.7029834254143648,0.3794030230652112
2.736353591160221,0.3937585524270405
2.7697237569060777,0.4125987743682634
2.803093922651934,0.43274823668034657
2.8364640883977903,0.44593506956022194
2.8698342541436466,0.4427248034774414
2.903204419889503,0.41774923249729723
2.936574585635359,0.3732388933171021
2.969944751381216,0.31826672026238517
3.003314917127072,0.263187954011293
3.0366850828729284,0.21168162848179728
3.0700552486187846,0.15499053561285622
3.103425414364641,0.07286451702426044
3.1367955801104976,-0.057244294937505366
3.170165745856354,-0.24598532124627218
3.20353591160221,-0.4803637009338177
3.2369060773480665,-0.722722685629131
3.2702762430939227,-0.9246721221597567
3.3036464088397794,-1.0522601428358047
3.3370165745856357,-1.1105775321321956
3.370386740331492,-1.1525464178082094
3.4037569060773483,-1.2613128176080826
3.4371270718232045,-1.5079709361083673
3.4704972375690613,-1.901130941797494
3.5038674033149175,-2.354088960989626
3.537237569060774,-2.6923054199616114
3.57060773480663,-2.707430101104471
3.6039779005524863,-2.240768815320519
3.6373480662983426,-1.2607820778983974
3.6707182320441993,0.10293708798203152
3.7040883977900556,1.589351651772733
3.737458563535912,2.8901221069510648
3.770828729281768,3.752903164164179
3.8041988950276244,4.059816502938491
3.837569060773481,3.8502509093229604
3.8709392265193374,3.2842220574785297
3.9043093922651937,2.5686828593615596
3.93767955801105,1.8816490259275926
3.9710497237569062,1.3238757822099296
4.0044198895027625,0.9106213569538366
4.037790055248619,0.5970366102683495
4.071160220994475,0.31876607749427216
4.104530386740332,0.027911094892847352
4.1379005524861885,-0.28849486752861114
4.171270718232044,-0.6100466821168082
4.204640883977901,-0.8985581940116473
4.238011049723757,-1.1177622865545842
4.271381215469614,-1.2481585618164088
4.30475138121547,-1.2921866735456058
4.338121546961326,-1.2698279131288714
4.371491712707183,-1.2084266168920539
4.404861878453039,-1.1319290921296312
4.438232044198895,-1.0538765665999241
4.471602209944752,-0.9761639515495156
4.504972375690608,-0.8929279117525981
4.538342541436465,-0.7969821312880438
4.5717127071823205,-0.6855765639465506
4.605082872928177,-0.5629804612950174
4.638453038674034,-0.43904856541575865
4.67182320441989,-0.3247941701844189
4.7051933701657465,-0.2272910063552729
4.738563535911602,-0.14643458144019675
4.771933701657459,-0.07514982011123972
4.805303867403316,-0.0029746798522568715
4.8386740331491715,0.07865671808933536
4.872044198895028,0.1719134591219224
4.905414364640884,0.2709580237862094
4.938784530386741,0.3639695014676476
4.972154696132597,0.437853368623431
5.005524861878453,0.48349491705191394
5.03889502762431,0.4992501330423934
5.072265193370166,0.49124666105788967
5.105635359116023,0.47051199878783045
5.1390055248618784,0.44828335097349
5.172375690607735,0.4315391236708732
5.205745856353592,0.4206015985988896
5.239116022099448,0.4097216214138843
5.272486187845304,0.39027391952418083
5.30585635359116,0.35509871506127627
5.339226519337017,0.3020774193456442
5.372596685082874,0.23541133496895397
5.4059668508287295,0.16410998113010986
5.439337016574586,0.09843571435637753
5.472707182320442,0.04595067455714252
5.506077348066299,0.008963803410701288
5.5394475138121555,-0.015511034079706994
5.572817679558011,-0.03340314093752256
5.606187845303868,-0.050136440267101706
5.639558011049724,-0.06789870710369811
5.672928176795581,-0.08500086806920892
5.706298342541437,-0.09752514351877456
5.739668508287293,-0.10221169719475777
5.77303867403315,-0.09891229147742218
5.806408839779006,-0.09127066642669628
5.839779005524862,-0.08533159308571954
5.873149171270718,-0.08690129442787319
5.906519337016575,-0.09906191833898598
5.939889502762432,-0.1210324054975655
5.9732596685082875,-0.14877883821678758
6.006629834254144,-0.17689258866699362
6.04,-0.20072505646315156
6.073370165745857,-0.21778985985619442
6.1067403314917135,-0.2279175506059285
6.140110497237569,-0.2322883129779861
6.173480662983426,-0.23196835830390086
6.206850828729282,-0.22674230841724322
6.240220994475139,-0.21483822568535624
6.273591160220995,-0.1936964170039799
6.306961325966851,-0.16143043492717118
6.340331491712708,-0.11827815032147601
6.373701657458564,-0.06730317589216306
6.40707182320442,-0.013924076272993203
6.440441988950277,0.035603847224843506
6.473812154696133,0.07611379113373697
6.50718232044199,0.10500885746613126
6.5405524861878455,0.12266578263639166
6.573922651933702,0.13165775129025376
6.607292817679559,0.13525261961798815
6.640662983425415,0.13594653712419838
6.674033149171271,0.1347088194400795
6.707403314917127,0.1312098691674709
6.740773480662984,0.12479193022657718
6.774143646408841,0.11557324413741978
6.8075138121546965,0.10502830507461287
6.840883977900553,0.09568289766322377
6.874254143646409,0.09005043225548745
6.907624309392266,0.08935957382324358
6.9409944751381225,0.09275586186905281
6.974364640883978,0.0974308829861798
7.007734806629835,0.09966683271495268
7.041104972375691,0.09633049810986055
7.074475138121548,0.08613758392408542
7.107845303867403,0.0701240402371608
7.14121546961326,0.0511265355757139
7.174585635359117,0.03250943329284107
7.207955801104973,0.016696570248526946
7.241325966850829,0.004152592775946174
7.274696132596685,-0.006720166674259616
7.308066298342542,-0.018685986454030395
7.341436464088399,-0.034142443566253775
7.3748066298342545,-0.05363105746126078
7.408176795580111,-0.07511011686177675
7.441546961325967,-0.09440972578676049
7.474917127071824,-0.10676131986567455
7.5082872928176805,-0.10877238787070359
7.541657458563536,-0.0999641513610853
7.575027624309393,-0.08315485092461918
7.608397790055249,-0.06349320493081821
7.641767955801106,-0.04656896401627051
7.675138121546962,-0.036432980318405125
7.708508287292818,-0.03434989408004018
7.741878453038675,-0.03871299097416888
7.775248618784531,-0.046001117952443125
7.808618784530387,-0.052235857405873096
7.841988950276244,-0.054288321107793115
7.8753591160221,-0.05059268881915764
7.908729281767957,-0.041191071512679214
7.9420994475138125,-0.02734307707248979
7.975469613259669,-0.011028774375197248
8.008839779005525,0.005450819631959149
8.042209944751383,0.019781965253489832
8.075580110497238,0.029983083798825225
8.108950276243094,0.034857290319395925
8.14232044198895,0.03444231928598012
8.175690607734808,0.030195908620989108
8.209060773480664,0.024673731506048763
8.24243093922652,0.020675250220009787
8.275801104972377,0.020141715092861247
8.309171270718233,0.02330532907035168
8.342541436464089,0.0285571974871639
8.375911602209946,0.033198292505025866
8.409281767955802,0.034791326758139125
8.442651933701658,0.032471556636519266
8.476022099447514,0.02751523172888407
8.509392265193371,0.02278161502644259
8.542762430939227,0.021212859597079817
8.576132596685083,0.02411194549037418
8.60950276243094,0.03012128854123209
8.642872928176796,0.03554372259343718
8.676243093922652,0.03598609224631847
8.709613259668508,0.028587853723698566
8.742983425414366,0.013709935782782437
8.776353591160222,-0.004856197731542574
8.809723756906077,-0.02139436666527007
8.843093922651935,-0.030834847008688573
8.87646408839779,-0.031141089983142096
8.909834254143647,-0.02428537563367322
8.943204419889504,-0.015253400640035246
8.97657458563536,-0.009504595537337677
9.009944751381216,-0.010121905550971902
9.043314917127072,-0.016095751436851935
9.07668508287293,-0.022678535720323727
9.110055248618785,-0.023744611793558062
9.143425414364641,-0.015067443202860653
9.176795580110499,0.003113190891568518
9.210165745856354,0.025610538838446686
9.24353591160221,0.044298582554189926
9.276906077348068,0.05175815751683316
9.310276243093924,0.044820542264189814
9.34364640883978,0.02623340018399772
9.377016574585635,0.003557099914562418
9.410386740331493,-0.014235968372481516
9.443756906077349,-0.020842131643616153
9.477127071823205,-0.015430540500776373
9.510497237569062,-0.0028421720385941114
9.543867403314918,0.008872003790527718
9.577237569060774,0.012345127589888077
9.610607734806631,0.004325565607217212
9.643977900552487,-0.0129781449238733
9.677348066298343,-0.033197664541780234
9.710718232044199,-0.048999988443732434
9.744088397790057,-0.05553795950023909
9.777458563535912,-0.05248354378584419
9.810828729281768,-0.04376888046776021
9.844198895027626,-0.035333977309672006
9.877569060773482,-0.03211181792907148
9.910939226519337,-0.035729547654374444
9.944309392265193,-0.04391788152839164
9.97767955801105,-0.05172339270441318
10.011049723756907,-0.05379360533535601
10.044419889502763,-0.04662994905653092
10.07779005524862,-0.029879405653276236
10.111160220994476,-0.006286466309742944
10.144530386740332,0.01946224198794673
10.17790055248619,0.042377679297474984
10.211270718232045,0.05862398313354288
10.244640883977901,0.06636240796256143
10.278011049723757,0.06589870115003835
10.311381215469615,0.059298851641398476
10.34475138121547,0.04970719559044162
10.378121546961326,0.04054230165317656
10.411491712707184,0.03468041511609399
10.44486187845304,0.03373876018686936
10.478232044198895,0.037620541207455054
10.511602209944753,0.044500747668375876
10.544972375690609,0.051353096465497926
10.578342541436465,0.05494273779132591
10.61171270718232,0.05300094367130317
10.645082872928178,0.045156792313441614
10.678453038674034,0.03321766558395813
10.71182320441989,0.020598891844557037
10.745193370165747,0.011045374876538
10.778563535911603,0.007120303966952028
10.811933701657459,0.00908767855047169
10.845303867403315,0.014685088001772083
10.878674033149172,0.019909653036690685
10.912044198895028,0.02049468879432763
10.945414364640884,0.013454668385766436
10.978784530386742,-0.0019308728265866484
11.012154696132598,-0.02403892434576356
11.045524861878453,-0.04964916633248915
11.078895027624311,-0.0750881569410906
11.112265193370167,-0.09724408405143098
11.145635359116023,-0.11408860458981432
11.179005524861878,-0.12464982300820632
11.212375690607736,-0.12865486595539144
11.245745856353592,-0.12617011410376744
11.279116022099448,-0.1174805626168717
11.312486187845305,-0.10323627463853664
11.345856353591161,-0.08468527508081986
11.379226519337017,-0.06373717804995953
11.412596685082875,-0.04270912558844995
11.44596685082873,-0.023820462696269026
11.479337016574586,-0.008665270634515455
11.512707182320442,0.0021248899733589256
11.5460773480663,0.0089925453241001
11.579447513812156,0.013472387936842656
11.612817679558011,0.01822620297574963
11.646187845303869,0.02697877112552071
11.679558011049725,0.04400821471636377
11.71292817679558,0.07287834363054263
11.746298342541436,0.11450774021730724
11.779668508287294,0.16527163842576537
11.81303867403315,0.21624124331433436
11.846408839779006,0.25451893926254465
11.879779005524863,0.26683165157930555
11.91314917127072,0.24438477558066954
11.946519337016575,0.1870367421056004
11.979889502762433,0.1047280465204812
12.013259668508288,0.015047137604732691
12.046629834254144,-0.06248066291680123
12.08,-0.11315858161062717
12.113370165745858,-0.13204949906498215
12.146740331491714,-0.12492620630246344
12.18011049723757,-0.10491356667245566
12.213480662983427,-0.08646118633517007
12.246850828729283,-0.07940506556531687
12.280220994475139,-0.08564575298135028
12.313591160220996,-0.09959967044539539
12.346961325966852,-0.11181319012512618
12.380331491712708,-0.1138129721982847
12.413701657458564,-0.10194030925589444
12.447071823204421,-0.07861221484963009
12.480441988950277,-0.05074697321881473
12.513812154696133,-0.026357401194865068
12.54718232044199,-0.011008170641101229
12.580552486187846,-0.005716499596299054
12.613922651933702,-0.007081201076861973
12.64729281767956,-0.009363307774682077
12.680662983425416,-0.007401005599487462
12.714033149171271,0.001026394677011577
12.747403314917127,0.014397455928868734
12.780773480662985,0.02843246244446186
12.81414364640884,0.038269013104561794
12.847513812154697,0.040761009835116144
12.880883977900554,0.035871088769839646
12.91425414364641,0.026606660541588875
12.947624309392266,0.017618526205639685
12.980994475138122,0.013139813957772448
13.01436464088398,0.015178178733987167
13.047734806629835,0.022724603227039845
13.081104972375691,0.032291589367975805
13.114475138121549,0.03952275199751567
13.147845303867404,0.04114765632043905
13.18121546961326,0.03639295545711541
13.214585635359118,0.027202716590779285
13.247955801104974,0.01718544936224795
13.28132596685083,0.009829668562982674
13.314696132596685,0.006889266766935637
13.348066298342543,0.007734699644816977
13.381436464088399,0.009948427483551306
13.414806629834255,0.010793019723281557
13.448176795580112,0.008743761534786138
13.481546961325968,0.0042760644656150825
13.514917127071824,-0.00048053095908985436
13.548287292817681,-0.0029935380169166747
13.581657458563537,-0.0017684776964160156
13.615027624309393,0.002834901192564996
13.648397790055249,0.008875826469067937
13.681767955801106,0.01403953946697985
13.715138121546962,0.017067904286772132
13.748508287292818,0.018532679300561627
13.781878453038676,0.020405464067584395
13.815248618784532,0.024562899348320084
13.848618784530387,0.031033908626728206
13.881988950276245,0.037057408408198454
13.9153591160221,0.037677264496899156
13.948729281767957,0.027793090528854918
13.982099447513813,0.004745162398215132
14.01546961325967,-0.029863649708532603
14.048839779005526,-0.07007309221899684
14.082209944751382,-0.10730683200450872
14.11558011049724,-0.13317914675168704
14.148950276243095,-0.14216818946834595
14.182320441988951,-0.1331425831652763
14.215690607734807,-0.10933111445489609
14.249060773480664,-0.07697891170192189
14.28243093922652,-0.04334043596797044
14.315801104972376,-0.014722641100519754
14.349171270718234,0.004903570493619753
14.38254143646409,0.014494984651945729
14.415911602209945,0.0157511063402766
14.449281767955803,0.012327094757669538
14.482651933701659,0.008690941807472735
14.516022099447515,0.008892965336985782
14.54939226519337,0.015506067116350242
14.582762430939228,0.02895676243104279
14.616132596685084,0.04739827454374439
14.64950276243094,0.06717822511320017
14.682872928176797,0.08382556774161451
14.716243093922653,0.09333387543490354
14.749613259668509,0.09338725497388281
14.782983425414367,0.08412858200634765
14.816353591160222,0.06817165855763563
14.849723756906078,0.04980994530075419
14.883093922651934,0.033679685734606585
14.916464088397792,0.023345471798311777
14.949834254143648,0.020285415779001836
14.983204419889503,0.023570940224317022
15.016574585635361,0.030273230366064927
15.049944751381217,0.03640905911388222
15.083314917127073,0.0381242423132528
15.116685082872928,0.03279289307719274
15.150055248618786,0.019749556522213652
15.183425414364642,0.00045487622690643163
15.216795580110498,-0.021966306144842292
15.250165745856355,-0.04368507539162814
15.283535911602211,-0.061308302343514066
15.316906077348067,-0.07278987123294138
15.350276243093925,-0.07779206406760962
15.38364640883978,-0.07742143394067173
15.417016574585636,-0.07354001009579787
15.450386740331492,-0.068003381411379
15.48375690607735,-0.062128573548496824
15.517127071823205,-0.056507198818078655
15.550497237569061,-0.05109405537515676
15.583867403314919,-0.045428285532861934
15.617237569060775,-0.03888641958596025
15.65060773480663,-0.030937829763574586
15.683977900552488,-0.021387058186597526
15.717348066298344,-0.010537720998232206
15.7507182320442,0.0008266709303089599
15.784088397790056,0.011700227592405093
15.817458563535913,0.021267992382409426
15.85082872928177,0.029258855104363452
15.884198895027625,0.0360061103938192
15.917569060773483,0.042125627362182144
15.950939226519338,0.0479475551445496
15.984309392265194,0.0530077106071594
16.01767955801105,0.05590883981516032
16.051049723756908,0.054691788328300676
16.084419889502765,0.04760811851513339
16.11779005524862,0.033991913249268806
16.151160220994477,0.014876327232522442
16.18453038674033,-0.006908450326942024
16.21790055248619,-0.027243354110409738
16.251270718232046,-0.04172750590417046
16.2846408839779,-0.04690828063592717
16.318011049723758,-0.04135247412996224
16.351381215469615,-0.026179297698113245
16.38475138121547,-0.004824104518636302
16.418121546961327,0.01792595503442069
16.451491712707185,0.0372925181952451
16.48486187845304,0.04976803352239889
16.518232044198896,0.05384156403936993
16.551602209944754,0.04999995131269474
16.584972375690608,0.04012593439276688
16.618342541436466,0.026634838769294292
16.651712707182323,0.01173418571382379
16.685082872928177,-0.002937285297245738
16.718453038674035,-0.01625452967860216
16.751823204419892,-0.027304177605670735
16.785193370165747,-0.03510629668112651
16.818563535911604,-0.038587945040797704
16.851933701657458,-0.03687656256094845
16.885303867403316,-0.029786481601369416
16.918674033149173,-0.018239815074327738
16.952044198895027,-0.0043585008504617405
16.985414364640885,0.00890905435605787
17.018784530386743,0.018560305870463024
17.052154696132597,0.022451487822256814
