Time (s),Filtered Signal
0.0,0.009401527365483026
0.033370535714285714,0.15309137527671327
0.06674107142857143,0.23022461741430103
0.10011160714285713,0.19564176663758648
0.13348214285714285,0.03995042238725241
0.16685267857142858,-0.20733324496598302
0.20022321428571427,-0.48732505462400877
0.23359375,-0.7309741768277676
0.2669642857142857,-0.8812678793065917
0.30033482142857143,-0.9103924734046892
0.33370535714285715,-0.8256113657108527
0.36707589285714287,-0.6622053764142581
0.40044642857142854,-0.46728658804035506
0.43381696428571426,-0.2820448671663114
0.4671875,-0.1300762861959185
0.5005580357142857,-0.015802179067686096
0.5339285714285714,0.06838610345200251
0.5672991071428571,0.1317529642903155
0.6006696428571429,0.17782864425865003
0.6340401785714286,0.2034565966570667
0.6674107142857143,0.2034647166721128
0.70078125,0.17701788479383687
0.7341517857142857,0.13134891296627013
0.7675223214285715,0.08073343036600392
0.8008928571428571,0.04158653766249647
0.8342633928571428,0.026543005808231764
0.8676339285714285,0.040435480314847574
0.9010044642857142,0.07961464227837793
0.934375,0.13424059278632028
0.9677455357142857,0.19205991762139202
1.0011160714285714,0.24207855345931661
1.0344866071428571,0.27707819171144316
1.0678571428571428,0.2945628431319742
1.1012276785714286,0.29619189070499574
1.1345982142857143,0.2860892938609561
1.16796875,0.2686877589370598
1.2013392857142857,0.24689565598545546
1.2347098214285714,0.22122695208698348
1.2680803571428572,0.19011913822023274
1.3014508928571429,0.15118281557122162
1.3348214285714286,0.10281217348943064
1.3681919642857143,0.04552929140256431
1.4015625,-0.0174180225833024
1.4349330357142858,-0.08042178914075523
1.4683035714285715,-0.13673717981507605
1.5016741071428572,-0.18015293747589856
1.535044642857143,-0.20654331117311212
1.5684151785714286,-0.21483521481227413
1.6017857142857141,-0.20722120654937054
1.6351562499999999,-0.1887244051346863
1.6685267857142856,-0.166278396485916
1.7018973214285713,-0.14735127679686397
1.735267857142857,-0.13806802367963505
1.7686383928571427,-0.14100150841471867
1.8020089285714285,-0.15326865439816972
1.8353794642857142,-0.16595248419478878
1.86875,-0.16579011940121988
1.9021205357142856,-0.13936476097911316
1.9354910714285714,-0.07889503210563979
1.968861607142857,0.01241996439584064
2.002232142857143,0.11807818687698764
2.0356026785714287,0.21097841055560618
2.0689732142857142,0.26135137998809616
2.10234375,0.24764792046509862
2.1357142857142857,0.16613791197288535
2.169084821428571,0.034721859525261835
2.202455357142857,-0.11154327749055523
2.2358258928571426,-0.23211159258517264
2.2691964285714286,-0.29522863204453376
2.302566964285714,-0.288752191174572
2.3359375,-0.22292742508420726
2.3693080357142855,-0.1243550764535362
2.4026785714285714,-0.024534242556428634
2.436049107142857,0.05142096148405129
2.469419642857143,0.09110586317866229
2.5027901785714284,0.09458409555440485
2.5361607142857143,0.06955443699100054
2.56953125,0.02585826533510369
2.6029017857142858,-0.027323028461540114
2.6362723214285713,-0.08074938325154665
2.669642857142857,-0.12282878306474782
2.7030133928571427,-0.1389952196212874
2.7363839285714286,-0.11499846001717756
2.769754464285714,-0.0435819709522691
2.803125,0.06884938388155468
2.8364955357142856,0.20008267884580827
2.8698660714285715,0.31732483994536115
2.903236607142857,0.38882668895115563
2.936607142857143,0.3969861431124918
2.9699776785714285,0.34640523118095473
3.0033482142857144,0.2623692452825756
3.03671875,0.17995500416691873
3.070089285714286,0.12884210207385904
3.1034598214285714,0.12109984326786298
3.1368303571428573,0.14753850214840114
3.170200892857143,0.1837344509682914
3.2035714285714283,0.20215809994747622
3.2369419642857142,0.18437619067371566
3.2703124999999997,0.1279835459967701
3.3036830357142857,0.045944022782816306
3.337053571428571,-0.04036514704525108
3.370424107142857,-0.11058899031127345
3.4037946428571426,-0.15298354632985459
3.4371651785714286,-0.1672774314300768
3.470535714285714,-0.16246489618873847
3.50390625,-0.15156878829645704
3.5372767857142855,-0.14653083838773653
3.5706473214285714,-0.15576759700539441
3.604017857142857,-0.18494846059661138
3.637388392857143,-0.2392984560124715
3.6707589285714284,-0.32450860000848675
3.7041294642857143,-0.4439905704491202
3.7375,-0.5925933246413483
3.7708705357142858,-0.7498307497207771
3.8042410714285713,-0.877456318196315
3.837611607142857,-0.9254928847532904
3.8709821428571427,-0.8473368007384308
3.9043526785714286,-0.6195694445905368
3.937723214285714,-0.2580953358350017
3.97109375,0.1782271163345319
4.004464285714286,0.6010176177888532
4.0378348214285715,0.919793066761262
4.0712053571428575,1.0729955769029635
4.1045758928571425,1.0493842762189747
4.1379464285714285,0.8901397266591772
4.171316964285714,0.670593659605107
4.2046875,0.4697373297726261
4.238058035714285,0.3409116731178133
4.271428571428571,0.2958647183329139
4.304799107142857,0.30758518136969143
4.338169642857142,0.32858637500198995
4.371540178571428,0.3148976377033388
4.404910714285714,0.24470147787807947
4.43828125,0.1243988582286248
4.471651785714285,-0.018507999353691677
4.505022321428571,-0.1503843687464348
4.538392857142857,-0.24634940154460316
4.571763392857143,-0.298595022805323
4.605133928571428,-0.3158150855221428
4.638504464285714,-0.31585624456620426
4.671875,-0.31624397203455584
4.705245535714286,-0.32706129160458636
4.738616071428571,-0.3484747586321751
4.771986607142857,-0.3725927160500467
4.805357142857143,-0.38770896899203916
4.838727678571429,-0.3828044443666726
4.872098214285714,-0.3509601509312783
4.90546875,-0.29121471884452294
4.938839285714286,-0.20884291905010544
4.972209821428572,-0.11410816676041415
5.005580357142857,-0.01965855681070188
5.038950892857143,0.06286734835698368
5.072321428571429,0.1259755781359448
5.105691964285715,0.16801848356844928
5.1390625,0.1927870470807644
5.172433035714286,0.20724721082009198
5.2058035714285715,0.21850047611657733
5.2391741071428575,0.23128223731532002
5.2725446428571425,0.24684866234790126
5.3059151785714285,0.2632884124332617
5.339285714285714,0.27666315260322927
5.3726562499999995,0.28227810998543007
5.406026785714285,0.2757501389094287
5.439397321428571,0.25398742248080625
5.472767857142857,0.21630126459321897
5.506138392857142,0.1654823394304541
5.539508928571428,0.10804638321939626
5.572879464285714,0.05256453999826035
5.60625,0.005605256437058065
5.639620535714285,-0.03360163891535838
5.672991071428571,-0.07685945356859043
5.706361607142857,-0.14547055869424244
5.739732142857143,-0.2615194706807485
5.773102678571428,-0.43387216418666574
5.806473214285714,-0.6450723534847581
5.83984375,-0.8472211416653033
5.873214285714286,-0.9723607310460035
5.906584821428571,-0.9561762803580207
5.939955357142857,-0.7661409991732
5.973325892857143,-0.42102935882391057
6.006696428571429,0.008910794822503336
6.040066964285714,0.42339597149840147
6.0734375,0.7270454790516871
6.106808035714286,0.8629180007493321
6.140178571428572,0.8302182467635221
6.173549107142857,0.6792147666337954
6.206919642857143,0.48691226037026497
6.240290178571429,0.32524149987513923
6.273660714285715,0.23568033331822283
6.30703125,0.21984825282533485
6.340401785714286,0.24749879120801438
6.3737723214285715,0.2757120971780275
6.407142857142857,0.26938826394601695
6.4405133928571425,0.21441058550798245
6.4738839285714285,0.11963405708393952
6.507254464285714,0.009326146554304623
6.5406249999999995,-0.08875969523588095
6.573995535714285,-0.15402108830143552
6.607366071428571,-0.17873868652195957
6.640736607142857,-0.16823040301281866
6.674107142857142,-0.1370074553368148
6.707477678571428,-0.10330779258276052
6.740848214285714,-0.08392425423146545
6.77421875,-0.09028216807548835
6.807589285714285,-0.1259786219926097
6.840959821428571,-0.18579703386155652
6.874330357142857,-0.25640987616677247
6.907700892857143,-0.3191372828911235
6.941071428571428,-0.354809767990389
6.974441964285714,-0.34989018884374223
7.0078125,-0.3019363071425926
7.041183035714286,-0.2219707498449518
7.074553571428571,-0.13200909361745305
7.107924107142857,-0.05789874789294702
7.141294642857143,-0.019925085948779828
7.174665178571429,-0.025051138621171087
7.208035714285714,-0.06420737294019362
7.24140625,-0.11582077206931608
7.274776785714286,-0.1539390738312265
7.308147321428572,-0.15739845703562627
7.341517857142857,-0.11642069713396627
7.374888392857143,-0.03460617045253257
7.408258928571429,0.07354862023358186
7.441629464285715,0.1878912445515605
7.475,0.2884435669514474
7.508370535714286,0.360148596675347
7.5417410714285715,0.3956921899212446
7.575111607142857,0.3962204238361449
7.6084821428571425,0.37013434762120145
7.6418526785714285,0.33034665728345325
7.675223214285714,0.2905828846008856
7.7085937499999995,0.26151637226518554
7.741964285714285,0.24766222866039295
7.775334821428571,0.2459390842822553
7.808705357142857,0.2465568890469081
7.842075892857142,0.23630916110118544
7.875446428571428,0.2034477214681268
7.908816964285714,0.14239592276676946
7.9421875,0.05619265067554156
7.975558035714285,-0.044738042016719534
8.008928571428571,-0.14717813043890032
8.042299107142856,-0.24082497946191853
8.075669642857143,-0.3219422257264455
8.109040178571428,-0.3926706303116126
8.142410714285715,-0.4562071308469493
8.17578125,-0.510768615115589
8.209151785714285,-0.5464160360661388
8.242522321428572,-0.5474464785392695
8.275892857142857,-0.49978012461002697
8.309263392857142,-0.3995414588732107
8.342633928571429,-0.25793443648270425
8.376004464285714,-0.09931401619654052
8.409375,0.04700104213433641
8.442745535714286,0.1573097642391295
8.47611607142857,0.22148822501743207
8.509486607142858,0.24479306516336097
8.542857142857143,0.24311289842794517
8.576227678571428,0.2343645441819571
8.609598214285715,0.2303057010702543
8.64296875,0.23248099263952024
8.676339285714285,0.23375079221425663
8.709709821428572,0.2240458078810699
8.743080357142857,0.19701899074823054
8.776450892857143,0.15406727919732796
8.809821428571428,0.10381198632139549
8.843191964285714,0.05766354282614247
8.8765625,0.02417177226217899
8.909933035714285,0.00535847621947192
8.94330357142857,-0.003078845424240432
8.976674107142857,-0.00812164182329109
9.010044642857142,-0.014753188802967696
9.04341517857143,-0.02316367910677685
9.076785714285714,-0.02949439862441435
9.11015625,-0.029509931052120606
9.143526785714286,-0.022691956731981263
9.176897321428571,-0.013925480345716749
9.210267857142856,-0.01144453767996136
9.243638392857143,-0.022106296405974342
9.277008928571428,-0.04684860871970963
9.310379464285715,-0.07920247835228064
9.34375,-0.10794307741530157
9.377120535714285,-0.12248171920767445
9.410491071428572,-0.11796667117733518
9.443861607142857,-0.09725977933745468
9.477232142857142,-0.06881806848279266
9.510602678571429,-0.04186040923795254
9.543973214285714,-0.021634979796334525
9.57734375,-0.007350320002976538
9.610714285714286,0.0063435339570121225
9.64408482142857,0.025473472507249413
9.677455357142858,0.05282327747017225
9.710825892857143,0.08611238962561243
9.744196428571428,0.11901696489076499
9.777566964285715,0.1441355654882718
9.8109375,0.15608338795480614
9.844308035714285,0.15313354083032246
9.877678571428572,0.13690345587915728
9.911049107142857,0.11074411046553101
9.944419642857143,0.07803472646908083
9.977790178571428,0.041302891848614014
10.011160714285714,0.002310263318687881
10.04453125,-0.03743478290284463
10.077901785714285,-0.07640229822525192
10.11127232142857,-0.11322838264686741
10.144642857142857,-0.14699681738915366
10.178013392857142,-0.17702708681937424
10.21138392857143,-0.20197046404468086
10.244754464285714,-0.21875066623254796
10.278125,-0.22237283131296878
10.311495535714286,-0.20737679357330854
10.344866071428571,-0.1707349399402876
10.378236607142856,-0.11484701716763303
10.411607142857143,-0.04874260702655804
10.444977678571428,0.013828543790157024
10.478348214285715,0.05919010148164932
10.51171875,0.07944087714806836
10.545089285714285,0.07618248950832034
10.578459821428572,0.06002267809815684
10.611830357142857,0.04564055738283686
10.645200892857142,0.04463134199135717
10.678571428571429,0.059786150596500116
10.711941964285714,0.08394951571787009
10.745312499999999,0.10425134599909314
10.778683035714286,0.10956831472625024
10.81205357142857,0.09721666409889872
10.845424107142858,0.07522346862041591
10.878794642857143,0.058885646470564705
10.912165178571428,0.06333929895009445
10.945535714285715,0.09584720750507886
10.97890625,0.15150069591940205
11.012276785714285,0.2142372774630654
11.045647321428572,0.2625837446852878
11.079017857142857,0.27756764928848454
11.112388392857143,0.24954802276620536
11.145758928571428,0.18138792101305323
11.179129464285714,0.0870025330638693
11.2125,-0.013822854208089269
11.245870535714285,-0.10207109907749282
11.27924107142857,-0.16496100717022547
11.312611607142857,-0.19841629010086892
11.345982142857142,-0.2062299065275035
11.37935267857143,-0.19705003680417127
11.412723214285714,-0.18091321613576997
11.44609375,-0.16662599175501974
11.479464285714286,-0.16032657869041417
11.512834821428571,-0.16481521510810135
11.546205357142856,-0.17920464058080415
11.579575892857143,-0.19895298264431738
11.612946428571428,-0.21678068562342256
11.646316964285715,-0.2247965128353377
11.6796875,-0.21736524010872557
11.713058035714285,-0.19342284150214767
11.746428571428572,-0.15681965704459372
11.779799107142857,-0.1141577972380692
11.813169642857142,-0.07106252483780115
11.846540178571429,-0.028950559844675938
11.879910714285714,0.015695456732941093
11.913281249999999,0.06887699107770073
11.946651785714286,0.13465979122917573
11.98002232142857,0.21124012953439394
12.013392857142858,0.28977008449408626
12.046763392857143,0.35669429494945626
12.080133928571428,0.3984368373977978
12.113504464285715,0.40611748913743406
12.146875,0.3781619226492641
12.180245535714285,0.31992795836790905
12.213616071428572,0.2409785671380112
12.246986607142857,0.15160314863983732
12.280357142857143,0.060256313661004555
12.313727678571428,-0.027147184264925395
12.347098214285714,-0.10624893936468384
12.38046875,-0.17267222038902916
12.413839285714285,-0.22122809457808143
12.44720982142857,-0.24672333116573536
12.480580357142857,-0.24611059555479878
12.513950892857142,-0.22075968554166803
12.54732142857143,-0.17738843180172817
12.580691964285714,-0.12682908219522082
12.6140625,-0.08093711383010226
12.647433035714286,-0.048916840445648514
12.680803571428571,-0.03461754169920052
12.714174107142856,-0.03584480412870558
12.747544642857143,-0.045777007349767404
12.780915178571428,-0.05571383134296809
12.814285714285713,-0.05800504508114676
12.84765625,-0.04817169734406189
12.881026785714285,-0.025723129759503943
12.914397321428572,0.006295409433085264
12.947767857142857,0.04261958525103594
12.981138392857142,0.07740482043058636
13.014508928571429,0.10570748881210507
13.047879464285714,0.12449591842540643
13.081249999999999,0.13304456630259393
13.114620535714286,0.1326790275471699
13.14799107142857,0.12593764686535006
13.181361607142858,0.11536555127524895
13.214732142857143,0.10235355030117252
13.248102678571428,0.0865484157165623
13.281473214285715,0.06622503293347465
13.31484375,0.039586415372321375
13.348214285714285,0.006429020078431409
13.381584821428572,-0.030701663126923188
13.414955357142857,-0.06659625712937915
13.448325892857143,-0.09485789352549366
13.481696428571428,-0.11019785850737726
13.515066964285714,-0.11051941230424778
13.5484375,-0.09783733709449663
13.581808035714285,-0.07766169321499936
13.61517857142857,-0.057213063980966816
13.648549107142857,-0.04328707311374864
13.681919642857142,-0.040509334494079896
13.71529017857143,-0.0502775752498812
13.748660714285714,-0.07031355011023084
13.78203125,-0.09477517904919304
13.815401785714286,-0.11520182263629976
13.848772321428571,-0.12268897757894362
13.882142857142856,-0.11118250866635083
13.915513392857143,-0.08076562592317602
13.948883928571428,-0.039026826885531565
13.982254464285713,0.0010824119053603773
14.015625,0.02681523034056155
14.048995535714285,0.03229974396852108
14.082366071428572,0.022674330931978813
14.115736607142857,0.012823483718054307
14.149107142857142,0.02060333436209657
14.182477678571429,0.057664890966692715
14.215848214285714,0.12265462897117879
14.249218749999999,0.2005355611163483
14.282589285714286,0.26854101139880926
14.31595982142857,0.3057358133420164
14.349330357142858,0.30137243208339903
14.382700892857143,0.25814253066420423
14.416071428571428,0.18935926837741388
14.449441964285715,0.11226205881020357
14.4828125,0.04123827000024209
14.516183035714285,-0.015900817685733863
14.549553571428572,-0.0576884991998982
14.582924107142857,-0.08621423441590899
14.616294642857143,-0.1042043288677686
14.649665178571428,-0.11377503829468524
14.683035714285714,-0.11704997734231662
14.71640625,-0.11737860502222806
14.749776785714285,-0.11949382935255891
14.78314732142857,-0.12779217785966338
14.816517857142857,-0.14344246813925743
14.849888392857142,-0.1622333310617692
14.88325892857143,-0.17508508179216356
14.916629464285714,-0.1717815102821462
14.95,-0.1464317149664162
14.983370535714286,-0.10172791663570245
15.016741071428571,-0.049270811108976346
15.050111607142856,-0.005169952673778783
15.083482142857143,0.01723070921339185
15.116852678571428,0.013840676549597305
15.150223214285713,-0.007989383157034636
15.18359375,-0.03295041944390134
15.216964285714285,-0.04527375449495426
15.250334821428572,-0.036356864446844744
15.283705357142857,-0.00848385416377413
15.317075892857142,0.02728427390366273
15.350446428571429,0.057748834993892835
15.383816964285714,0.07491821497385097
15.417187499999999,0.07987593561453617
15.450558035714286,0.08102990952998759
15.48392857142857,0.08788414819853263
15.517299107142858,0.10411529402917173
15.550669642857143,0.12420436462742648
15.584040178571428,0.1358723770419905
15.617410714285715,0.12721115084417634
15.65078125,0.09459071652159945
15.684151785714285,0.04677663726620562
15.717522321428572,0.0025983253345967646
15.750892857142857,-0.017085547170177066
15.784263392857143,0.0006434813337652153
15.817633928571428,0.053674926103607905
15.851004464285714,0.12411999549617417
15.884375,0.18443188304259123
15.917745535714285,0.20790582296462876
15.95111607142857,0.17926229417273512
15.984486607142857,0.10103474690158597
16.017857142857142,-0.006827886881956252
16.05122767857143,-0.11408043407667594
16.084598214285712,-0.19131735848966183
16.11796875,-0.22076354716244972
16.151339285714286,-0.20237850043088051
16.18470982142857,-0.1527557792489462
16.218080357142856,-0.09730706734312478
16.251450892857143,-0.05915846449987765
16.28482142857143,-0.04967249986504092
16.318191964285713,-0.0647507596921018
16.3515625,-0.08836498237638914
16.384933035714287,-0.10139617211261094
16.41830357142857,-0.09145148737953133
16.451674107142857,-0.05900979286002609
16.485044642857144,-0.017125428127515954
16.518415178571427,0.01494782110676798
16.551785714285714,0.020987437783985104
16.58515625,-0.004571348984112422
16.618526785714284,-0.05413643047977797
16.65189732142857,-0.11052720591496397
16.685267857142858,-0.15462561113095416
16.71863839285714,-0.17329546006686114
16.752008928571428,-0.16388348021287957
16.785379464285715,-0.13355177156672257
16.81875,-0.09435649049166986
16.852120535714285,-0.05695981105623056
16.88549107142857,-0.026170406109274003
16.91886160714286,-0.00015406356288854227
16.95223214285714,0.026952096465990054
16.98560267857143,0.060937277114179886
17.018973214285715,0.10423477172559886
17.05234375,0.15491521124504326
17.085714285714285,0.20799163366629583
17.119084821428572,0.25793096289296685
17.152455357142856,0.30090666874002914
17.185825892857142,0.33572300234083485
17.21919642857143,0.36310681773610337
17.252566964285712,0.383789825693823
17.2859375,0.39628224954323876
17.319308035714286,0.39543537199684703
17.35267857142857,0.3727865456340037
17.386049107142856,0.31918694490775484
17.419419642857143,0.22928659293229015
17.45279017857143,0.10631104518694103
17.486160714285713,-0.03523939677689029
17.51953125,-0.17115597177878578
