Frequency (Hz),Amplitude
0.0,13.531136864824072
0.019823788546255508,13.524466860559746
0.039647577092511016,13.504463432336207
0.059471365638766524,13.471146327511914
0.07929515418502203,13.424548437194352
0.09911894273127755,13.364715764536736
0.11894273127753305,13.291707380418178
0.13876651982378857,13.205595366571139
0.15859030837004406,13.106464746242523
0.17841409691629956,12.994413402492548
0.1982378854625551,12.869551984260317
0.2180616740088106,12.732003800347016
0.2378854625550661,12.581904701495267
0.25770925110132165,12.419402950771437
0.27753303964757714,12.24465908249132
0.29735682819383263,12.05784574996766
0.31718061674008813,11.859147562402983
0.3370044052863437,11.64876091130399
0.3568281938325991,11.426893786859711
0.37665198237885467,11.193765584804584
0.3964757709251102,10.949606904388627
0.41629955947136565,10.694659338204481
0.4361233480176212,10.429175254785424
0.4559471365638767,10.153417575104786
0.4757709251101322,9.867659544393359
0.49559471365638774,9.572184501076284
0.5154185022026433,9.26728564515668
0.5352422907488987,8.95326580909884
0.5550660792951543,8.630437235282159
0.5748898678414097,8.299121365545767
0.5947136563876653,7.9596486504373996
0.6145374449339208,7.612358388858784
0.6343612334801763,7.257598613405116
0.6541850220264318,6.895726043725882
0.6740088105726874,6.527106141192087
0.6938325991189428,6.152113315647253
0.7136563876651982,5.771131363678956
0.7334801762114539,5.384554266201296
0.7533039647577093,4.992787557450325
0.7731277533039648,4.596250630115917
0.7929515418502204,4.195380629743996
0.8127753303964759,3.790639164420446
0.8325991189427313,3.382524262361776
0.8524229074889869,2.9715927356468637
0.8722466960352424,2.5585048123045557
0.8920704845814978,2.144121233436934
0.9118942731277534,1.7297404734714656
0.931718061674009,1.3177798083240944
0.9515418502202644,0.9142535634363781
0.9713656387665199,0.5417846171657216
0.9911894273127755,0.33425208163376746
1.0110132158590308,0.5396181123181718
1.0308370044052866,0.911724970084311
1.0506607929515421,1.3152143893207053
1.0704845814977975,1.7272272023999062
1.090308370044053,2.141705872275174
1.1101321585903086,2.5562210227978417
1.1299559471365639,2.96946963982487
1.1497797356828194,3.3805888376877715
1.1696035242290752,3.788917140352053
1.1894273127753305,4.193896857530667
1.209251101321586,4.595029239898114
1.2290748898678416,4.991852020075142
1.248898678414097,5.383927408847483
1.2687224669603525,5.770835361729276
1.288546255506608,6.152169671841055
1.3083700440528636,6.527535657828431
1.3281938325991192,6.896548791101758
1.3480176211453747,7.258833896332411
1.36784140969163,7.614024712376565
1.3876651982378856,7.961763685424539
1.4074889867841411,8.301701914698196
1.4273127753303965,8.633499199773285
1.4471365638766522,8.956824156150674
1.4669603524229078,9.2713543766913
1.4867841409691631,9.576776623577974
1.5066079295154187,9.872787040086562
1.5264317180616742,10.159091374534157
1.5462555066079295,10.435405210871153
1.5660792951541853,10.701454201836729
1.5859030837004409,10.956974301616734
1.6057268722466962,11.20171199567117
1.6255506607929517,11.435424525924828
1.6453744493392073,11.6578801098997
1.6651982378854626,11.868858152655926
1.6850220264317182,12.068149450622915
1.7048458149779737,12.255556386568362
1.7246696035242293,12.430893115079986
1.7444933920704848,12.59398573803565
1.7643171806167404,12.74467246961774
1.7841409691629957,12.882803790492263
1.8039647577092512,13.008242590827278
1.8237885462555068,13.120864301869313
1.8436123348017623,13.220557015835547
1.863436123348018,13.30722159391186
1.8832599118942732,13.38077176217715
1.9030837004405288,13.44113419529938
1.9229074889867843,13.488248587874288
1.9427312775330399,13.522067713298567
1.9625550660792954,13.542557470091289
1.982378854625551,13.549696915596765
2.002202643171806,13.543478287021271
2.0220264317180616,13.523907009775384
2.041850220264317,13.491001693111231
2.061674008810573,13.444794113063594
2.0814977973568287,13.385329182721568
2.1013215859030843,13.31266490987685
2.1211453744493394,13.226872342114241
2.140969162995595,13.128035499430531
2.1607929515418505,13.01625129448907
2.180616740088106,12.891629440640774
2.2004405286343616,12.75429234786721
2.220264317180617,12.604375006829128
2.2400881057268722,12.442024861234087
2.2599118942731278,12.2674016687735
2.2797356828193833,12.080677350918364
2.299559471365639,11.882035831912418
2.319383259911895,11.671672867358835
2.3392070484581504,11.44979586286615
2.3590308370044055,11.216623683306945
2.378854625550661,10.972386453351527
2.3986784140969166,10.717325350078164
2.418502202643172,10.45169238864205
2.4383259911894277,10.175750202220666
2.4581497797356833,9.889771817767802
2.4779735682819384,9.594040429530226
2.497797356828194,9.288849172858045
2.5176211453744495,8.97450090163565
2.537444933920705,8.65130797377927
2.5572687224669606,8.319592050836162
2.577092511013216,7.979683920020841
2.5969162995594717,7.631923350401627
2.6167400881057272,7.276659000007378
2.6365638766519828,6.914248398337295
2.6563876651982383,6.545058040779364
2.676211453744494,6.1694636506269545
2.6960352422907494,5.787850695803882
2.715859030837005,5.400615300395487
2.73568281938326,5.008165783425258
2.7555066079295156,4.610925224367129
2.775330396475771,4.209335770313132
2.7951541850220267,3.803866025656649
2.8149779735682823,3.3950241819215634
2.834801762114538,2.983382515112256
2.854625550660793,2.5696261669841327
2.874449339207049,2.1546590021917327
2.8942731277533045,1.7398613509062377
2.91409691629956,1.3278259817380056
2.9339207048458156,0.9250083835467308
2.953744493392071,0.5552843536656813
2.9735682819383262,0.3513829487724909
2.993392070484582,0.5494061197270832
3.0132158590308373,0.9180733174860011
3.033039647577093,1.3207804997932913
3.0528634361233484,1.732971140238086
3.072687224669604,2.1480613867431213
3.092511013215859,2.5634221554357866
3.1123348017621146,2.977659430911034
3.1321585903083706,3.389862871319021
3.151982378854626,3.799343564322653
3.1718061674008817,4.205526582304325
3.1916299559471373,4.607901558675071
3.2114537444933924,5.005997902326241
3.231277533039648,5.399371527944636
3.2511013215859035,5.787597394350894
3.270925110132159,6.170265158756753
3.2907488986784146,6.546976590158552
3.31057268722467,6.917344019117759
3.3303964757709252,7.280989420376987
3.350220264317181,7.63754389366718
3.3700440528634363,7.986647401361376
3.389867841409692,8.327948675134257
3.4096916299559474,8.661105235495995
3.4295154185022034,8.985783487419145
3.4493392070484585,9.301658867398181
3.469162995594714,9.608416025055885
3.4889867841409696,9.905749027503283
3.508810572687225,10.193361578062863
3.5286343612334807,10.470967243279786
3.5484581497797363,10.738289683745881
3.5682819383259914,10.99506288538611
3.588105726872247,11.241031388658902
3.6079295154185025,11.475950513700763
3.627753303964758,11.699586579870612
3.6475770925110136,11.911717118464667
3.667400881057269,12.11213107760961
3.6872246696035247,12.300629018523335
3.7070484581497802,12.477023302471977
3.726872246696036,12.641138267861713
3.7466960352422913,12.792810396991662
3.7665198237885464,12.93188847206355
3.7863436123348024,13.058233720103082
3.8061674008810575,13.171719946495148
3.8259911894273135,13.272233656876569
3.8458149779735686,13.359674167165405
3.8656387665198246,13.433953701537146
3.8854625550660797,13.494997478185514
3.905286343612335,13.542743782731469
3.925110132158591,13.57714402916716
3.9449339207048464,13.598162808243565
3.964757709251102,13.605777923231154
3.9845814977973575,13.59998041300375
4.004405286343612,13.580774562414732
4.024229074889869,13.548177899954249
4.044052863436123,13.50222118269613
4.06387665198238,13.442948368562021
4.083700440528634,13.37041657595091
4.103524229074891,13.284696030803078
4.123348017621146,13.18587000118891
4.143171806167401,13.074034719536995
4.162995594713657,12.949299292640735
4.182819383259912,12.811785599609752
4.2026431718061685,12.66162817796416
4.222466960352423,12.498974098103192
4.242290748898679,12.32398282642064
4.262114537444934,12.136826077385141
4.28193832599119,11.937687654959458
4.301762114537445,11.726763283799771
4.321585903083701,11.50426043075702
4.3414096916299565,11.270398117305819
4.361233480176212,11.025406723654182
4.381057268722468,10.769527785452722
4.400881057268723,10.50301378423576
4.420704845814979,10.226127933008126
4.440528634361234,9.939143958765195
4.46035242290749,9.64234588423828
4.4801762114537445,9.33602781184605
4.500000000000001,9.020493713785415
4.5198237885462555,8.696057233532121
4.539647577092512,8.363041505924288
4.559471365638767,8.021779005752137
4.579295154185023,7.672611438819488
4.599118942731278,7.315889695489222
4.618942731277533,6.95197389594726
4.63876651982379,6.581233570789037
4.658590308370044,6.204048043449831
4.678414096916301,5.820807118514214
4.6982378854625555,5.431912243159295
4.718061674008811,5.037778419065755
4.737885462555067,4.638837341065223
4.757709251101322,4.235542613948243
4.777533039647578,3.8283786421287465
4.797356828193833,3.417876347246961
4.817180616740089,3.0046423784337075
4.837004405286344,2.589417062231871
4.856828193832599,2.1731996172918753
4.876651982378855,1.7575512091488017
4.896475770925111,1.3454518100457271
4.9162995594713665,0.9443261909320755
4.936123348017622,0.580769794750019
4.955947136563877,0.3862693378627971
4.975770925110133,0.5730425653418393
4.995594713656388,0.9350194181695115
5.015418502202644,1.3359845515229352
5.035242290748899,1.748347600759139
5.055066079295155,2.1644839613578886
5.07488986784141,2.5813558419417006
5.094713656387666,2.9973800373264994
5.114537444933921,3.411546811520517
5.134361233480177,3.8231096698987588
5.154185022026432,4.2314575961032155
5.174008810572688,4.636056066312101
5.193832599118943,5.03641737295241
5.213656387665199,5.43208468053163
5.2334801762114544,5.8226230192543476
5.25330396475771,6.207614005656337
5.2731277533039655,6.586652669787705
5.292951541850221,6.959345524826644
5.312775330396477,7.325309396263387
5.332599118942731,7.684170729736625
5.352422907488988,8.035565208240525
5.372246696035242,8.37913757347787
5.392070484581499,8.71454158411794
5.4118942731277535,9.041440066905972
5.43171806167401,9.3595050311006
5.451541850220265,9.668417826036865
5.47136563876652,9.967869327719537
5.491189427312777,10.257560144432983
5.511013215859031,10.537200834128978
5.530837004405288,10.80651212827372
5.550660792951542,11.065225158182887
5.570484581497798,11.313081680834216
5.5903083700440535,11.54983430184094
5.610132158590309,11.77524669377683
5.6299559471365646,11.98909380842119
5.64977973568282,12.19116208177407
5.669603524229076,12.381249630907924
5.689427312775331,12.559166441887466
5.709251101321586,12.724734548119262
5.729074889867842,12.877788198594956
5.748898678414098,13.018174015574754
5.768722466960353,13.145751141325038
5.788546255506609,13.260391373579296
5.808370044052864,13.361979289439228
5.82819383259912,13.45041235747265
5.848017621145375,13.525601037799783
5.867841409691631,13.587468869991282
5.887665198237886,13.635952548628689
5.907488986784142,13.671001986404415
5.927312775330397,13.692580364661858
5.9471365638766525,13.70066417129929
5.966960352422908,13.695243225983392
5.986784140969164,13.676320692638644
6.00660792951542,13.64391307920118
6.026431718061675,13.598050224645766
6.04625550660793,13.538775273316798
6.066079295154186,13.466144636616066
6.085903083700441,13.380227942122994
6.105726872246697,13.281107970248053
6.125550660792952,13.168880578545924
6.145374449339208,13.043654613843767
6.1651982378854635,12.905551812372345
6.185022026431718,12.754706688122718
6.204845814977975,12.591266409693494
6.224669603524229,12.41539066594041
6.244493392070486,12.227251520797205
6.264317180616741,12.027033257704495
6.284140969162996,11.814932214165808
6.303964757709252,11.591156607052568
6.323788546255507,11.355926349407394
6.3436123348017635,11.109472859657938
6.363436123348018,10.852038864362418
6.3832599118942746,10.58387819587974
6.403083700440529,10.305255586715754
6.422907488986785,10.016446462774924
6.44273127753304,9.717736738391762
6.462555066079296,9.409422616898043
6.482378854625551,9.09181040170327
6.502202643171807,8.76521632457853
6.5220264317180625,8.429966400274505
6.541850220264318,8.086396320129694
6.561674008810574,7.734851402507113
6.581497797356829,7.37568662564598
6.601321585903085,7.009266780329182
6.62114537444934,6.635966798164056
6.640969162995596,6.2561723405954215
6.6607929515418505,5.87028078172817
6.680616740088107,5.478702798776092
6.700440528634362,5.0818649243707785
6.720264317180618,4.6802136683477125
6.740088105726873,4.274222293573843
6.759911894273129,3.864402273096558
6.779735682819384,3.4513234289041947
6.799559471365639,3.0356511721229764
6.819383259911895,2.618220010500925
6.83920704845815,2.200191397059766
6.859030837004407,1.783432341198938
6.8788546255506615,1.3715697246312564
6.898678414096917,0.9736020475871752
6.918502202643173,0.6201792377896739
6.938325991189428,0.44023712561225636
6.958149779735684,0.6135416900951735
6.977973568281939,0.965399912050162
6.997797356828195,1.363278792290657
7.01762114537445,1.775554933911406
7.037444933920705,2.193014027876783
7.0572687224669615,2.611964241232211
7.077092511013216,3.0305131515082824
7.096916299559473,3.4474868308546114
7.116740088105728,3.8620431953995227
7.136563876651983,4.273511265350876
7.156387665198239,4.681316473769626
7.176211453744494,5.084942891559066
7.19603524229075,5.483912828280208
7.215859030837005,5.877775241026537
7.235682819383261,6.266098887202538
7.255506607929516,6.648468164262367
7.275330396475772,7.024480537193
7.295154185022027,7.393744938499541
7.314977973568283,7.755880782305881
7.334801762114538,8.11051737640007
7.354625550660794,8.457293597764474
7.374449339207049,8.795857745632897
7.394273127753305,9.125867515751956
7.4140969162995605,9.446990058108048
7.433920704845816,9.758902092308876
7.453744493392072,10.061290062628622
7.473568281938327,10.353850319952034
7.493392070484583,10.636289321408961
7.513215859030838,10.908323840949258
7.533039647577093,11.169681185834785
7.552863436123348,11.420099415254969
7.572687224669605,11.659327558159754
7.59251101321586,11.887125828053897
7.612334801762115,12.103265832976568
7.6321585903083715,12.307530779251032
7.651982378854627,12.499715667862636
7.671806167400882,12.67962748253362
7.691629955947137,12.847085368726354
7.711453744493394,13.001920802935361
7.731277533039649,13.143977751731756
7.751101321585904,13.273112820106258
7.7709251101321595,13.389195388725922
7.790748898678416,13.49210773977654
7.81057268722467,13.581745171111011
7.830396475770926,13.65801609846623
7.850220264317182,13.72084214554672
7.870044052863436,13.770158221807534
7.889867841409693,13.80591258779679
7.909691629955948,13.82806690794755
7.929515418502204,13.836596290733345
7.9493392070484585,13.831489316127312
7.969162995594715,13.81274805032829
7.9889867841409705,13.780388047741893
8.008810572687224,13.734438340227905
8.02863436123348,13.67494141365003
8.048458149779737,13.60195317178979
8.068281938325994,13.515542887712234
8.088105726872246,13.415793142701082
8.107929515418503,13.302799752910724
8.12775330396476,13.176671683918043
8.147577092511014,13.037530953395217
8.167400881057269,12.885512522169336
8.187224669603525,12.7207641739856
8.207048458149782,12.543446384351773
8.226872246696036,12.353732178913917
8.246696035242293,12.15180698190085
8.266519823788547,11.93786845528311
8.286343612334802,11.712126329426265
8.306167400881058,11.474802226187862
8.325991189427315,11.226129475623472
8.345814977973568,10.966352927746275
8.365638766519824,10.69572876114891
8.38546255506608,10.414524290777468
8.405286343612337,10.123017777790727
8.42511013215859,9.821498245305882
8.444933920704846,9.510265305021827
8.464757709251103,9.189629001357064
8.484581497797357,8.85990968205237
8.504405286343614,8.52143790747936
8.524229074889869,8.174554415654681
8.544052863436125,7.819610166947548
8.56387665198238,7.456966502915416
8.583700440528636,7.0869954696209785
8.60352422907489,6.710080380552001
8.623348017621145,6.326616733707019
8.643171806167402,5.937013661846695
8.662995594713658,5.541696203242508
8.682819383259913,5.141108868340159
8.702643171806168,4.735721316441362
8.722466960352424,4.326037592335518
8.74229074889868,3.9126116252971497
8.762114537444935,3.4960743025332612
8.78193832599119,3.0771832397914034
8.801762114537446,2.6569203822958682
8.821585903083701,2.236699799996668
8.841409691629957,1.8188596780853503
8.861233480176212,1.4080021769041497
8.881057268722468,1.0153837712214309
8.900881057268723,0.6766819266030575
8.92070484581498,0.5154687806763644
8.940528634361234,0.6748978330355343
8.960352422907489,1.013303148902244
8.980176211453745,1.4062856066007208
9.000000000000002,1.81785566659092
9.019823788546258,2.236676609998768
9.039647577092511,2.6581197416243354
9.059471365638768,3.0798350958253367
9.079295154185024,3.5004015984220036
9.099118942731279,3.918831957724582
9.118942731277533,4.334363728139578
9.13876651982379,4.746361238738573
9.158590308370046,5.154265610860281
9.1784140969163,5.557567583538065
9.198237885462555,5.955791964940531
9.218061674008812,6.348488372029337
9.237885462555067,6.735225544004562
9.257709251101323,7.115587773642916
9.27753303964758,7.489172639306982
9.297356828193834,7.855589560500995
9.317180616740089,8.21445888866788
9.337004405286345,8.565411353650443
9.356828193832602,8.90808775089893
9.376651982378855,9.242138794076874
9.396475770925111,9.56722508256207
9.416299559471367,9.883017149304239
9.436123348017622,10.189195564976984
9.455947136563877,10.485451081367826
9.475770925110133,10.771484801720776
9.49559471365639,11.047008369044327
9.515418502202644,11.311744165715675
9.5352422907489,11.565425519362277
9.555066079295155,11.80779691119276
9.57488986784141,12.038614183819655
9.594713656387666,12.257644746260759
9.614537444933923,12.464667774287353
9.634361233480178,12.659474404652723
9.654185022026432,12.841867922013899
9.674008810572689,13.011663937575836
9.693832599118945,13.168690558657255
9.713656387665198,13.31278854851198
9.733480176211454,13.44381147584785
9.75330396475771,13.56162585357404
9.773127753303967,13.666111266379804
9.792951541850222,13.757160486809848
9.812775330396477,13.834679579553102
9.832599118942733,13.89858799370727
9.852422907488988,13.948818642821864
9.872246696035244,13.9853179725578
9.892070484581499,14.008046015835161
9.911894273127754,14.016976435371575
9.93171806167401,14.012096553542305
9.951541850220266,13.993407369522734
9.971365638766521,13.960923563700723
9.991189427312776,13.914673489375994
10.011013215859032,13.854699151791685
10.030837004405289,13.781056174574447
10.050660792951543,13.69381375369093
10.070484581497798,13.593054599065058
10.090308370044054,13.478874864037005
10.11013215859031,13.351384062890457
10.129955947136565,13.210704976722207
10.14977973568282,13.056973547986653
10.169603524229077,12.890338764113931
10.189427312775331,12.710962530681533
10.209251101321588,12.519019534715088
10.229074889867842,12.31469709881283
10.248898678414099,12.098195026935281
10.268722466960353,11.869725442884775
10.28854625550661,11.629512622733392
10.308370044052865,11.377792822756078
10.32819383259912,11.114814104812872
10.348017621145376,10.840836161630493
10.367841409691632,10.556130145104545
10.387665198237887,10.260978501639883
10.407488986784141,9.955674819760485
10.427312775330398,9.64052369688175
10.447136563876654,9.315840634439914
10.466960352422909,8.981951973806133
10.486784140969164,8.639194890013709
10.50660792951542,8.287917466974928
10.526431718061675,7.928478887624322
10.546255506607931,7.561249787004576
10.566079295154186,7.1866128385078305
10.585903083700442,6.804963677985897
10.605726872246697,6.416712325309163
10.625550660792953,6.022285352449777
10.645374449339208,5.622129197333864
10.665198237885463,5.216715282806276
10.685022026431719,4.8065480670134315
10.704845814977975,4.392178024837179
10.724669603524232,3.9742232719410926
10.744493392070485,3.5534070870078005
