Frequency (Hz),Amplitude
0.0,0.03482226546477751
0.019867549668874173,0.059912739254932866
0.039735099337748346,0.10349435916682095
0.059602649006622516,0.15016453459338341
0.07947019867549669,0.19763140188621964
0.09933774834437085,0.24530163846162623
0.11920529801324503,0.2929351639543389
0.13907284768211922,0.34040019247601777
0.15894039735099338,0.3876070367396424
0.17880794701986755,0.43448524529071864
0.1986754966887417,0.4809742931030282
0.2185430463576159,0.5270193191594836
0.23841059602649006,0.5725689986058012
0.2582781456953642,0.6175744099418127
0.27814569536423844,0.6619884030973142
0.2980132450331126,0.70576523581666
0.31788079470198677,0.7488603613125135
0.33774834437086093,0.7912303049089677
0.3576158940397351,0.8328325949258313
0.3774834437086093,0.8736257276091924
0.3973509933774834,0.913569153946431
0.4172185430463576,0.9526232808071494
0.4370860927152318,0.9907494815787269
0.45695364238410596,1.027910113128664
0.4768211920529801,1.0640685369677478
0.49668874172185434,1.0991891431560588
0.5165562913907285,1.1332373759314789
0.5364238410596026,1.1661797603330124
0.5562913907284769,1.19798392928977
0.5761589403973509,1.2286186507846093
0.5960264900662252,1.2580538547978108
0.6158940397350993,1.2862606598054127
0.6357615894039735,1.3132113986567804
0.6556291390728477,1.3388796436926695
0.6754966887417219,1.3632402309923959
0.695364238410596,1.3862692836593187
0.7152317880794702,1.4079442340697637
0.7350993377483444,1.4282438450226558
0.7549668874172186,1.4471482297369176
0.7748344370860927,1.4646388706515032
0.7947019867549668,1.4806986369891912
0.8145695364238411,1.495311801050566
0.8344370860927152,1.508464053209177
0.8543046357615894,1.5201425155824655
0.8741721854304636,1.5303357543565959
0.8940397350993378,1.5390337907463343
0.9139072847682119,1.5462281105735263
0.9337748344370861,1.5519116724506856
0.9536423841059603,1.5560789145580698
0.9735099337748344,1.5587257600052318
0.9933774834437087,1.5598496207696948
1.0132450331125828,1.5594494002079988
1.033112582781457,1.5575254941358396
1.0529801324503312,1.554079790476386
1.0728476821192052,1.5491156674776119
1.0927152317880795,1.5426379905016887
1.1125827814569538,1.53465310739126
1.1324503311258278,1.525168842419798
1.1523178807947019,1.5141944888352037
1.1721854304635762,1.5017408000082035
1.1920529801324504,1.4878199791994904
1.2119205298013245,1.4724456679622553
1.2317880794701985,1.4556329331995208
1.2516556291390728,1.4373982528989713
1.271523178807947,1.41775950057162
1.2913907284768211,1.3967359284246266
1.3112582781456954,1.3743481493036898
1.3311258278145695,1.3506181174460026
1.3509933774834437,1.325569108091772
1.370860927152318,1.2992256960109487
1.390728476821192,1.2716137330123904
1.410596026490066,1.2427603245162122
1.4304635761589404,1.2126938052875142
1.4503311258278146,1.1814437144520662
1.4701986754966887,1.1490407699448115
1.4900662251655628,1.1155168425813886
1.5099337748344372,1.0809049299975222
1.5298013245033113,1.0452391307751947
1.5496688741721854,1.0085546191782346
1.5695364238410596,0.9708876210664196
1.5894039735099337,0.9322753917672232
1.609271523178808,0.8927561969909096
1.6291390728476822,0.8523692983291997
1.6490066225165563,0.8111549455651147
1.6688741721854303,0.7691543790822319
1.6887417218543048,0.7264098473352176
1.7086092715231789,0.6829646470511197
1.728476821192053,0.6388631983349579
1.7483443708609272,0.5941511745804146
1.7682119205298013,0.5488757208209656
1.7880794701986755,0.5030858195685153
1.8079470198675496,0.4568329124360327
1.8278145695364238,0.4101719866026446
1.847682119205298,0.36316355499275443
1.8675496688741722,0.31587747710105113
1.8874172185430464,0.26840091021821727
1.9072847682119205,0.22085660610543797
1.9271523178807946,0.17345119718518864
1.9470198675496688,0.12663009060618607
1.9668874172185429,0.08174458711650663
1.9867549668874174,0.04541914435117705
2.0066225165562916,0.046855362663621856
2.0264900662251657,0.08413834696970002
2.0463576158940397,0.12921044060768908
2.066225165562914,0.17608544608338716
2.086092715231788,0.2235074424060448
2.1059602649006623,0.27105305191072965
2.1258278145695364,0.3185227166585377
2.1456953642384105,0.3657964999880643
2.165562913907285,0.41278854657231584
2.185430463576159,0.4594296720574037
2.205298013245033,0.5056597482356435
2.2251655629139075,0.5514240262920879
2.2450331125827816,0.5966712243753793
2.2649006622516556,0.6413524754575773
2.2847682119205297,0.685420724191176
2.3046357615894038,0.7288303715333931
2.324503311258278,0.7715370625744579
2.3443708609271523,0.8134975604089898
2.364238410596027,0.8546696734160116
2.384105960264901,0.8950122166006474
2.403973509933775,0.9344849951426457
2.423841059602649,0.9730488026710677
2.443708609271523,1.0106654294187998
2.463576158940397,1.0472976770411515
2.4834437086092715,1.0829093779174384
2.5033112582781456,1.117465417425875
2.52317880794702,1.1509317581264662
2.543046357615894,1.1832754650867754
2.562913907284768,1.21446473179103
2.5827814569536423,1.2444689062168874
2.6026490066225163,1.273258516765638
2.622516556291391,1.3008052978049087
2.642384105960265,1.3270822146358698
2.662251655629139,1.3520634877364837
2.6821192052980134,1.3757246161616195
2.7019867549668874,1.3980424000030336
2.7218543046357615,1.418994961829617
2.741721854304636,1.4385617670413844
2.76158940397351,1.4567236430814248
2.781456953642384,1.4734627974584877
2.801324503311258,1.488762834539695
2.821192052980132,1.5026087710788343
2.8410596026490067,1.5149870504503335
2.8609271523178808,1.5258855555632587
2.8807947019867552,1.535293620433449
2.9006622516556293,1.5432020403949205
2.9205298013245033,1.5496030809348698
2.9403973509933774,1.554490485139077
2.9602649006622515,1.5578594797373537
2.9801324503311255,1.5597067797407342
3.0,1.5600305916647994
3.0198675496688745,1.5588306153355853
3.0397350993377485,1.5561080442768358
3.0596026490066226,1.5518655646797102
3.0794701986754967,1.5461073529582992
3.0993377483443707,1.5388390718966396
3.119205298013245,1.530067865395573
3.1390728476821192,1.5198023518301926
3.1589403973509933,1.5080526160316383
3.1788079470198674,1.4948301999098867
3.198675496688742,1.4801480917377228
3.218543046357616,1.464020714119748
3.23841059602649,1.4464639106745503
3.2582781456953644,1.4274949314633179
3.2781456953642385,1.4071324172037658
3.2980132450331126,1.3853963823153728
3.3178807947019866,1.3623081968502821
3.3377483443708607,1.3378905673743458
3.3576158940397347,1.3121675168759135
3.3774834437086096,1.2851643637955505
3.3973509933774837,1.2569077002909106
3.4172185430463577,1.227425369876836
3.437086092715232,1.1967464446157186
3.456953642384106,1.1649012020782175
3.47682119205298,1.131921102355595
3.4966887417218544,1.0978387654868371
3.5165562913907285,1.0626879497762958
3.5364238410596025,1.0265035316336075
3.556291390728477,0.9893214877867343
3.576158940397351,0.9511788810310099
3.596026490066225,0.9121138511294095
3.615894039735099,0.872165613143289
3.6357615894039736,0.8313744664684951
3.6556291390728477,0.7897818193698372
3.6754966887417218,0.7474302361753581
3.695364238410596,0.7043635180701425
3.7152317880794703,0.6606268346190347
3.7350993377483444,0.6162669335829215
3.754966887417219,0.5713324747732303
3.774834437086093,0.5258745665548544
3.794701986754967,0.4799476455991031
3.814569536423841,0.43361096329765575
3.834437086092715,0.38693119993138114
3.854304635761589,0.33998730652502834
3.8741721854304636,0.2928800860951679
3.8940397350993377,0.2457528361266713
3.9139072847682117,0.19884105316988573
3.9337748344370858,0.1526113636809528
3.9536423841059607,0.1082376445642592
3.9735099337748347,0.06970303961682611
3.993377483443709,0.05240641531835924
4.013245033112583,0.07339904344354911
4.033112582781457,0.11300959758590215
4.052980132450331,0.15769855132379804
4.072847682119205,0.20404199223606714
4.0927152317880795,0.25099512545882696
4.112582781456953,0.2981301395656842
4.132450331125828,0.3452260807641172
4.152317880794702,0.39214604277469645
4.172185430463576,0.4387923881068478
4.19205298013245,0.4850878893121885
4.211920529801325,0.5309668824320877
4.231788079470199,0.5763707596292419
4.251655629139073,0.6212455199592469
4.271523178807947,0.6655403697567005
4.291390728476821,0.709206891090644
4.311258278145695,0.7521985332766256
4.33112582781457,0.794470295940018
4.3509933774834435,0.8359785297566843
4.370860927152318,0.876680811705417
4.390728476821192,0.9165358687270029
4.410596026490066,0.9555035335160205
4.43046357615894,0.9935447220216218
4.450331125827815,1.030621425816598
4.470198675496689,1.0666967147450082
4.490066225165563,1.1017347467061862
4.509933774834438,1.1357007823833907
4.529801324503311,1.1685612033614998
4.549668874172186,1.2002835325114565
4.569536423841059,1.2308364558192812
4.589403973509934,1.2601898450481237
4.6092715231788075,1.2883147807723672
4.629139072847682,1.3151835754310934
4.649006622516556,1.340769796128117
4.66887417218543,1.365048286964043
4.688741721854305,1.3879951907305856
4.708609271523179,1.4095879698303002
4.728476821192054,1.4298054263111415
4.748344370860927,1.4486277209246494
4.768211920529802,1.4660363911328915
4.788079470198675,1.48201436800139
4.80794701986755,1.4965459919256623
4.827814569536423,1.5096170271472413
4.847682119205298,1.5212146750220015
4.867549668874172,1.5313275860094882
4.887417218543046,1.539945870357079
4.9072847682119205,1.547061107457062
4.927152317880794,1.5526663538590966
4.947019867549669,1.5567561499236058
4.966887417218543,1.5593265251055204
4.986754966887418,1.560375001860708
5.006622516556291,1.5599005981705325
5.026490066225166,1.5579038286831297
5.04635761589404,1.5543867044730106
5.066225165562914,1.5493527314234834
5.086092715231788,1.5428069072400459
5.105960264900662,1.534755717105953
5.125827814569536,1.5252071279949375
5.14569536423841,1.5141705816602486
5.1655629139072845,1.5016569863235016
5.185430463576159,1.4876787070918738
5.205298013245033,1.4722495551381904
5.225165562913908,1.45538477568505
5.245033112582782,1.4371010348421733
5.264900662251656,1.4174164053557798
5.28476821192053,1.3963503513403135
5.304635761589404,1.3739237120771168
5.324503311258278,1.3501586849821618
5.344370860927152,1.325078807866978
5.364238410596027,1.2987089406450412
5.3841059602649,1.2710752466713096
5.403973509933775,1.2422051739488886
5.4238410596026485,1.2121274364970982
5.443708609271523,1.1808719962545344
5.463576158940397,1.1484700459966959
5.483443708609272,1.1149539938902702
5.503311258278146,1.0803574505005595
5.52317880794702,1.0447152193363212
5.543046357615895,1.0080632923900061
5.562913907284768,0.9704388526603418
5.582781456953643,0.9318802864025065
5.602649006622516,0.8924272089565283
5.622516556291391,0.8521205096414447
5.642384105960264,0.8110024236719725
5.662251655629139,0.7691166428528046
5.682119205298013,0.7265084827780084
5.701986754966887,0.6832251338792191
5.7218543046357615,0.6393160395720794
5.741721854304636,0.5948334718497417
5.7615894039735105,0.549833422419638
5.781456953642384,0.5043770148599959
5.801324503311259,0.4585328102629104
5.821192052980132,0.41238071428561746
5.841059602649007,0.366018907610701
5.860927152317881,0.31957684874272724
5.880794701986755,0.27324141465273044
5.900662251655629,0.22731414941422529
5.920529801324503,0.18235064821672833
5.940397350993377,0.13954552939210602
5.960264900662251,0.10192712091547047
5.980132450331126,0.07769027813187641
6.0,0.080186372694842
6.0198675496688745,0.10756290089003372
6.039735099337749,0.14640836508601168
6.059602649006623,0.18970538924810434
6.079470198675497,0.23488511102300091
6.099337748344371,0.28090748083069517
6.119205298013245,0.32727554445347734
6.139072847682119,0.373713172525666
6.158940397350993,0.4200457999700306
6.178807947019867,0.46615049809260156
6.198675496688741,0.5119328202651783
6.218543046357616,0.5573151396829444
6.23841059602649,0.6022303701456401
6.258278145695365,0.6466183968242187
6.2781456953642385,0.6904239557613471
6.298013245033113,0.7335953280244102
6.317880794701987,0.7760835120929419
6.337748344370861,0.8178416875489235
6.357615894039735,0.8588248619562185
6.377483443708609,0.898989636171049
6.397350993377484,0.9382940480773958
6.417218543046357,0.9766974693430711
6.437086092715232,1.0141605386626984
6.456953642384105,1.0506451204848855
6.47682119205298,1.0861142817523852
6.496688741721854,1.1205322814871235
6.516556291390729,1.15386456958438
6.5364238410596025,1.1860777922169567
6.556291390728477,1.217139801964363
6.5761589403973515,1.2470196712807515
6.596026490066225,1.2756877082684783
6.6158940397351,1.3031154739783442
6.635761589403973,1.329275800641819
6.655629139072848,1.354142810376281
6.675496688741721,1.3776919340054514
6.695364238410596,1.3998999297128945
6.715231788079469,1.4207449013043438
6.735099337748344,1.4402063158989429
6.754966887417219,1.4582650209037054
6.774834437086093,1.4749032601528385
6.794701986754967,1.490104689114705
6.814569536423841,1.5038543890865161
6.8344370860927155,1.5161388803109679
6.854304635761589,1.5269461339602888
6.874172185430464,1.5362655829430851
6.894039735099337,1.5440881314974653
6.913907284768212,1.5504061635409678
6.933774834437086,1.55521354975419
6.95364238410596,1.558505653380646
6.973509933774834,1.5602793347305548
6.993377483443709,1.5605329543812314
7.013245033112583,1.5592663750714604
7.033112582781457,1.5564809622920934
7.052980132450331,1.5521795835796606
7.072847682119205,1.546366606525179
7.0927152317880795,1.5390478955151754
7.112582781456954,1.5302308072283037
7.132450331125828,1.5199241849167497
7.152317880794702,1.5081383515094988
7.172185430463576,1.4948851015822986
7.19205298013245,1.4801776922492786
7.211920529801324,1.4640308330423897
7.231788079470198,1.4464606748586117
7.251655629139073,1.427484798071373
7.271523178807947,1.4071221999228185
7.291390728476822,1.3853932813386192
7.311258278145695,1.3623198333378057
7.33112582781457,1.3379250232492754
7.3509933774834435,1.3122333809961453
7.370860927152318,1.2852707857721808
7.390728476821192,1.2570644535162878
7.410596026490066,1.2276429256973884
7.430463576158941,1.1970360600615602
7.450331125827814,1.1652750241786864
7.470198675496689,1.1323922928740637
7.490066225165562,1.0984216509664009
7.509933774834438,1.0633982031933544
7.52980132450331,1.027358393842291
7.549668874172186,0.9903400394959486
7.569536423841059,0.9523823795693428
7.589403973509934,0.9135261511392004
7.6092715231788075,0.8738136972359026
7.629139072847682,0.8332891217373157
7.649006622516557,0.791998510013985
7.66887417218543,0.7499902437574095
7.6887417218543055,0.707315453070857
7.708609271523178,0.6640286725734006
7.728476821192054,0.620188807537591
7.748344370860927,0.5758605831518657
7.768211920529802,0.5311167683244101
7.788079470198675,0.4860416818844183
7.80794701986755,0.44073690130801024
7.827814569536423,0.39533091577992485
7.847682119205298,0.34999618764720897
7.8675496688741715,0.30498089968072306
7.887417218543046,0.2606715995064525
7.907284768211921,0.21772491448470843
7.927152317880795,0.17736079240312047
7.9470198675496695,0.14202102270497236
7.966887417218543,0.1165651106971963
7.986754966887418,0.10832702122972827
8.006622516556291,0.12090890274486017
8.026490066225167,0.1490925852540796
8.046357615894038,0.18583243691460236
8.066225165562914,0.22690512747357228
8.086092715231787,0.2702199994976386
8.105960264900663,0.3147189973135551
8.125827814569536,0.35982159625354915
8.14569536423841,0.4051793733349386
8.165562913907285,0.45056458775295266
8.185430463576159,0.49581644641321043
8.205298013245034,0.5408135061317852
8.225165562913906,0.5854586654625578
8.245033112582782,0.6296705859585758
8.264900662251655,0.6733785741168663
8.28476821192053,0.7165194143842896
8.304635761589404,0.7590353477306726
8.324503311258278,0.8008727472416506
8.344370860927151,0.8419812313138529
8.364238410596027,0.882313059285242
8.3841059602649,0.9218227138627623
8.403973509933774,0.9604666097948038
8.42384105960265,0.9982028895109191
8.443708609271523,1.0349912796871823
8.463576158940398,1.0707929911242862
8.483443708609272,1.105570649807241
8.503311258278146,1.1392882506506647
8.52317880794702,1.171911127886962
8.543046357615895,1.2034059377380224
8.562913907284768,1.2337406501833768
8.582781456953642,1.2628845474654316
8.602649006622515,1.2908082275652755
8.62251655629139,1.317483611311248
8.642384105960264,1.342883952097253
8.66225165562914,1.3669838474202636
8.682119205298013,1.3897592516211739
8.701986754966887,1.4111874893444618
8.721854304635762,1.4312472693331026
8.741721854304636,1.4499186982521477
8.76158940397351,1.4671832942951533
8.781456953642383,1.4830240003744348
8.801324503311259,1.4974251967341425
8.821192052980132,1.5103727128548072
8.841059602649008,1.5218538385426799
8.86092715231788,1.5318573341170998
8.880794701986755,1.5403734396256066
8.90066225165563,1.5473938830309673
8.920529801324504,1.5529118873260173
8.940397350993377,1.5569221765429258
8.960264900662251,1.559420980633372
8.980132450331126,1.5604060392043173
9.0,1.5598766041029777
9.019867549668875,1.557833440852297
9.039735099337747,1.5542788289465197
9.059602649006623,1.5492165610248299
9.079470198675496,1.54265194094987
9.099337748344372,1.5345917808275717
9.119205298013245,1.5250443970155863
9.139072847682119,1.514019605179514
9.158940397350994,1.501528714470349
9.178807947019868,1.4875845209127307
9.198675496688743,1.47220130011325
9.218543046357615,1.455394799420993
9.23841059602649,1.4371822297010657
9.258278145695364,1.4175822569162624
9.27814569536424,1.3966149937544623
9.298013245033111,1.3743019915927732
9.317880794701987,1.3506662331556945
9.33774834437086,1.3257321263089163
9.357615894039736,1.2995254995377528
9.37748344370861,1.2720735997969288
9.397350993377483,1.2434050935972643
9.417218543046358,1.21355007242787
9.437086092715232,1.1825400639199177
9.456953642384107,1.1504080505663454
9.47682119205298,1.1171884983600076
9.496688741721854,1.0829173984554472
9.516556291390728,1.0476323259767166
9.536423841059603,1.011372521502417
9.556291390728477,0.9741790027338617
9.57615894039735,0.9360947166552067
9.596026490066224,0.8971647465285787
9.6158940397351,0.8574365939579799
9.635761589403973,0.8169605649959238
9.655629139072847,0.7757903024555171
9.675496688741722,0.7339835268626305
9.695364238410596,0.6916030802659747
9.715231788079471,0.6487184180346142
9.735099337748345,0.6054077772338016
9.754966887417218,0.5617613904351668
9.774834437086092,0.5178863558707131
9.794701986754967,0.47391420428492864
9.814569536423841,0.43001298638935437
9.834437086092716,0.3864071723360696
9.854304635761588,0.3434114569997092
9.874172185430464,0.3014899213185973
9.894039735099337,0.26136173962701204
9.913907284768213,0.22418876337132354
9.933774834437086,0.1918805969415901
9.95364238410596,0.16743561446607957
9.973509933774835,0.15473843648915317
9.993377483443709,0.15672116999126456
10.013245033112582,0.1728709490783606
10.033112582781456,0.1997277254978688
10.052980132450331,0.23354287712931998
10.072847682119205,0.27162455815901204
10.09271523178808,0.3122952462329358
10.112582781456952,0.354533771763931
10.132450331125828,0.3977020612413976
10.152317880794701,0.4413831788781301
10.172185430463577,0.4852906436425743
10.192052980132452,0.5292174812510201
10.211920529801324,0.5730068974239463
10.2317880794702,0.6165348717442408
10.251655629139073,0.6596994987050414
10.271523178807948,0.7024142645804059
10.29139072847682,0.744603690590767
10.311258278145695,0.7862004401982771
10.331125827814569,0.8271433568074246
10.350993377483444,0.8673761073469839
10.370860927152318,0.906846229299904
10.390728476821192,0.9455044518818194
10.410596026490065,0.9833042069605706
10.43046357615894,1.020201273496494
10.450331125827816,1.056153517358603
10.470198675496688,1.091120700190212
10.490066225165563,1.1250643388650305
10.509933774834437,1.1579476024008901
10.529801324503312,1.1897352368594976
10.549668874172186,1.220393511314472
10.56953642384106,1.2498901797749067
10.589403973509933,1.2781944552441071
10.609271523178808,1.305276993028748
10.629139072847682,1.3311098810992081
10.649006622516556,1.3556666358090408
