Time (s),Filtered Signal
0.0,0.06471540841748057
0.03337008452774715,0.6897458271893566
0.0667401690554943,1.2809345005290482
0.10011025358324147,1.8029008972860514
0.1334803381109886,2.2167877607966506
0.16685042263873576,2.483927450792968
0.20022050716648293,2.573639862591745
0.23359059169423008,2.472272680308817
0.2669606762219772,2.188849540569658
0.30033076074972437,1.7539859041007966
0.3337008452774715,1.2128906106334918
0.36707092980521866,0.6172902667031179
0.40044101433296586,0.021384672486640756
0.433811098860713,-0.5174043991634014
0.46718118338846015,-0.9378902884231881
0.5005512679162073,-1.1819100448261897
0.5339213524439544,-1.2112828340498563
0.5672914369717016,-1.0291817158146765
0.6006615214994487,-0.6931835844408617
0.6340316060271959,-0.30765250632980623
0.667401690554943,0.007644555094659604
0.7007717750826902,0.16202668152941346
0.7341418596104373,0.13067604046836212
0.7675119441381845,-0.03643004537675271
0.8008820286659317,-0.2406416584638018
0.8342521131936789,-0.38420962718231316
0.867622197721426,-0.41799743127145894
0.9009922822491732,-0.36221059262233674
0.9343623667769203,-0.2896673580877969
0.9677324513046675,-0.2818122830531022
1.0011025358324146,-0.38225730197454033
1.0344726203601617,-0.572880312034413
1.0678427048879089,-0.783893290559009
1.101212789415656,-0.9302342692304019
1.1345828739434032,-0.9530877956841469
1.1679529584711503,-0.8443254356571118
1.2013230429988975,-0.6426909733617296
1.2346931275266446,-0.40663744806726904
1.2680632120543918,-0.1808290423614985
1.301433296582139,0.024622138648820617
1.334803381109886,0.2314265583094527
1.3681734656376332,0.469787809581599
1.4015435501653803,0.7488983221932047
1.4349136346931275,1.0390658800210253
1.4682837192208746,1.2768767462313702
1.5016538037486218,1.392130804380665
1.535023888276369,1.3431165335182307
1.568393972804116,1.1416135653006956
1.6017640573318634,0.8536097963033079
1.6351341418596106,0.5737388009664657
1.6685042263873577,0.384672662950621
1.7018743109151049,0.3204375038953836
1.735244395442852,0.35111649047162635
1.7686144799705992,0.39657046569463117
1.8019845644983463,0.3634085241857373
1.8353546490260935,0.18868980485493694
1.8687247335538406,-0.12937650277043972
1.9020948180815878,-0.5276441641897007
1.935464902609335,-0.9028182456691356
1.968834987137082,-1.1534873055073616
2.002205071664829,-1.2204865196596215
2.0355751561925763,-1.1080919219060215
2.0689452407203235,-0.8780817357098297
2.1023153252480706,-0.6214429060761741
2.1356854097758178,-0.42205199384304315
2.169055494303565,-0.32853135382336957
2.202425578831312,-0.34445255371860106
2.235795663359059,-0.43708357301669093
2.2691657478868064,-0.5565536563092193
2.3025358324145535,-0.6545748389068433
2.3359059169423007,-0.6950716552357186
2.369276001470048,-0.6554711358140233
2.402646085997795,-0.5231188792465157
2.436016170525542,-0.29334313476153184
2.4693862550532892,0.026808041018137663
2.5027563395810364,0.41069904251825073
2.5361264241087835,0.8069207170014513
2.5694965086365307,1.1447886537133842
2.602866593164278,1.3537265245129912
2.636236677692025,1.3907917839469213
2.669606762219772,1.2628958527654377
2.7029768467475193,1.0296802981045166
2.7363469312752664,0.7816395241349292
2.7697170158030135,0.6018756837217752
2.8030871003307607,0.5304270671159902
2.836457184858508,0.5500404499844579
2.869827269386255,0.6005849210184265
2.903197353914002,0.6128344539907231
2.9365674384417493,0.5415514463374111
2.9699375229694964,0.3797500851264884
3.0033076074972436,0.14931507549265627
3.0366776920249907,-0.12127458863646604
3.070047776552738,-0.41404536026451166
3.103417861080485,-0.7210308925188832
3.136787945608232,-1.028109448501932
3.1701580301359793,-1.29797076696941
3.203528114663727,-1.4692612085669439
3.236898199191474,-1.4787099123004175
3.270268283719221,-1.2968185156389884
3.3036383682469683,-0.9561694203065882
3.3370084527747155,-0.5525191794564827
3.3703785373024626,-0.21271987884798674
3.4037486218302098,-0.04225577364763986
3.437118706357957,-0.07771246816680781
3.470488790885704,-0.268369745666512
3.503858875413451,-0.49693129886493875
3.5372289599411983,-0.6300672118007579
3.5705990444689455,-0.5751236554482613
3.6039691289966926,-0.316903294772868
3.63733921352444,0.0815409446293363
3.670709298052187,0.5127360197279056
3.704079382579934,0.875289201238127
3.7374494671076812,1.1152839793920226
3.7708195516354284,1.238001889681216
3.8041896361631755,1.2856628405547739
3.8375597206909227,1.296012471442135
3.87092980521867,1.2679024509167591
3.904299889746417,1.1563895619893438
3.937669974274164,0.9025638798352441
3.9710400588019112,0.481909459473247
4.004410143329658,-0.057859222181942616
4.0377802278574055,-0.5947802315012165
4.071150312385153,-0.9729245457646558
4.1045203969129,-1.068005394910638
4.137890481440647,-0.8463902326809027
4.171260565968394,-0.38735369119779306
4.204630650496141,0.14411149928536926
4.238000735023888,0.5626198202612113
4.2713708195516356,0.7361887255563577
4.304740904079383,0.634956286254001
4.33811098860713,0.3333935950233939
4.371481073134877,-0.03334868950934588
4.404851157662624,-0.336813460678997
4.438221242190371,-0.5133251581894118
4.471591326718118,-0.5847475720373427
4.504961411245866,-0.6325159731123745
4.538331495773613,-0.7392033965887888
4.57170158030136,-0.9290419732415193
4.605071664829107,-1.1405015852647542
4.638441749356854,-1.2483948569225556
4.671811833884601,-1.1270064503343826
4.7051819184123485,-0.7225950687361485
4.738552002940096,-0.09621936687380232
4.771922087467843,0.5884861826031382
4.80529217199559,1.1295450751782532
4.838662256523337,1.372068457275782
4.872032341051084,1.272692961298013
4.905402425578831,0.9123403584414989
4.9387725101065785,0.4540398749838929
4.972142594634326,0.06995026921550852
5.005512679162073,-0.12587985500162646
5.03888276368982,-0.11022521661372812
5.072252848217567,0.05878362147827356
5.105622932745314,0.2798615511085871
5.138993017273061,0.4523505528437385
5.1723631018008085,0.5069482709594834
5.205733186328556,0.4173757084015968
5.239103270856303,0.19797347050478462
5.27247335538405,-0.10472950561719387
5.305843439911797,-0.42249770385148216
5.339213524439544,-0.6790977115704883
5.372583608967291,-0.8089759899908319
5.4059536934950385,-0.7779569809089447
5.439323778022786,-0.5975920860718028
5.472693862550533,-0.3242626638504936
5.50606394707828,-0.04035901110576523
5.539434031606027,0.1757528479415452
5.572804116133774,0.2779265660186901
5.606174200661521,0.26636069650260685
5.6395442851892685,0.18256761724984696
5.672914369717016,0.08895495744587256
5.706284454244763,0.04258904564232195
5.73965453877251,0.07350267868147177
5.773024623300257,0.17478450533831774
5.806394707828004,0.3069140105773181
5.839764792355751,0.4140501041406249
5.873134876883499,0.4460749689359917
5.906504961411246,0.37797870640886805
5.939875045938993,0.21883380335135913
5.97324513046674,0.006766109988266468
6.006615214994487,-0.20727062963652185
6.039985299522234,-0.3786642886095608
6.073355384049981,-0.4819068250757688
6.106725468577729,-0.511918857872714
6.140095553105476,-0.47614742400657617
6.173465637633223,-0.3850818726706628
6.20683572216097,-0.24874282562343009
6.240205806688717,-0.08115429324669192
6.273575891216464,0.09224496840654023
6.3069459757442115,0.23276898046513572
6.340316060271959,0.29794061860645293
6.373686144799706,0.26036267473292607
6.407056229327454,0.12651422257583067
6.440426313855201,-0.05663712881372293
6.473796398382948,-0.21465361211740686
6.507166482910695,-0.27566254214498237
6.540536567438442,-0.2045421312973262
6.5739066519661895,-0.023823088946726845
6.607276736493937,0.19161946876146843
6.640646821021684,0.34665744597175974
6.674016905549431,0.37099664717366715
6.707386990077178,0.25495833506545523
6.740757074604925,0.05662364519449341
6.774127159132672,-0.12491636188301762
6.8074972436604195,-0.1974042147933112
6.840867328188167,-0.11981466996191284
6.874237412715914,0.07942496028475404
6.907607497243661,0.31855530323514314
6.940977581771408,0.5024150806890499
6.974347666299155,0.5638985728398778
7.007717750826902,0.4862693655220564
7.0410878353546495,0.29859257107162473
7.074457919882397,0.052147093347407754
7.107828004410144,-0.2054320780102019
7.141198088937891,-0.44367067835278023
7.174568173465638,-0.646216484296853
7.207938257993385,-0.7983568028317946
7.241308342521132,-0.877502205165413
7.27467842704888,-0.8557582974976571
7.308048511576627,-0.7146090497342196
7.341418596104374,-0.4627608680285558
7.374788680632121,-0.14481185865117807
7.408158765159868,0.16738062805068904
7.441528849687615,0.3993379965733674
7.4748989342153624,0.503964710271576
7.50826901874311,0.48225139277022155
7.541639103270857,0.3836413968500409
7.575009187798604,0.2845856325172519
7.608379272326351,0.2544470956772949
7.641749356854098,0.32418895397522207
7.675119441381845,0.4720057269226596
7.7084895259095925,0.6320215327235396
7.74185961043734,0.7216667132545324
7.775229694965087,0.6756349877715685
7.808599779492834,0.4726939633254561
7.841969864020581,0.14580756006682516
7.875339948548328,-0.22695333086021005
7.908710033076075,-0.5467680625884409
7.9420801176038225,-0.7256744818837664
7.97545020213157,-0.7158178022572824
8.008820286659317,-0.5271501323641549
8.042190371187063,-0.22692022282006566
8.075560455714811,0.08065588353358316
8.108930540242557,0.2891758898398967
8.142300624770305,0.3274836304468454
8.175670709298052,0.18552160457552117
8.2090407938258,-0.08191761188110004
8.242410878353546,-0.3753048605244178
8.275780962881294,-0.5864084415123085
8.30915104740904,-0.6363297622500355
8.342521131936788,-0.5018340159511232
8.375891216464534,-0.22175438833188754
8.409261300992283,0.11713628416734508
8.442631385520029,0.4088390314511835
8.476001470047777,0.5617545800601672
8.509371554575523,0.5269208347048788
8.542741639103271,0.3125534374487507
8.57611172363102,-0.019415176489175186
8.609481808158765,-0.3737759626291954
8.642851892686513,-0.6528905476866809
8.67622197721426,-0.7873260855312704
8.709592061742008,-0.7550910079735786
8.742962146269754,-0.5823455706802284
8.776332230797502,-0.32622045081062484
8.809702315325248,-0.048502832915510934
8.843072399852996,0.20690495764887332
8.876442484380743,0.4224096820965246
8.90981256890849,0.5989323606848297
8.943182653436237,0.7391060142852518
8.976552737963985,0.833539797133967
9.009922822491731,0.8596954707869706
9.04329290701948,0.7945766583672388
9.076662991547225,0.6333908909773363
9.110033076074973,0.40207655765574873
9.14340316060272,0.15457798942556522
9.176773245130468,-0.0458229269761824
9.210143329658214,-0.15276820477306002
9.243513414185962,-0.15760895984326365
9.276883498713708,-0.09372098018620768
9.310253583241456,-0.021182997123777175
9.343623667769203,0.001642035746274855
9.37699375229695,-0.05371229892985868
9.410363836824697,-0.1716260125841764
9.443733921352445,-0.2995622423763023
9.477104005880191,-0.3737152434192879
9.51047409040794,-0.35108970410761486
9.543844174935685,-0.23242071268308492
9.577214259463434,-0.06432849380355245
9.61058434399118,0.0810524046827124
9.643954428518928,0.13958802124765893
9.677324513046674,0.08547088282774692
9.710694597574422,-0.05693717204547263
9.744064682102168,-0.22607131950401732
9.777434766629916,-0.35469273513358335
9.810804851157663,-0.40407318019805827
9.84417493568541,-0.3833052472208839
9.877545020213157,-0.343494460414801
9.910915104740905,-0.3490482801516729
9.944285189268651,-0.4397347173667145
9.9776552737964,-0.6022023518480664
10.011025358324146,-0.765955642846768
10.044395442851894,-0.8279941615112459
10.07776552737964,-0.6971298047999869
10.111135611907388,-0.33919383805910064
10.144505696435134,0.19750263064304957
10.177875780962882,0.7897015908980527
10.211245865490628,1.2791431907916282
10.244615950018376,1.529967965032013
10.277986034546123,1.480192561636203
10.31135611907387,1.165524989035346
10.344726203601617,0.7051892707022828
10.378096288129365,0.2556410632838857
10.411466372657111,-0.04835611367995808
10.44483645718486,-0.14113740502397118
10.478206541712606,-0.04394992473024886
10.511576626240354,0.15149332607341318
10.5449467107681,0.32428633885815267
10.578316795295848,0.3723471535219611
10.611686879823594,0.24865274549277
10.645056964351342,-0.026229523170127906
10.678427048879088,-0.37720598211163575
10.711797133406836,-0.7058397130367902
10.745167217934583,-0.9265562943198586
10.77853730246233,-0.9943381765602192
10.811907386990077,-0.9147740159370503
10.845277471517825,-0.7346614527597007
10.878647556045571,-0.5187651852905325
10.91201764057332,-0.3230281796515284
10.945387725101066,-0.17494443833448736
10.978757809628814,-0.06813477836240221
11.01212789415656,0.027872382115192162
11.045497978684308,0.1477344849663324
11.078868063212054,0.3093336797796555
11.112238147739802,0.501274971138862
11.145608232267548,0.6848152087745076
11.178978316795297,0.8096970507978409
11.212348401323043,0.8365502856774153
11.24571848585079,0.7548317025076169
11.279088570378537,0.5871280339785094
11.312458654906285,0.3776599753444799
11.345828739434031,0.17142840080623478
11.37919882396178,-0.004368857017817679
11.412568908489526,-0.14659683112400898
11.445938993017274,-0.26768911974503945
11.47930907754502,-0.37902086392681367
11.512679162072768,-0.4776036411921902
11.546049246600514,-0.5451505358433177
11.579419331128262,-0.5604371984358266
11.612789415656009,-0.517067238348674
11.646159500183757,-0.4346155464151099
11.679529584711503,-0.3542561289526218
11.71289966923925,-0.31879927511728995
11.746269753766997,-0.34675344807148567
11.779639838294745,-0.4151112056964321
11.813009922822491,-0.4627623085781963
11.84638000735024,-0.4165284998973926
11.879750091877986,-0.22949125100591738
11.913120176405734,0.08698715504304051
11.94649026093348,0.455441273434741
11.979860345461228,0.7562996478341713
12.013230429988974,0.8759433752846572
12.046600514516722,0.7581175855304736
12.079970599044469,0.43434182375358005
12.113340683572217,0.017211484928455374
12.146710768099963,-0.3427029196674461
12.180080852627711,-0.5181617212195828
12.213450937155457,-0.45709289083152255
12.246821021683205,-0.20092220324655827
12.280191106210951,0.13913391413194318
12.3135611907387,0.4362205065384499
12.346931275266446,0.6059819112716047
12.380301359794194,0.6402330567085169
12.41367144432194,0.5999832820218594
12.447041528849688,0.5723164060765712
12.480411613377434,0.6143039555146432
12.513781697905182,0.714043277363967
12.547151782432929,0.7902229805671512
12.580521866960677,0.7316522867359331
12.613891951488423,0.4573031310720239
12.647262036016171,-0.03350817303581889
12.680632120543917,-0.6465244341095335
12.714002205071665,-1.2216679343074033
12.747372289599411,-1.5928000709504286
12.78074237412716,-1.6510723026796308
12.814112458654908,-1.3845723156606942
12.847482543182654,-0.8793723817831349
12.880852627710402,-0.2848216497280987
12.914222712238148,0.23992205963066998
12.947592796765896,0.5762448227291685
12.980962881293642,0.676153898104677
13.01433296582139,0.5652880172880517
13.047703050349137,0.32273483444009066
13.081073134876885,0.04840102616857701
13.114443219404631,-0.1697374283978106
13.147813303932379,-0.27892376320515666
13.181183388460125,-0.2706880241340872
13.214553472987873,-0.17570433386140252
13.24792355751562,-0.04803085843808819
13.281293642043368,0.05551968699885593
13.314663726571114,0.0943833438771313
13.348033811098862,0.05588904330034684
13.381403895626608,-0.04384855443843987
13.414773980154356,-0.1695645007570968
13.448144064682102,-0.28275961494235274
13.48151414920985,-0.35668606718561674
13.514884233737597,-0.38307254438635907
13.548254318265345,-0.367050012028535
13.581624402793091,-0.3133869319713925
13.614994487320839,-0.21314089615709444
13.648364571848585,-0.04101256235983976
13.681734656376333,0.23173985599377456
13.71510474090408,0.6135094752530121
13.748474825431828,1.070337920557945
13.781844909959574,1.5195731591151502
13.815214994487322,1.8463358600395434
13.848585079015068,1.9389438325003907
13.881955163542816,1.7300579330596269
13.915325248070562,1.2269577142822958
13.94869533259831,0.5180055012118082
13.982065417126057,-0.24894383576338952
14.015435501653805,-0.9100060038726592
14.048805586181551,-1.335847284928321
14.082175670709299,-1.4710981432516024
14.115545755237045,-1.3477391478392498
14.148915839764793,-1.0673411503970958
14.18228592429254,-0.7594507136066626
14.215656008820288,-0.5330391094890489
14.249026093348034,-0.4402423565467563
14.282396177875782,-0.4655586942791369
14.315766262403528,-0.5423339455340607
14.349136346931276,-0.5872287573295549
14.382506431459023,-0.5372769203907904
14.41587651598677,-0.37502895865697417
14.449246600514517,-0.13367877144586526
14.482616685042265,0.11752195741641962
14.515986769570011,0.3004081710801041
14.54935685409776,0.3572158226375999
14.582726938625505,0.2722160369258105
14.616097023153253,0.07905192344919529
14.649467107681,-0.14828555758797252
14.682837192208748,-0.3181669948817812
14.716207276736494,-0.35102758128312994
14.749577361264242,-0.20695427775002476
14.782947445791988,0.09796014510456372
14.816317530319736,0.4927794178397353
14.849687614847483,0.8713692225804134
14.88305769937523,1.1250910222758934
14.916427783902977,1.1778915748060368
14.949797868430725,1.0114599807087377
14.983167952958471,0.6711980943535225
15.01653803748622,0.25066571268869603
15.049908122013965,-0.13990088599923392
15.083278206541713,-0.4097076085379429
15.11664829106946,-0.515447382191758
15.150018375597208,-0.4715201366750463
15.183388460124954,-0.3387942487951309
15.216758544652702,-0.19583865009372564
15.250128629180448,-0.10355049354205453
15.283498713708196,-0.07798995167510955
15.316868798235943,-0.08443363506007256
15.35023888276369,-0.05727702995679996
15.383608967291437,0.06195159569177999
15.416979051819185,0.2865951306536214
15.450349136346931,0.5670574080319306
15.48371922087468,0.8045323406559654
15.517089305402425,0.8917960548216621
15.550459389930174,0.7622356879829064
15.58382947445792,0.4234898149809722
15.617199558985668,-0.04052839905244644
15.650569643513414,-0.5001100425781893
15.683939728041162,-0.8286069247215212
15.717309812568908,-0.9482432042142697
15.750679897096656,-0.8545548619881299
15.784049981624403,-0.6119166976700948
15.81742006615215,-0.32517671601923503
15.850790150679897,-0.10096869736437203
15.884160235207645,-0.013861150243002256
15.917530319735391,-0.08784615783431332
15.95090040426314,-0.29606759437448465
15.984270488790886,-0.5748974242380783
16.017640573318634,-0.8449534740546624
16.05101065784638,-1.0318679733927392
16.084380742374126,-1.0822751088033982
16.117750826901876,-0.9734448206754011
16.151120911429622,-0.7165135375144028
16.18449099595737,-0.3531540975882667
16.217861080485115,0.054736270398647334
16.251231165012864,0.4413527418804109
16.28460124954061,0.755095577598039
16.317971334068357,0.9714765395111739
16.351341418596103,1.0945917324219605
16.384711503123853,1.1462826218857893
16.4180815876516,1.1492428419093423
16.451451672179346,1.114248388405646
16.484821756707092,1.0390616552574157
16.51819184123484,0.918680280689375
16.551561925762588,0.7587607625444907
16.584932010290334,0.5817070802652828
16.61830209481808,0.4197624989874361
16.65167217934583,0.2982984663452757
16.685042263873576,0.21959040621318263
16.718412348401323,0.15810437041536346
16.75178243292907,0.07202624369231325
16.78515251745682,-0.07393310973484285
16.818522601984565,-0.28671092873261506
16.85189268651231,-0.5365601233040066
16.885262771040058,-0.7674584123221595
16.918632855567807,-0.9209291800621633
16.952002940095554,-0.9605860505778678
16.9853730246233,-0.8851230338730809
17.018743109151046,-0.724992942701046
17.052113193678796,-0.5272623401730784
17.085483278206542,-0.33808500933280483
17.11885336273429,-0.19069495185304408
17.15222344726204,-0.10145142215891044
17.185593531789785,-0.0718528494306664
17.21896361631753,-0.09313284758405739
17.252333700845277,-0.15122142730518767
17.285703785373027,-0.231092088297241
17.319073869900773,-0.31954128621459676
17.35244395442852,-0.40506927693489625
