Frequency (Hz),Amplitude
0.0,1.334702528569488
0.04,1.3353009417664867
0.08,1.3370922059760146
0.12,1.3400644575480951
0.16,1.3441981296496819
0.19999999999999998,1.3494662529177366
0.24,1.35583486052253
0.27999999999999997,1.3632634831089585
0.32,1.371705716654972
0.36,1.3811098448965713
0.39999999999999997,1.3914194976142953
0.44,1.4025743266688622
0.48,1.4145106830595353
0.52,1.4271622802642063
0.5599999999999999,1.4404608314952079
0.6,1.4543366510672209
0.64,1.4687192126441766
0.6799999999999999,1.4835376595668521
0.72,1.4987212646568295
0.76,1.514199838779829
0.7999999999999999,1.529904089000798
0.84,1.5457659283720246
0.88,1.5617187402825226
0.9199999999999999,1.5776976008950745
0.96,1.5936394635475923
1.0,1.6094833091419805
1.04,1.625170266529753
1.0799999999999998,1.640643706769402
1.1199999999999999,1.6558493149109494
1.1600000000000001,1.670735142688303
1.2,1.685251645193756
1.24,1.6993517042904396
1.28,1.7129906412017744
1.3199999999999998,1.726126220412138
1.3599999999999999,1.7387186467270794
1.4,1.7507305570784335
1.44,1.762127008421979
1.48,1.7728754628633197
1.52,1.7829457709610954
1.5599999999999998,1.792310153994034
1.5999999999999999,1.8009431858383136
1.64,1.8088217749819033
1.68,1.8159251471012607
1.72,1.8222348285405332
1.76,1.8277346309624798
1.7999999999999998,1.832410637381579
1.8399999999999999,1.8362511897415368
1.88,1.8392468781598286
1.92,1.8413905319297839
1.9599999999999997,1.8426772123441688
2.0,1.8431042073825488
2.0399999999999996,1.8426710282861853
2.08,1.8413794080281505
2.12,1.8392333016713631
2.1599999999999997,1.8362388885926415
2.2,1.8324045765352992
2.2399999999999998,1.8277410074355758
2.28,1.8222610649479845
2.3200000000000003,1.8159798835705534
2.36,1.8089148592416389
2.4,1.8010856612443458
2.44,1.792514245211021
2.48,1.7832248669676944
2.5199999999999996,1.77324409689463
2.56,1.7626008344031039
2.6,1.7513263220380206
2.6399999999999997,1.7394541586093653
2.68,1.7270203106308684
2.7199999999999998,1.7140631211999764
2.76,1.7006233152877326
2.8,1.6867440002194738
2.84,1.6724706599167949
2.88,1.657851141238624
2.92,1.6429356305060658
2.96,1.6277766180255238
2.9999999999999996,1.612428848143021
3.04,1.5969492520781097
3.08,1.5813968605099669
3.1199999999999997,1.565832692637037
3.16,1.5503196182247996
3.1999999999999997,1.5349221890190594
3.2399999999999998,1.5197064358637227
3.28,1.5047396279567622
3.32,1.490089990942415
3.36,1.4758263810105487
3.4,1.4620179128917739
3.44,1.4487335406308504
3.4799999999999995,1.4360415913115878
3.52,1.424009253498221
3.5599999999999996,1.4127020240332744
3.5999999999999996,1.4021831189438303
3.64,1.3925128564789324
3.6799999999999997,1.3837480226179368
3.7199999999999998,1.375941231609258
3.76,1.3691402960519907
3.7999999999999994,1.3633876225378663
3.84,1.3587196497506355
3.88,1.3551663460215673
3.9199999999999995,1.352750782556889
3.96,1.3514887968441331
4.0,1.3513887581467425
4.04,1.352451443630036
4.079999999999999,1.3546700297234868
4.12,1.3580301990710058
4.16,1.3625103591429009
4.199999999999999,1.3680819645733027
4.24,1.3747099318098872
4.28,1.3823531319264355
4.319999999999999,1.390964945587553
4.36,1.4004938632192168
4.4,1.4108841134000403
4.4399999999999995,1.4220763032493389
4.4799999999999995,1.4340080560026256
4.5200000000000005,1.4466146328586342
4.56,1.459829528371634
4.6,1.4735850309770955
4.640000000000001,1.487812742528205
4.68,1.5024440528678045
4.72,1.5174105673806249
4.76,1.5326444871132947
4.8,1.5480789423918244
4.84,1.563648281909377
4.88,1.5792883200194434
4.92,1.5949365454808384
4.96,1.6105322951972707
5.0,1.6260168966141857
5.039999999999999,1.6413337824164034
5.08,1.6564285810463693
5.12,1.6712491863650465
5.159999999999999,1.6857458095312021
5.2,1.6998710159009234
5.24,1.713579749464324
5.279999999999999,1.7268293470524176
5.319999999999999,1.7395795442737945
5.36,1.751792474883008
5.3999999999999995,1.763432665045537
5.4399999999999995,1.7744670237485223
5.48,1.7848648304138766
5.52,1.7945977205998123
5.56,1.8036396705276918
5.6,1.811966981041731
5.64,1.8195582614979557
5.68,1.8263944139838237
5.72,1.8324586181895632
5.76,1.8377363171844965
5.8,1.8422152042946687
5.84,1.8458852112304729
5.879999999999999,1.848738497573177
5.92,1.8507694416955345
5.96,1.8519746331632894
5.999999999999999,1.8523528666395737
6.04,1.8519051372922308
6.08,1.8506346376837106
6.119999999999999,1.8485467561034095
6.16,1.8456490762821613
6.2,1.8419513784072066
6.239999999999999,1.8374656413320103
6.279999999999999,1.832206045848345
6.32,1.8261889788564873
6.359999999999999,1.8194330382325685
6.3999999999999995,1.8119590381487634
6.44,1.8037900145509331
6.4799999999999995,1.7949512304384694
6.52,1.7854701805211064
6.56,1.775376594746277
6.6,1.7647024400968212
6.64,1.7534819199517768
6.68,1.7417514701814103
6.72,1.729549751011299
6.76,1.7169176335388299
6.8,1.7038981796196733
6.84,1.6905366136627809
6.88,1.6768802846828936
6.92,1.6629786167631657
6.959999999999999,1.6488830458829429
7.0,1.6346469408746396
7.04,1.6203255060989623
7.08,1.605975663282303
7.119999999999999,1.591655909859222
7.16,1.5774261511253655
7.199999999999999,1.563347503552598
7.239999999999999,1.549482066772091
7.28,1.5358926620168052
7.32,1.5226425352560444
7.359999999999999,1.5097950238735287
7.3999999999999995,1.4974131865525233
7.4399999999999995,1.485559397045995
7.4799999999999995,1.4742949037223851
7.52,1.4636793581703857
7.5600000000000005,1.4537703176817225
7.599999999999999,1.4446227280532091
7.64,1.4362883947797682
7.68,1.4288154522536887
7.719999999999999,1.422247841931238
7.76,1.4166248114600986
7.800000000000001,1.41198044736656
7.839999999999999,1.4083432539835028
7.88,1.405735790789215
7.92,1.4041743791933128
7.959999999999999,1.4036688880665482
8.0,1.4042226050340014
8.040000000000001,1.4058321978516861
8.08,1.408487767220745
8.12,1.4121729893420334
8.159999999999998,1.4168653435668788
8.2,1.4225364178364006
8.24,1.429152282374371
8.28,1.4366739204184562
8.32,1.4450577037050565
8.36,1.4542558999758533
8.399999999999999,1.464217199915539
8.44,1.4748872515873876
8.48,1.4862091915069187
8.52,1.4981241628701334
8.56,1.5105718130152141
8.6,1.523490763835822
8.639999999999999,1.536819050485956
8.68,1.5504945252446414
8.72,1.5644552247888077
8.76,1.5786397003193984
8.8,1.5929873109822152
8.84,1.607438481818971
8.879999999999999,1.6219349280849449
8.92,1.6364198481944523
8.959999999999999,1.6508380878263198
9.0,1.6651362778625458
9.040000000000001,1.6792629488690682
9.079999999999998,1.693168624780746
9.12,1.7068058983446468
9.16,1.7201294907243445
9.2,1.7330962974886355
9.24,1.745665423013469
9.280000000000001,1.7577982051253782
9.32,1.7694582316160739
9.36,1.7806113500663747
9.399999999999999,1.7912256722368838
9.44,1.8012715741153482
9.48,1.8107216925574732
9.52,1.8195509193196722
9.559999999999999,1.8277363931585795
9.6,1.8352574905625283
9.639999999999999,1.8420958155836382
9.68,1.848235189154628
9.72,1.8536616382008058
9.76,1.8583633847933902
9.8,1.8623308355345773
9.84,1.865556571315873
9.879999999999999,1.8680353375484104
9.92,1.869764034925904
9.959999999999999,1.8707417107465083
10.0,1.8709695507883484
10.04,1.8704508717036024
10.079999999999998,1.8691911138671873
10.12,1.8671978345871763
10.16,1.864480701554369
10.2,1.861051486377213
10.24,1.856924058014585
10.280000000000001,1.852114375882176
10.319999999999999,1.8466404823676776
10.36,1.84052249444487
10.4,1.8337825940264956
10.44,1.8264450166399753
10.48,1.8185360379479798
10.52,1.8100839575674688
10.559999999999999,1.8011190795657481
10.6,1.7916736889305727
10.639999999999999,1.7817820232237487
10.68,1.7714802385348423
10.72,1.7608063687547117
10.76,1.7498002770897119
10.799999999999999,1.7385035986390225
10.84,1.726959672763127
10.879999999999999,1.7152134638853906
10.92,1.703311469296426
10.96,1.6913016124788802
11.0,1.6792331204463398
11.04,1.6671563836026126
11.08,1.6551227966866258
11.12,1.6431845794835915
11.16,1.631394576165529
11.2,1.6198060323833479
11.24,1.6084723495776354
11.28,1.597446816411983
11.319999999999999,1.5867823177646307
11.36,1.576531022339583
11.4,1.5667440506696768
11.44,1.5574711260672351
11.48,1.5487602119103425
11.52,1.5406571395044533
11.559999999999999,1.533205231591981
11.6,1.5264449273519571
11.64,1.5204134153893256
11.68,1.515144281708188
11.72,1.5106671799479692
11.759999999999998,1.507007531194766
11.799999999999999,1.50418626043245
11.84,1.5022195761548185
11.879999999999999,1.5011187988250798
11.92,1.500890242765663
11.96,1.5015351547328424
11.999999999999998,1.5030497109374723
12.04,1.5054250726881646
12.08,1.5086474992379868
12.12,1.5126985148910825
12.16,1.5175551260484155
12.200000000000001,1.523190082705748
12.239999999999998,1.5295721780105804
12.28,1.5366665788667213
12.32,1.544435180254641
12.36,1.552836975902651
12.4,1.5618284381723369
12.44,1.5713639004726336
12.479999999999999,1.5813959361440681
12.52,1.5918757285076564
12.559999999999999,1.6027534276016289
12.6,1.6139784899876588
12.64,1.6254999988562817
12.68,1.6372669624659686
12.719999999999999,1.6492285896877756
12.76,1.6613345420807428
12.799999999999999,1.6735351624830923
12.84,1.6857816805679835
12.88,1.6980263961818745
12.92,1.7102228415642498
12.959999999999999,1.7223259237479533
12.999999999999998,1.7342920485693847
13.04,1.746079227787825
13.08,1.7576471708335981
13.12,1.768957362685705
13.16,1.7799731293295933
13.2,1.7906596921736297
13.239999999999998,1.8009842127145577
13.28,1.8109158286443656
13.32,1.8204256824876495
13.36,1.8294869437537125
13.4,1.8380748254839476
13.44,1.8461665959747606
13.479999999999999,1.8537415863605438
13.52,1.8607811946512534
13.559999999999999,1.867268886735211
13.6,1.8731901947800602
13.64,1.8785327133933811
13.68,1.883286093838895
13.719999999999999,1.8874420365440947
13.76,1.8909942820800536
13.799999999999999,1.8939386007435854
13.84,1.8962727808250577
13.88,1.8979966156016888
13.919999999999998,1.899111889055404
13.959999999999999,1.8996223602755082
14.0,1.899533746469559
14.04,1.8988537044697884
14.08,1.8975918105873664
14.120000000000001,1.8957595386319812
14.16,1.893370235879562
14.2,1.8904390967361828
14.239999999999998,1.8869831338111807
14.28,1.883021146077376
14.32,1.8785736837608855
14.36,1.873663009567975
14.399999999999999,1.8683130558217869
14.44,1.862549377048365
14.479999999999999,1.8563990975200468
14.52,1.8498908532357063
14.56,1.8430547277931475
14.6,1.8359221815902145
14.64,1.828525973780041
14.68,1.8209000764038383
14.719999999999999,1.8130795801343194
14.76,1.8051005910862843
14.799999999999999,1.7970001181908122
14.84,1.7888159506883605
14.879999999999999,1.780586525376261
14.919999999999998,1.7723507833502994
14.959999999999999,1.7641480161096648
15.0,1.7560177010515634
15.04,1.7479993265664038
15.079999999999998,1.7401322071565382
15.120000000000001,1.7324552892394873
15.159999999999998,1.7250069485574178
15.199999999999998,1.7178247803935631
15.24,1.7109453840873357
15.28,1.70440414363459
15.319999999999999,1.6982350064483533
15.36,1.6924702626272852
15.399999999999999,1.6871403273215737
15.439999999999998,1.6822735289867592
15.48,1.6778959064618804
15.52,1.6740310178880895
15.559999999999999,1.6706997644873234
15.600000000000001,1.6679202321401643
15.639999999999999,1.665707553533641
15.679999999999998,1.66407379339312
15.72,1.663027858971262
15.76,1.6625754375500532
15.799999999999999,1.6627189622310883
15.84,1.663457606761017
15.879999999999999,1.664787309581938
15.919999999999998,1.6667008267312247
15.96,1.6691878126626745
16.0,1.6722349275415045
16.04,1.6758259690977724
16.080000000000002,1.679942026721745
16.12,1.684561655162403
16.16,1.6896610649538537
16.200000000000003,1.6952143265472752
16.24,1.7011935850668134
16.279999999999998,1.7075692826317008
16.319999999999997,1.7143103852856767
16.36,1.721384611737841
16.4,1.7287586613344545
16.439999999999998,1.736398438936064
16.48,1.7442692746553594
16.52,1.7523361367070136
16.56,1.7605638359194178
16.6,1.7689172207509058
16.64,1.777361361931417
16.68,1.7858617261088388
16.72,1.794384338112899
16.759999999999998,1.8028959316559505
16.799999999999997,1.8113640884677316
16.84,1.819757366010393
16.88,1.8280454140412428
16.919999999999998,1.836199080385702
16.96,1.8441905063537816
17.0,1.8519932122823513
17.04,1.859582173715494
17.080000000000002,1.866933888748443
17.12,1.874026437060097
17.16,1.8808395311467538
17.2,1.8873545602482573
17.24,1.8935546274286321
17.279999999999998,1.8994245802388818
17.32,1.9049510353507495
17.36,1.9101223975089745
17.4,1.9149288731061862
17.44,1.9193624786406855
17.48,1.9234170442732368
17.52,1.9270882126554008
17.56,1.9303734331594082
17.6,1.9332719515984265
17.64,1.9357847954866545
17.68,1.937914754851436
17.72,1.9396663585744756
17.759999999999998,1.9410458462069886
17.799999999999997,1.942061135174058
17.84,1.942721783257275
17.88,1.943038946222026
17.919999999999998,1.9430253304371001
17.96,1.9426951403199226
18.0,1.94206402043146
18.04,1.9411489920406626
18.080000000000002,1.9399683839806494
18.12,1.9385417576273805
18.159999999999997,1.9368898258477405
18.2,1.9350343657877866
18.24,1.9329981254045436
18.279999999999998,1.9308047236861563
18.32,1.9284785445563037
18.36,1.9260446245195915
18.4,1.9235285341753865
18.44,1.920956253807896
18.48,1.9183540433502355
18.52,1.9157483071183719
18.560000000000002,1.91316545381673
18.6,1.9106317524286869
18.64,1.9081731847208943
18.679999999999996,1.9058152952071883
18.72,1.9035830395337685
18.759999999999998,1.9015006323584915
18.799999999999997,1.8995913959006683
18.84,1.8978776104295902
18.88,1.8963803680367646
18.919999999999998,1.895119431094727
18.96,1.8941130968410123
19.0,1.8933780695364533
19.04,1.8929293416300883
19.080000000000002,1.8927800853169068
19.119999999999997,1.8929415557989853
19.159999999999997,1.893423007455073
19.2,1.8942316239903838
19.24,1.895372463478908
19.279999999999998,1.8968484190289303
19.32,1.8986601956027065
19.36,1.9008063033084432
19.4,1.9032830672625047
19.44,1.906084653898085
19.48,1.9092031133791545
19.52,1.912628437571374
19.560000000000002,1.9163486328298283
19.6,1.9203498066916938
19.639999999999997,1.924616267413943
19.68,1.9291306351747775
19.72,1.9338739636644637
19.759999999999998,1.9388258707270691
19.8,1.9439646766794887
19.84,1.9492675489262887
19.88,1.9547106515067765
19.919999999999998,1.9602692982514216
19.96,1.965918108285243
20.0,1.971631162692739
20.04,1.977382161248531
20.08,1.983144578216943
20.119999999999997,1.9888918163284433
20.159999999999997,1.99459735814827
20.2,2.0002349141597056
20.24,2.005778566988827
20.279999999999998,2.011202911297063
20.32,2.0164831889607133
20.36,2.0215954192415735
20.4,2.0265165237288203
20.44,2.0312244458987903
20.48,2.035698265195916
20.52,2.0399183055846266
20.560000000000002,2.043866238558735
20.599999999999998,2.0475251806217534
20.639999999999997,2.050879785269291
20.68,2.053916329513349
20.72,2.0566227949885945
20.759999999999998,2.058988943673087
20.8,2.061006388240617
20.84,2.062668657039811
20.88,2.0639712536663617
20.92,2.064911711060052
20.96,2.0654896400178373
21.0,2.0657067719687383
21.04,2.0655669958059693
21.08,2.06507638851739
21.119999999999997,2.0642432392971757
21.159999999999997,2.063078066760699
21.2,2.0615936288214143
21.24,2.0598049247243093
21.279999999999998,2.05772918866618
21.32,2.0553858743702613
21.36,2.0527966299231366
21.4,2.0499852621275307
21.44,2.046977689577869
21.48,2.0438018836291456
21.52,2.040487796406827
21.56,2.037067274999565
21.599999999999998,2.0335739609913226
21.639999999999997,2.0300431745288976
21.68,2.026511782188853
21.72,2.023018048008551
21.759999999999998,2.0196014671828477
21.8,2.0163025821042413
21.84,2.0131627806420256
21.88,2.0102240768164483
21.92,2.0075288743263515
21.96,2.0051197137310615
22.0,2.0030390044646356
22.04,2.001328743266174
22.08,2.000030221033869
22.119999999999997,1.9991837205408824
22.16,1.9988282078733064
22.2,1.9990010208478417
22.24,1.9997375580216883
22.28,2.001070972200876
22.32,2.003031872568139
22.36,2.005648039671155
22.4,2.0089441575230578
22.44,2.012941566960354
22.48,2.017658044174152
22.519999999999996,2.0231076079802373
22.56,2.029300358929405
22.599999999999998,2.036242352794729
22.639999999999997,2.043935510326081
22.68,2.0523775644571036
22.72,2.0615620454128942
22.759999999999998,2.071478303425455
22.8,2.0821115680467828
22.84,2.09344304238233
22.88,2.105450029973457
22.92,2.118106091554731
22.96,2.1313812285138214
23.0,2.145242089595526
23.04,2.1596521972189495
23.08,2.1745721897145374
23.119999999999997,2.189960075827412
23.16,2.2057714979635414
23.2,2.221960000861617
23.24,2.23847730264027
23.28,2.255273565481379
23.32,2.2722976635500673
23.36,2.289497446105833
23.400000000000002,2.306819994114602
23.44,2.3242118690170543
23.479999999999997,2.341619352636064
23.519999999999996,2.358988677508748
23.56,2.3762662472020746
23.599999999999998,2.3933988464126954
23.639999999999997,2.41033384086031
23.68,2.427019367160221
23.72,2.4434045130055932
23.759999999999998,2.4594394881056365
23.8,2.4750757864150206
23.84,2.490266340254994
23.88,2.5049656669710165
23.92,2.5191300087980832
23.96,2.5327174666160515
23.999999999999996,2.5456881282758106
24.04,2.5580041921653613
24.08,2.5696300866645267
24.119999999999997,2.580532586110228
24.16,2.5906809238617683
24.2,2.600046903018903
24.24,2.60860500530497
24.28,2.6163324985835597
24.32,2.6232095434301153
24.36,2.6292192991294643
24.400000000000002,2.634348029415816
24.439999999999998,2.6385852082128087
24.479999999999997,2.6419236255666303
24.52,2.644359493893739
24.56,2.645892554585074
24.599999999999998,2.646526184918741
24.64,2.646267505131387
24.68,2.6451274853824738
24.72,2.643121052212933
24.759999999999998,2.6402671939478797
24.8,2.6365890643194567
24.84,2.6321140833875547
24.88,2.626874034610936
24.92,2.6209051566664305
24.959999999999997,2.61424822832771
24.999999999999996,2.606948644396611
25.04,2.5990564803287115
25.08,2.5906265428128807
25.119999999999997,2.581718403154718
25.16,2.572396409882905
25.2,2.5627296765545697
25.24,2.552792040294469
25.28,2.542661986181148
25.32,2.532422532214994
25.36,2.5221610692972787
25.4,2.5119691504514603
25.439999999999998,2.5019422234690594
25.479999999999997,2.492179301308276
25.52,2.482782564962814
25.56,2.473856894200562
25.599999999999998,2.4655093225920637
25.64,2.457848414644515
25.68,2.450983564650199
25.72,2.445024219050399
25.76,2.440079026679513
25.8,2.4362549241285225
25.84,2.4336561665529106
25.880000000000003,2.432383317409125
25.919999999999998,2.432532213661699
25.959999999999997,2.4341929257577686
25.999999999999996,2.4374487339013133
26.04,2.442375143663588
26.08,2.4490389645537403
26.119999999999997,2.4574974747064817
26.16,2.4677976932543446
26.2,2.479975779255216
26.24,2.4940565723475303
26.28,2.51005328579702
26.32,2.527967357543402
26.36,2.547788459563849
26.4,2.569494660670419
26.439999999999998,2.593052733065293
26.479999999999997,2.6184185888605467
26.52,2.645537829531352
26.56,2.67434638903513
26.599999999999998,2.7047712501313073
26.64,2.736731213235351
26.68,2.7701376978296652
26.72,2.804895557878102
26.76,2.8409038946703484
26.8,2.878056852868136
26.84,2.9162443880588893
26.88,2.9553529966859546
26.919999999999998,2.9952664016889106
26.959999999999997,3.0358661894565047
27.0,3.077032395703244
27.04,3.1186440395927866
27.08,3.1605796068360252
27.119999999999997,3.2027174835959977
27.16,3.24493634385755
27.2,3.287115493496639
27.24,3.3291351746474644
27.28,3.3708768341514017
27.32,3.4122233599150285
27.36,3.453059288938172
27.4,3.4932709906256063
27.439999999999998,3.5327468287924813
27.479999999999997,3.5713773055348144
27.52,3.6090551898785543
27.56,3.6456756338574077
27.599999999999998,3.6811362784105084
27.64,3.715337351243452
27.68,3.748181758565334
27.72,3.779575172403607
27.76,3.80942611500976
27.8,3.837646041703058
27.839999999999996,3.864149423357238
27.88,3.888853829615544
27.919999999999998,3.91168001382289
27.959999999999997,3.932552000588946
28.0,3.9513971768422183
28.04,3.968146387202155
28.08,3.9827340344830384
28.12,3.9950981861501345
28.16,4.005180687574763
28.2,4.012927282981036
