Time (s),Filtered Signal
0.0,-0.024910252970280766
0.03337000366703337,0.34115079608689153
0.06674000733406674,0.7087315563068856
0.1001100110011001,1.0717771608854192
0.13348001466813347,1.4124621661529746
0.16685001833516683,1.7020997676633134
0.2002200220022002,1.9067121719490172
0.2335900256692336,1.994869263938065
0.26696002933626695,1.944865049918467
0.3003300330033003,1.7494498261096283
0.33370003667033366,1.4182131729653658
0.36707004033736707,0.9787385660225544
0.4004400440044004,0.4769108812504472
0.4338100476714338,-0.02511849814710077
0.4671800513384672,-0.45600015871707755
0.5005500550055005,-0.748851134480772
0.5339200586725339,-0.8595248382973427
0.5672900623395672,-0.7833497647323933
0.6006600660066006,-0.562266694852364
0.634030069673634,-0.276551476303232
0.6674000733406673,-0.021410704470692276
0.7007700770077008,0.12409136265614744
0.7341400806747341,0.12379752787397279
0.7675100843417675,-0.004341694760350885
0.8008800880088008,-0.19788129261465007
0.8342500916758342,-0.376817946086755
0.8676200953428675,-0.47682795211459916
0.9009900990099009,-0.4749348790830991
0.9343601026769344,-0.39687039255712164
0.9677301063439677,-0.3030676971124713
1.001100110011001,-0.25910593137941096
1.0344701136780343,-0.3029451138006876
1.0678401173450678,-0.42304703441534214
1.1012101210121013,-0.5577574784080781
1.1345801246791345,-0.6181437657610502
1.167950128346168,-0.5265058454015962
1.2013201320132012,-0.2549443877347765
1.2346901356802347,0.1533960183911677
1.268060139347268,0.5916632222640442
1.3014301430143014,0.9244134369953568
1.3348001466813346,1.0371549452571756
1.368170150348368,0.8801194798820161
1.4015401540154016,0.48837437268430844
1.4349101576824348,-0.029384107452275238
1.4682801613494683,-0.5279778983021345
1.5016501650165015,-0.8736445893954717
1.535020168683535,-0.9848110655972087
1.5683901723505682,-0.8525141670484032
1.6017601760176017,-0.5361786689740966
1.6351301796846351,-0.13938016636998632
1.6685001833516684,0.22423757629538593
1.7018701870187019,0.463648867753946
1.735240190685735,0.532936269969102
1.7686101943527686,0.43893417581950683
1.8019801980198018,0.23369244068744421
1.8353502016868353,-0.004937815742316821
1.8687202053538687,-0.19865830864917974
1.902090209020902,-0.2925969500479303
1.9354602126879354,-0.2702968698408987
1.9688302163549687,-0.1545518440447415
2.002200220022002,0.006589297679051215
2.0355702236890356,0.16321554464457114
2.0689402273560686,0.28594160972883487
2.102310231023102,0.37633705771218756
2.1356802346901356,0.45982241160112336
2.169050238357169,0.564687977567809
2.2024202420242025,0.698878009186454
2.2357902456912355,0.8379140590154328
2.269160249358269,0.9313611057219956
2.3025302530253025,0.9248915237773171
2.335900256692336,0.7863268768873681
2.369270260359369,0.5220192043776962
2.4026402640264024,0.1755297879296369
2.436010267693436,-0.18966856325988993
2.4693802713604693,-0.5134838135599155
2.502750275027503,-0.7564001341131195
2.536120278694536,-0.9034650006918044
2.5694902823615693,-0.9566902940751332
2.6028602860286028,-0.9243195347881055
2.636230289695636,-0.8159478639719336
2.6696002933626692,-0.6465851293045839
2.7029702970297027,-0.44472832829518755
2.736340300696736,-0.25515218801453204
2.7697103043637696,-0.12970839655838184
2.803080308030803,-0.10746685709714504
2.836450311697836,-0.1938084936140104
2.8698203153648696,-0.3510182411438057
2.903190319031903,-0.5081715198379892
2.9365603226989365,-0.5880450844145068
2.96993032636597,-0.5391671873735788
3.003300330033003,-0.3576196307277234
3.0366703337000365,-0.08796920716136364
3.07004033736707,0.19689722629431894
3.1034103410341034,0.4270008822463475
3.1367803447011364,0.5628331529321597
3.17015034836817,0.6073976693394315
3.2035203520352034,0.599093751922385
3.236890355702237,0.590610659858802
3.2702603593692703,0.6240983847241092
3.3036303630363033,0.7126699715406091
3.3370003667033368,0.8341877886895979
3.3703703703703702,0.9381807570609024
3.4037403740374037,0.9628960426145671
3.4371103777044367,0.8574008173897614
3.47048038137147,0.6025518923520854
3.5038503850385037,0.22404646855459703
3.537220388705537,-0.2085650754120306
3.5705903923725706,-0.5996492027986932
3.6039603960396036,-0.8584417254904135
3.637330399706637,-0.9325031613368298
3.6707004033736705,-0.8292708043920656
3.704070407040704,-0.6143251452226939
3.7374404107077375,-0.38475104245819236
3.7708104143747705,-0.22821607274710748
3.804180418041804,-0.18653982006694614
3.8375504217088374,-0.24147491510599123
3.870920425375871,-0.32983217146324617
3.904290429042904,-0.3801058338952777
3.9376604327099374,-0.3514114901931116
3.971030436376971,-0.2542198283195771
4.004400440044004,-0.14205364505884113
4.037770443711038,-0.07892775699285451
4.071140447378071,-0.10043689369527373
4.104510451045105,-0.18989765343769244
4.137880454712137,-0.28286599661871115
4.171250458379171,-0.29802041089191394
4.204620462046204,-0.17819019396329908
4.237990465713238,0.0799546739046875
4.271360469380271,0.42251231457486654
4.304730473047305,0.7617810615596498
4.338100476714338,1.0130557678897751
4.3714704803813715,1.1256513733143925
4.404840484048405,1.0942788293883923
4.438210487715438,0.949128434000573
4.471580491382471,0.7344484507551697
4.5049504950495045,0.48951957607769697
4.538320498716538,0.2413042913311732
4.571690502383571,0.008718379810678235
4.605060506050605,-0.18917367415410466
4.638430509717638,-0.33012486572878263
4.671800513384672,-0.39491539733889375
4.705170517051705,-0.37939099009837196
4.738540520718738,-0.30399419357914775
4.771910524385771,-0.2130900402683573
4.805280528052805,-0.16189091494661978
4.838650531719838,-0.19566938570225034
4.872020535386872,-0.3303460143730356
4.905390539053905,-0.5433641728161299
4.938760542720939,-0.7793943014958561
4.972130546387972,-0.969028786218216
5.005500550055006,-1.0530636660129329
5.038870553722038,-1.0026084335733985
5.072240557389072,-0.8271810504676267
5.105610561056105,-0.5682908786822894
5.138980564723139,-0.2822488290268591
5.172350568390172,-0.020056115565277473
5.2057205720572055,0.18759628859998023
5.239090575724239,0.3355260169439216
5.272460579391272,0.43943098892516724
5.305830583058306,0.524955068221632
5.3392005867253385,0.615162867435205
5.372570590392372,0.7203780342445102
5.405940594059405,0.8328693816790399
5.439310597726439,0.9276037640437682
5.472680601393472,0.9692001043422226
5.506050605060506,0.9237668400366043
5.539420608727539,0.7723841597748321
5.572790612394573,0.5214891879251549
5.606160616061606,0.2056694711224167
5.63953061972864,-0.11908755659286012
5.672900623395672,-0.38981438870925855
5.706270627062706,-0.5537057925881028
5.739640630729739,-0.5823304820016698
5.773010634396773,-0.4789542621773299
5.806380638063806,-0.27772180196702845
5.83975064173084,-0.03558793545041313
5.873120645397873,0.18107193139015265
5.9064906490649065,0.31270488993161283
5.93986065273194,0.32239926192668034
5.9732306563989725,0.2070538594707216
6.006600660066006,-0.00029494905006678543
6.0399706637330395,-0.23914372576338494
6.073340667400073,-0.43955350259893566
6.106710671067106,-0.5440095235629365
6.14008067473414,-0.5255891138372389
6.173450678401173,-0.3959661749421518
6.206820682068207,-0.20052610099095014
6.24019068573524,-0.0027261316929954008
6.273560689402273,0.13628685278159963
6.306930693069306,0.17557451459835585
6.34030069673634,0.10445292748931619
6.373670700403373,-0.05689460325136566
6.407040704070407,-0.26421845584965303
6.44041070773744,-0.45983992336479235
6.473780711404474,-0.5844346384641244
6.507150715071507,-0.5892354862834739
6.540520718738541,-0.4487768892735305
6.573890722405573,-0.17276359165953994
6.607260726072607,0.18736763887340407
6.64063072973964,0.54335512112159
6.6740007334066735,0.7904154051855207
6.707370737073707,0.8403269284618973
6.7407407407407405,0.656718034089288
6.774110744407774,0.27738317693102676
6.807480748074807,-0.18903694280697275
6.840850751741841,-0.5949447339167803
6.8742207554088735,-0.8043356731383652
6.907590759075907,-0.7425277097150097
6.94096076274294,-0.4245142604419032
6.974330766409974,0.05012741884910953
7.007700770077007,0.5336767092397013
7.041070773744041,0.8829254151519933
7.074440777411074,1.0070286247339706
7.107810781078108,0.8929485360134072
7.141180784745141,0.6011987736305998
7.174550788412174,0.23663766056567093
7.207920792079207,-0.09220965573766488
7.241290795746241,-0.3092209301920297
7.274660799413274,-0.3896856017690878
7.308030803080308,-0.3576422702050839
7.341400806747341,-0.2658007723949164
7.3747708104143745,-0.16875058236441742
7.408140814081408,-0.10160805511177752
7.4415108177484415,-0.07219876166256634
7.474880821415475,-0.06740006443282756
7.5082508250825075,-0.06726994315229763
7.541620828749541,-0.057721091662682994
7.5749908324165744,-0.03508202718194169
7.608360836083608,-0.0020622996305140057
7.641730839750641,0.03954037062449482
7.675100843417675,0.09223918495393217
7.708470847084708,0.1585336469306534
7.741840850751742,0.2313670777765343
7.775210854418775,0.2870549008946168
7.808580858085808,0.28866359688867654
7.841950861752841,0.2022682091934258
7.875320865419875,0.019839328770077012
7.908690869086908,-0.22411566716603978
7.942060872753942,-0.4548214652156115
7.975430876420975,-0.5827046695955065
8.008800880088009,-0.5434390381743445
8.042170883755041,-0.3336536388668969
8.075540887422076,-0.022468927547515945
8.108910891089108,0.2706370112228484
8.142280894756142,0.424296431751135
8.175650898423175,0.3684412443047894
8.20902090209021,0.11693590818825574
8.242390905757242,-0.2363921672739543
8.275760909424275,-0.5569704307458088
8.309130913091309,-0.7259515655277937
8.342500916758341,-0.6882960782163828
8.375870920425376,-0.4715754956027584
8.409240924092408,-0.16889129780741854
8.442610927759443,0.10420891471560265
8.475980931426475,0.25819200141870124
8.50935093509351,0.26233271172858136
8.542720938760542,0.14991270961018252
8.576090942427575,-0.0027595977661617564
8.60946094609461,-0.11125414404902029
8.642830949761642,-0.11587721074204427
8.676200953428676,-0.00036320391109974934
8.709570957095709,0.20761177914028645
8.742940960762743,0.45042718587443115
8.776310964429776,0.6613831048680466
8.80968096809681,0.78496271721725
8.843050971763843,0.7915322513431079
8.876420975430875,0.6841250215169841
8.90979097909791,0.49657584495830015
8.943160982764942,0.28331199646824556
8.976530986431976,0.1025786339842054
9.009900990099009,-0.002832999536360209
9.043270993766043,-0.021059717563452592
9.076640997433076,0.023843694342077584
9.11001100110011,0.08120442285331361
9.143381004767143,0.09522725395812347
9.176751008434175,0.030147240738904988
9.21012101210121,-0.11276446041623762
9.243491015768242,-0.2954723949611508
9.276861019435277,-0.46161642236337835
9.31023102310231,-0.5642070456976573
9.343601026769344,-0.588012437650775
9.376971030436376,-0.5544732905275913
9.41034103410341,-0.5066502554694499
9.443711037770443,-0.4831505984421422
9.477081041437476,-0.49623373594694353
9.51045104510451,-0.5264342579711249
9.543821048771543,-0.5358268640823454
9.577191052438577,-0.49087264708933864
9.61056105610561,-0.38057604137242657
9.643931059772644,-0.21955251171357032
9.677301063439677,-0.035857751701825466
9.710671067106711,0.14671468564725554
9.744041070773743,0.3191456096302875
9.777411074440776,0.48349226593791306
9.81078107810781,0.6384347214221098
9.844151081774843,0.7656325582137363
9.877521085441877,0.8286408764027342
9.91089108910891,0.7881076678514667
9.944261092775944,0.625918250373629
9.977631096442977,0.36404727519810176
10.011001100110011,0.06559512876779558
10.044371103777044,-0.18517175114863094
10.077741107444076,-0.31554175328949796
10.11111111111111,-0.29457767487827013
10.144481114778143,-0.14652365838466885
10.177851118445178,0.058883990212274154
10.21122112211221,0.2347387566322209
10.244591125779245,0.3112313549141058
10.277961129446277,0.2610892842701492
10.311331133113312,0.10605534539736938
10.344701136780344,-0.09680824453571722
10.378071140447377,-0.28128692532901267
10.411441144114411,-0.39818061763208507
10.444811147781444,-0.4303898870868818
10.478181151448478,-0.3922553351848051
10.51155115511551,-0.31630452383062635
10.544921158782545,-0.2357508331925749
10.578291162449577,-0.17141159247415946
10.611661166116612,-0.12775925474974903
10.645031169783644,-0.09733378121012488
10.678401173450677,-0.06883791423295635
10.711771177117711,-0.033654436222315724
10.745141180784744,0.012076840454893068
10.778511184451778,0.06920988378974068
10.81188118811881,0.13819561907864816
10.845251191785845,0.21954918766325549
10.878621195452878,0.31125604414402
10.911991199119912,0.40483868138850687
10.945361202786945,0.48325945679613097
10.978731206453979,0.523110032533932
11.012101210121012,0.5010766805054485
11.045471213788044,0.40210305127890184
11.078841217455079,0.22572582805698013
11.112211221122111,-0.011720648121052333
11.145581224789145,-0.2790530497486912
11.178951228456178,-0.5348918870833548
11.212321232123212,-0.733904284950207
11.245691235790245,-0.8348237353074148
11.27906123945728,-0.810736149844726
11.312431243124312,-0.6602296915702363
11.345801246791344,-0.41492041171212846
11.379171250458379,-0.13735613021506127
11.412541254125411,0.0942422310794589
11.445911257792446,0.21174011593662537
11.479281261459478,0.18400133426872523
11.512651265126513,0.032784225846958046
11.546021268793545,-0.17107037285935248
11.57939127246058,-0.33139186275363114
11.612761276127612,-0.36150874141501405
11.646131279794645,-0.2162772821231676
11.67950128346168,0.09113167288328487
11.712871287128712,0.49337093820495176
11.746241290795746,0.891207150713208
11.779611294462779,1.1849168169099236
11.812981298129813,1.3037775149246709
11.846351301796846,1.2247492980312684
11.87972130546388,0.9758582958784222
11.913091309130913,0.6245960968717433
11.946461312797945,0.25559815763446175
11.97983131646498,-0.0555483249685369
12.013201320132012,-0.2645038496626965
12.046571323799046,-0.36934314445696936
12.079941327466079,-0.4065687222383352
12.113311331133113,-0.4326908543126343
12.146681334800146,-0.49770322206720286
12.18005133846718,-0.6209409145123259
12.213421342134213,-0.7800260092392471
12.246791345801245,-0.9187398386575978
12.28016134946828,-0.9712535995573237
12.313531353135312,-0.8921919020457358
12.346901356802347,-0.6788083282661179
12.38027136046938,-0.3750609030686216
12.413641364136414,-0.05587041524123004
12.447011367803446,0.20104108896761266
12.48038137147048,0.34309828556340627
12.513751375137513,0.358899594039893
12.547121378804546,0.27684629837783525
12.58049138247158,0.1491142050134726
12.613861386138613,0.029846451416637793
12.647231389805647,-0.04234603890783463
12.68060139347268,-0.05140505395375007
12.713971397139714,-0.0006101851977230437
12.747341400806746,0.09564276422840222
12.78071140447378,0.2190250649073776
12.814081408140813,0.35047785862394465
12.847451411807846,0.4706274910285454
12.88082141547488,0.5605625596888776
12.914191419141913,0.6048028043320711
12.947561422808947,0.5953415621417218
12.98093142647598,0.5338666933934322
13.014301430143014,0.4302292510171484
13.047671433810047,0.2980569552796047
13.081041437477081,0.15062873481427244
13.114411441144114,-0.00021637538764897687
13.147781444811146,-0.14208470602285816
13.18115144847818,-0.2598219556505907
13.214521452145213,-0.3366673515105357
13.247891455812248,-0.3600431314864685
13.28126145947928,-0.3294758224375875
13.314631463146315,-0.26157622076286635
13.348001466813347,-0.18761803954535333
13.381371470480381,-0.14298008220882594
13.414741474147414,-0.15247614521167563
13.448111477814447,-0.21856397841678551
13.481481481481481,-0.3187044179466461
13.514851485148514,-0.4139046603911812
13.548221488815548,-0.4648971500715562
13.58159149248258,-0.44844437913275254
13.614961496149615,-0.3660627042074803
13.648331499816647,-0.24120899410934643
13.681701503483682,-0.10679247175810293
13.715071507150714,0.01025210712605329
13.748441510817747,0.09928628399325723
13.781811514484781,0.16621247224346122
13.815181518151814,0.22451993931936942
13.848551521818848,0.2833040495060026
13.88192152548588,0.33994001955799497
13.915291529152915,0.3817945004157221
13.948661532819948,0.3953160597912693
13.982031536486982,0.3760130819370753
14.015401540154015,0.332420767166069
14.048771543821047,0.281423544231861
14.082141547488082,0.23828967280737814
14.115511551155114,0.2083479336638342
14.148881554822148,0.18591516263101826
14.182251558489181,0.16080177233848736
14.215621562156215,0.1272024424709463
14.248991565823248,0.08796633436170426
14.282361569490282,0.050578845843626735
14.315731573157315,0.017557092912360125
14.349101576824348,-0.021035052171290716
14.382471580491382,-0.08544753482823146
14.415841584158414,-0.19296917454567225
14.449211587825449,-0.34034053424347394
14.482581591492481,-0.49374072597661356
14.515951595159516,-0.5958915477492601
14.549321598826548,-0.590492645898628
14.582691602493583,-0.45309597476184293
14.616061606160615,-0.2116045721010074
14.649431609827648,0.05689106608516258
14.682801613494682,0.2545359082318873
14.716171617161715,0.3044008975094746
14.749541620828749,0.18557422484487643
14.782911624495782,-0.05579573775582503
14.816281628162816,-0.3252898540975687
14.849651631829849,-0.5198268872135895
14.883021635496883,-0.5690157898322822
14.916391639163916,-0.4591585774964441
14.94976164283095,-0.23061026640415494
14.983131646497982,0.04685417923684924
15.016501650165015,0.3057515331026428
15.04987165383205,0.5035208115210389
15.083241657499082,0.6274628044442423
15.116611661166116,0.6844068294947413
15.149981664833149,0.685257543586005
15.183351668500183,0.6350691101388914
15.216721672167216,0.5334925283449562
15.25009167583425,0.3828972288699395
15.283461679501283,0.19695917618944186
15.316831683168315,0.003087260666945985
15.35020168683535,-0.1636028378984352
15.383571690502382,-0.2720816180471823
15.416941694169417,-0.3073223658432469
15.45031169783645,-0.27670512024843924
15.483681701503484,-0.20767415087391228
15.517051705170516,-0.13701993594205195
15.55042170883755,-0.09574046140078452
15.583791712504583,-0.09578987583929605
15.617161716171616,-0.12498349895992703
15.65053171983865,-0.153320635601944
15.683901723505683,-0.14878909339357232
15.717271727172717,-0.09561176399737067
15.75064173083975,-0.005707556254110672
15.784011734506784,0.0834189791690133
15.817381738173816,0.12472288003856877
15.85075174184085,0.08457492012065992
15.884121745507883,-0.038760522393966455
15.917491749174916,-0.21106051445299512
15.95086175284195,-0.3753712438830133
15.984231756508983,-0.47629780851472836
16.017601760176017,-0.48307167247352045
16.05097176384305,-0.39975747840755016
16.084341767510082,-0.25810215051326374
16.117711771177117,-0.09808490382504126
16.15108177484415,0.05232358712071098
16.184451778511182,0.1869717866555358
16.217821782178216,0.31632548768242635
16.25119178584525,0.45160326525461514
16.284561789512285,0.5886173349107079
16.317931793179316,0.7015307021645235
16.35130179684635,0.7508358183232138
16.384671800513384,0.7017802260643533
16.41804180418042,0.5436747080394596
16.45141180784745,0.29991543606354704
16.484781811514484,0.023155549060969734
16.51815181518152,-0.22268278774157335
16.55152181884855,-0.38562052577328326
16.584891822515583,-0.44384294233019805
16.618261826182618,-0.4112885899254935
16.651631829849652,-0.328904155819637
16.685001833516683,-0.24617731565745415
16.718371837183717,-0.2013360249614808
16.75174184085075,-0.20839571833751508
16.785111844517782,-0.25554992964777884
16.818481848184817,-0.3141985990270028
16.85185185185185,-0.35357148060569626
16.885221855518886,-0.35416907712570767
16.918591859185916,-0.3145603523110905
16.95196186285295,-0.2495719322709124
16.985331866519985,-0.18186308415986752
17.01870187018702,-0.13149442971772368
17.05207187385405,-0.1082369739863556
17.085441877521085,-0.10915261888134349
17.11881188118812,-0.12081805048304285
17.15218188485515,-0.12345012577040965
17.185551888522184,-0.09446189356342584
17.21892189218922,-0.011298615193745693
17.252291895856253,0.1442503627577614
