Time (s),Filtered Signal
0.0,-0.026158361554683058
0.03337008452774715,0.15338447584064618
0.0667401690554943,0.2225226084958209
0.10011025358324147,0.10992319902331464
0.1334803381109886,-0.19054689312907538
0.16685042263873576,-0.6165800064959955
0.20022050716648293,-1.0585870019429826
0.23359059169423008,-1.3980711805302992
0.2669606762219772,-1.5491321553272284
0.30033076074972437,-1.4872500101720114
0.3337008452774715,-1.2541504002770387
0.36707092980521866,-0.9370672256712669
0.40044101433296586,-0.6312896726777445
0.433811098860713,-0.40206598648770103
0.46718118338846015,-0.2624655702482712
0.5005512679162073,-0.17695526687730914
0.5339213524439544,-0.08869420322035017
0.5672914369717016,0.04302048470795892
0.6006615214994487,0.21443021881754842
0.6340316060271959,0.37376967394419036
0.667401690554943,0.44617574819546696
0.7007717750826902,0.3758578313834144
0.7341418596104373,0.16416325617703142
0.7675119441381845,-0.11749047598278199
0.8008820286659317,-0.349335851284119
0.8342521131936789,-0.41184885000860005
0.867622197721426,-0.2392765114126008
0.9009922822491732,0.14723234066686525
0.9343623667769203,0.6429204257687848
0.9677324513046675,1.09808677547369
1.0011025358324146,1.3750512831957942
1.0344726203601617,1.3990715289043991
1.0678427048879089,1.1829084445642013
1.101212789415656,0.8169926622291842
1.1345828739434032,0.43137220737198867
1.1679529584711503,0.14594543224558867
1.2013230429988975,0.028603695933498523
1.2346931275266446,0.07649887894610613
1.2680632120543918,0.22577310813181545
1.301433296582139,0.3834991916881205
1.334803381109886,0.46684690067502
1.3681734656376332,0.43243833271934873
1.4015435501653803,0.28461387537314636
1.4349136346931275,0.06220725279843515
1.4682837192208746,-0.186158099636557
1.5016538037486218,-0.42383946881315826
1.535023888276369,-0.6344340996173161
1.568393972804116,-0.8153862488249346
1.6017640573318634,-0.964841150925751
1.6351341418596106,-1.072691512170482
1.6685042263873577,-1.1222869247553884
1.7018743109151049,-1.100796450051839
1.735244395442852,-1.0097798176855628
1.7686144799705992,-0.8674808024103211
1.8019845644983463,-0.7004408739400683
1.8353546490260935,-0.5297708415133447
1.8687247335538406,-0.36139266223847955
1.9020948180815878,-0.18710242462339297
1.935464902609335,0.003866691829308516
1.968834987137082,0.2102038349314186
2.002205071664829,0.41065250800994574
2.0355751561925763,0.5690099661173298
2.0689452407203235,0.6504844671410631
2.1023153252480706,0.6409658081932076
2.1356854097758178,0.5584464482448517
2.169055494303565,0.4494063265712119
2.202425578831312,0.3705760408677427
2.235795663359059,0.36418958169238197
2.2691657478868064,0.4386174052515938
2.3025358324145535,0.5640565488072259
2.3359059169423007,0.6857372365959064
2.369276001470048,0.7485201520625998
2.402646085997795,0.7211939848636407
2.436016170525542,0.6090357239033297
2.4693862550532892,0.44903186998896466
2.5027563395810364,0.2905493299680001
2.5361264241087835,0.17102822461412948
2.5694965086365307,0.09826430576356938
2.602866593164278,0.04735075970435969
2.636236677692025,-0.026690874094948528
2.669606762219772,-0.16666549353807208
2.7029768467475193,-0.391356690255769
2.7363469312752664,-0.6833643025544495
2.7697170158030135,-0.9913115307050125
2.8030871003307607,-1.2450753169909423
2.836457184858508,-1.3779762277973346
2.869827269386255,-1.3480954077243101
2.903197353914002,-1.1520144997299877
2.9365674384417493,-0.8270891704159246
2.9699375229694964,-0.4416155009763352
3.0033076074972436,-0.07536123378595545
3.0366776920249907,0.20420869374592587
3.070047776552738,0.3625443186497909
3.103417861080485,0.40775598014599057
3.136787945608232,0.38468851666971826
3.1701580301359793,0.35449490683318835
3.203528114663727,0.36769752850591586
3.236898199191474,0.44266880615246923
3.270268283719221,0.5595863360748675
3.3036383682469683,0.6724384073356147
3.3370084527747155,0.73246778780497
3.3703785373024626,0.7108913921975506
3.4037486218302098,0.6100557463882225
3.437118706357957,0.4592836685866806
3.470488790885704,0.2999229280877054
3.503858875413451,0.16858489466322296
3.5372289599411983,0.08621085394074646
3.5705990444689455,0.05533097598467485
3.6039691289966926,0.06288053303691159
3.63733921352444,0.08455360129585562
3.670709298052187,0.0890462943846554
3.704079382579934,0.04376564011097598
3.7374494671076812,-0.07577323410327653
3.7708195516354284,-0.27365088098374607
3.8041896361631755,-0.5235833567725912
3.8375597206909227,-0.7685677974309606
3.87092980521867,-0.9345476628108274
3.904299889746417,-0.955659494943281
3.937669974274164,-0.8016133466240354
3.9710400588019112,-0.49488961054070535
4.004410143329658,-0.10872509083798375
4.0377802278574055,0.25511863828423414
4.071150312385153,0.5009670850059526
4.1045203969129,0.5728630490321789
4.137890481440647,0.47400457746430114
4.171260565968394,0.2643474168608489
4.204630650496141,0.037279064289818246
4.238000735023888,-0.11562071684240555
4.2713708195516356,-0.13814949696761036
4.304740904079383,-0.028497440446222006
4.33811098860713,0.1633971481700481
4.371481073134877,0.3585099867432382
4.404851157662624,0.48152083099709453
4.438221242190371,0.48969408455042956
4.471591326718118,0.38583971777912246
4.504961411245866,0.2108157969367278
4.538331495773613,0.020507056140391472
4.57170158030136,-0.14081829422502962
4.605071664829107,-0.25770975073160934
4.638441749356854,-0.343397808540682
4.671811833884601,-0.4234898897813762
4.7051819184123485,-0.5133067914443845
4.738552002940096,-0.6024423676838131
4.771922087467843,-0.6565662291391912
4.80529217199559,-0.6367455626806032
4.838662256523337,-0.5256056838664154
4.872032341051084,-0.34406414419974357
4.905402425578831,-0.14640828302886524
4.9387725101065785,0.006231303483118303
4.972142594634326,0.08035874378385433
5.005512679162073,0.0924684719439228
5.03888276368982,0.10452862828966734
5.072252848217567,0.19236122020599464
5.105622932745314,0.4021598731607625
5.138993017273061,0.717938325714837
5.1723631018008085,1.058082180102338
5.205733186328556,1.3049097382873334
5.239103270856303,1.3547033491428229
5.27247335538405,1.1652486400701074
5.305843439911797,0.7784373907243927
5.339213524439544,0.30660499747485204
5.372583608967291,-0.11217811661811998
5.4059536934950385,-0.37028288488961036
5.439323778022786,-0.4331563660436702
5.472693862550533,-0.3496064956147969
5.50606394707828,-0.22589912561941267
5.539434031606027,-0.1763245303833036
5.572804116133774,-0.2729358363795176
5.606174200661521,-0.5162403470718
5.6395442851892685,-0.8378844210459675
5.672914369717016,-1.13161269070391
5.706284454244763,-1.2970870600914395
5.73965453877251,-1.2773395201296016
5.773024623300257,-1.075396138567643
5.806394707828004,-0.7458700716946657
5.839764792355751,-0.3681272506579301
5.873134876883499,-0.014438169795288478
5.906504961411246,0.27303674562859376
5.939875045938993,0.488031803190429
5.97324513046674,0.6487856892104142
6.006615214994487,0.7771177469200083
6.039985299522234,0.8791976022933592
6.073355384049981,0.9376314908805794
6.106725468577729,0.9187291824181198
6.140095553105476,0.7915272432390185
6.173465637633223,0.5494384828306376
6.20683572216097,0.22370252987832248
6.240205806688717,-0.11903310671357047
6.273575891216464,-0.3958312677989707
6.3069459757442115,-0.5364373317261703
6.340316060271959,-0.5101895429663094
6.373686144799706,-0.3389728165146242
6.407056229327454,-0.08974436952863789
6.440426313855201,0.151141111135279
6.473796398382948,0.31134859666297726
6.507166482910695,0.35933370087046357
6.540536567438442,0.3126346404888789
6.5739066519661895,0.2241492019437932
6.607276736493937,0.15316969829202898
6.640646821021684,0.13517445267924824
6.674016905549431,0.16475430982581588
6.707386990077178,0.1993563170163662
6.740757074604925,0.18126974614592625
6.774127159132672,0.06674766222782001
6.8074972436604195,-0.15152873047626883
6.840867328188167,-0.43842994276954306
6.874237412715914,-0.7284517913978488
6.907607497243661,-0.9495163132364065
6.940977581771408,-1.0478441031394394
6.974347666299155,-1.0040432604735647
7.007717750826902,-0.8353688810763311
7.0410878353546495,-0.5853028163502272
7.074457919882397,-0.3063766277174181
7.107828004410144,-0.04371287757010063
7.141198088937891,0.1750427576336398
7.174568173465638,0.34148317177616594
7.207938257993385,0.4616226153474038
7.241308342521132,0.5481661862286682
7.27467842704888,0.6134008035035197
7.308048511576627,0.6648032471116105
7.341418596104374,0.7038282676133174
7.374788680632121,0.7272171761442601
7.408158765159868,0.7296546801717985
7.441528849687615,0.706524189922551
7.4748989342153624,0.6557579389083756
7.50826901874311,0.5783120586862109
7.541639103270857,0.4774856193189581
7.575009187798604,0.35785838073966564
7.608379272326351,0.22472198639365445
7.641749356854098,0.08435825721917967
7.675119441381845,-0.0554404944273801
7.7084895259095925,-0.18598364397473707
7.74185961043734,-0.30055260202692113
7.775229694965087,-0.3990296570841728
7.808599779492834,-0.4915448847755961
7.841969864020581,-0.5972826039728563
7.875339948548328,-0.7361382904587281
7.908710033076075,-0.915047517631897
7.9420801176038225,-1.115324822769187
7.97545020213157,-1.2890801852585294
8.008820286659317,-1.3697515469626498
8.042190371187063,-1.2949346438938978
8.075560455714811,-1.0326676845202611
8.108930540242557,-0.5993481347654289
8.142300624770305,-0.0605310503124758
8.175670709298052,0.4865429381577438
8.2090407938258,0.9417670538589663
8.242410878353546,1.2309215021525435
8.275780962881294,1.3238795878435774
8.30915104740904,1.2370980085986198
8.342521131936788,1.0219386452139267
8.375891216464534,0.7453254166404331
8.409261300992283,0.4706144010792596
8.442631385520029,0.24451048225011088
8.476001470047777,0.09210103147107992
8.509371554575523,0.018661239199296454
8.542741639103271,0.015105972607215006
8.57611172363102,0.06393855808931935
8.609481808158765,0.1436464460042277
8.642851892686513,0.23098879670770986
8.67622197721426,0.3019807597167498
8.709592061742008,0.33318148582705076
8.742962146269754,0.30475417189276743
8.776332230797502,0.20555497449463567
8.809702315325248,0.038670711006459454
8.843072399852996,-0.17558211435173768
8.876442484380743,-0.4020157949848292
8.90981256890849,-0.5989697801869928
8.943182653436237,-0.7302409320407213
8.976552737963985,-0.7756890519155014
9.009922822491731,-0.7358503086381204
9.04329290701948,-0.6288320999281297
9.076662991547225,-0.4817937776686858
9.110033076074973,-0.3218617273237844
9.14340316060272,-0.17068899347729305
9.176773245130468,-0.04359456968770941
9.210143329658214,0.04915501025368412
9.243513414185962,0.10220146668884884
9.276883498713708,0.11713366044818482
9.310253583241456,0.10453349356670046
9.343623667769203,0.08263768189551562
9.37699375229695,0.07129557108375957
9.410363836824697,0.08364895969433689
9.443733921352445,0.12025006951798459
9.477104005880191,0.1692223303029952
9.51047409040794,0.21240420402691768
9.543844174935685,0.23399577603870408
9.577214259463434,0.22737792514994568
9.61058434399118,0.19756516685789954
9.643954428518928,0.1593149726655317
9.677324513046674,0.1323418806048881
9.710694597574422,0.13505201884024334
9.744064682102168,0.177873263239601
9.777434766629916,0.2576790258089179
9.810804851157663,0.35565628195552373
9.84417493568541,0.44079580906205323
9.877545020213157,0.47903815325358917
9.910915104740905,0.44488262461227995
9.944285189268651,0.3302776587694434
9.9776552737964,0.14667978570253995
10.011025358324146,-0.08010370571846492
10.044395442851894,-0.318792920114795
10.07776552737964,-0.5403802867927192
10.111135611907388,-0.7217773862412681
10.144505696435134,-0.8458230811120422
10.177875780962882,-0.9004111023194923
10.211245865490628,-0.8791804362973086
10.244615950018376,-0.7839481796457929
10.277986034546123,-0.626867660450652
10.31135611907387,-0.4298350722625172
10.344726203601617,-0.2201322944276006
10.378096288129365,-0.023538216900545573
10.411466372657111,0.1422905182723715
10.44483645718486,0.2713181551418309
10.478206541712606,0.3680693489505981
10.511576626240354,0.4427134931284391
10.5449467107681,0.5048213402587266
10.578316795295848,0.5588647386308195
10.611686879823594,0.603401930818436
10.645056964351342,0.6336420674486433
10.678427048879088,0.6450739074832452
10.711797133406836,0.6354544208103702
10.745167217934583,0.6040489116921867
10.77853730246233,0.5494728305609373
10.811907386990077,0.4688553589224587
10.845277471517825,0.36005275619102517
10.878647556045571,0.2258695870187407
10.91201764057332,0.07686805767079499
10.945387725101066,-0.0705401677650993
10.978757809628814,-0.20110061028843387
11.01212789415656,-0.30930130154401053
11.045497978684308,-0.403888046976647
11.078868063212054,-0.5040689134363326
11.112238147739802,-0.6276673667926819
11.145608232267548,-0.7766118848139943
11.178978316795297,-0.9278389987739012
11.212348401323043,-1.0360388803512186
11.24571848585079,-1.0491228795393988
11.279088570378537,-0.9305437669211807
11.312458654906285,-0.6782849026783428
11.345828739434031,-0.3310163437197616
11.37919882396178,0.04246409765829054
11.412568908489526,0.366590525208121
11.445938993017274,0.5852576552024119
11.47930907754502,0.6797296220146342
11.512679162072768,0.6710265087601782
11.546049246600514,0.6066974876202873
11.579419331128262,0.5386281838611344
11.612789415656009,0.5018311569492642
11.646159500183757,0.5028389466786336
11.679529584711503,0.5214164126009698
11.71289966923925,0.5233820871419196
11.746269753766997,0.47803691344802846
11.779639838294745,0.3725841802079693
11.813009922822491,0.21793113048431897
11.84638000735024,0.044128039805536916
11.879750091877986,-0.11220205382600071
11.913120176405734,-0.22307847598433223
11.94649026093348,-0.28056634531166974
11.979860345461228,-0.29917738878954275
12.013230429988974,-0.30762491095279226
12.046600514516722,-0.3331205463479746
12.079970599044469,-0.38546726198346254
12.113340683572217,-0.449192526813514
12.146710768099963,-0.48876028770316515
12.180080852627711,-0.465612065236366
12.213450937155457,-0.35942078228165436
12.246821021683205,-0.18284513363269328
12.280191106210951,0.018814820667697678
12.3135611907387,0.1848534257328181
12.346931275266446,0.26649509066441646
12.380301359794194,0.2513629361490158
12.41367144432194,0.17189394836987004
12.447041528849688,0.09121968686377759
12.480411613377434,0.07112192525849013
12.513781697905182,0.13689061608515668
12.547151782432929,0.2576562842190165
12.580521866960677,0.3550442056352556
12.613891951488423,0.3394892098527878
12.647262036016171,0.1585195381806944
12.680632120543917,-0.16714576440801548
12.714002205071665,-0.5402001713837431
12.747372289599411,-0.8214547232913437
12.78074237412716,-0.8886734025754542
12.814112458654908,-0.6921733688046237
12.847482543182654,-0.27998501567665124
12.880852627710402,0.22042632924021724
12.914222712238148,0.6556824840643125
12.947592796765896,0.9097659773063074
12.980962881293642,0.9470824823374691
13.01433296582139,0.8159949753213341
13.047703050349137,0.6137010195085519
13.081073134876885,0.43251902032274203
13.114443219404631,0.31591024947750723
13.147813303932379,0.24584390252534552
13.181183388460125,0.16538856970554403
13.214553472987873,0.021460123513894792
13.24792355751562,-0.19732602159054088
13.281293642043368,-0.4487110305276554
13.314663726571114,-0.6564800016943089
13.348033811098862,-0.7497950655547994
13.381403895626608,-0.6998378004137453
13.414773980154356,-0.5337349322013122
13.448144064682102,-0.3189019812848799
13.48151414920985,-0.12738050847395951
13.514884233737597,-0.0004436897095313582
13.548254318265345,0.06694655455855748
13.581624402793091,0.11373471978718022
13.614994487320839,0.18021863925186932
13.648364571848585,0.2747233542602516
13.681734656376333,0.35972036477098107
13.71510474090408,0.3670988142118534
13.748474825431828,0.236021850652428
13.781844909959574,-0.04638552093581328
13.815214994487322,-0.4240825412354527
13.848585079015068,-0.7841647866619013
13.881955163542816,-0.9985763586009645
13.915325248070562,-0.9768887600698465
13.94869533259831,-0.7056021243578017
13.982065417126057,-0.25572707907277015
14.015435501653805,0.24449895232602512
14.048805586181551,0.6588578738579197
14.082175670709299,0.892349795467378
14.115545755237045,0.9200018923469995
14.148915839764793,0.7855435492861702
14.18228592429254,0.5738530681866435
14.215656008820288,0.3713886597656137
14.249026093348034,0.23197782794091712
14.282396177875782,0.16121026378656717
14.315766262403528,0.1238945107412217
14.349136346931276,0.0693496535913218
14.382506431459023,-0.037782631890373536
14.41587651598677,-0.19553939958448555
14.449246600514517,-0.36188290089946956
14.482616685042265,-0.4730443100029327
14.515986769570011,-0.4748969987099318
14.54935685409776,-0.35244844437233375
14.582726938625505,-0.1423528178894333
14.616097023153253,0.07938139927336742
14.649467107681,0.23041788103507332
14.682837192208748,0.26084026373872443
14.716207276736494,0.1784136979244138
14.749577361264242,0.04659165392248713
14.782947445791988,-0.04544680759696124
14.816317530319736,-0.027131146604932984
14.849687614847483,0.1164642710342651
14.88305769937523,0.33383994983632087
14.916427783902977,0.5290209126784394
14.949797868430725,0.6065487197334418
14.983167952958471,0.5180319540139878
15.01653803748622,0.28730201144461365
15.049908122013965,0.001079801467985999
15.083278206541713,-0.2312513167421975
15.11664829106946,-0.32968693236277735
15.150018375597208,-0.2819558124862947
15.183388460124954,-0.14901028486475973
15.216758544652702,-0.034771933269996426
15.250128629180448,-0.0352657353205485
15.283498713708196,-0.19248744906097248
15.316868798235943,-0.4752899909812315
15.35023888276369,-0.7950937265030483
15.383608967291437,-1.0464923933878538
15.416979051819185,-1.1514842442548887
15.450349136346931,-1.0865699381454887
15.48371922087468,-0.882800193836037
15.517089305402425,-0.6031416392396589
15.550459389930174,-0.3115344365274944
15.58382947445792,-0.04942421507792882
15.617199558985668,0.17092110756089612
15.650569643513414,0.3568895871722165
15.683939728041162,0.5183462224184842
15.717309812568908,0.6538610178020104
15.750679897096656,0.7480562945363469
15.784049981624403,0.7809074697679902
15.81742006615215,0.743089576919396
15.850790150679897,0.648105256701992
15.884160235207645,0.5334339370271647
15.917530319735391,0.44845476873905094
15.95090040426314,0.43370174266026185
15.984270488790886,0.500820517429141
16.017640573318634,0.6230787353668851
16.05101065784638,0.7421039585574434
16.084380742374126,0.7894737619903351
16.117750826901876,0.7149378715163702
16.151120911429622,0.5094349043500083
16.18449099595737,0.21241550234322454
16.217861080485115,-0.10093575589566936
16.251231165012864,-0.3484336527380506
16.28460124954061,-0.4740356600999974
16.317971334068357,-0.47117857918782263
16.351341418596103,-0.38583712494350253
16.384711503123853,-0.297581610267456
16.4180815876516,-0.2865764764811009
16.451451672179346,-0.400404128433287
16.484821756707092,-0.6341871142412223
16.51819184123484,-0.9313860470362983
16.551561925762588,-1.2041019564852296
16.584932010290334,-1.3644629449123102
16.61830209481808,-1.3551983767308087
16.65167217934583,-1.1684292195515702
16.685042263873576,-0.8462893357262079
16.718412348401323,-0.4637230526616939
16.75178243292907,-0.10057800095481378
16.78515251745682,0.18560523068829454
16.818522601984565,0.37508464774747674
16.85189268651231,0.48412440593294215
16.885262771040058,0.5486300686239871
16.918632855567807,0.6028119435716157
16.952002940095554,0.664144304067333
16.9853730246233,0.7313371744349708
17.018743109151046,0.7939190624485055
17.052113193678796,0.845156595794455
17.085483278206542,0.8885229459454719
17.11885336273429,0.9327071292641668
17.15222344726204,0.9783586599908771
17.185593531789785,1.0062985454477693
17.21896361631753,0.9774589607245296
17.252333700845277,0.8484388834505325
17.285703785373027,0.5966298653555343
17.319073869900773,0.24127008358975413
17.35244395442852,-0.15342120776966142
17.385814038956266,-0.49862677032164415
