Frequency (Hz),Amplitude
0.0,1.0723073423506562
0.019801980198019802,1.0727425507100519
0.039603960396039604,1.07404538433094
0.0594059405940594,1.0762075094934906
0.07920792079207921,1.0792151707323754
0.09900990099009901,1.0830493869961582
0.1188118811881188,1.0876862167165755
0.13861386138613863,1.0930970829713018
0.15841584158415842,1.099249148374636
0.1782178217821782,1.1061057283759919
0.19801980198019803,1.1136267312941575
0.21782178217821782,1.1217691136262287
0.2376237623762376,1.1304873398669855
0.25742574257425743,1.1397338371553094
0.27722772277227725,1.1494594364128592
0.297029702970297,1.1596137931425836
0.31683168316831684,1.1701457826045205
0.33663366336633666,1.1810038655943247
0.3564356435643564,1.1921364224477358
0.37623762376237624,1.2034920541331637
0.39603960396039606,1.2150198503473635
0.4158415841584158,1.2266696253854565
0.43564356435643564,1.2383921232186461
0.45544554455445546,1.25013919369543
0.4752475247524752,1.2618639421035338
0.495049504950495,1.2735208545149102
0.5148514851485149,1.285065901407588
0.5346534653465347,1.2964566220419944
0.5544554455445545,1.3076521919852764
0.5742574257425742,1.3186134760457722
0.594059405940594,1.3293030687168006
0.613861386138614,1.3396853240477375
0.6336633663366337,1.349726376671761
0.6534653465346534,1.3593941555309805
0.6732673267326733,1.368658391657706
0.6930693069306931,1.3774906211983935
0.7128712871287128,1.3858641847076845
0.7326732673267327,1.3937542235948557
0.7524752475247525,1.4011376744745088
0.7722772277227723,1.4079932620577018
0.7920792079207921,1.4143014911178353
0.8118811881188118,1.4200446379768434
0.8316831683168316,1.425206741881011
0.8514851485148516,1.4297735965697091
0.8712871287128713,1.4337327422848587
0.891089108910891,1.4370734584211176
0.9108910891089109,1.4397867569774419
0.9306930693069307,1.4418653769365044
0.9504950495049505,1.4433037796704373
0.9702970297029703,1.4440981454473913
0.99009900990099,1.4442463710923865
1.00990099009901,1.4437480688384936
1.0297029702970297,1.442604566387321
1.0495049504950495,1.4408189081829421
1.0693069306930694,1.43839585788763
1.0891089108910892,1.435341902032321
1.108910891089109,1.4316652547969468
1.1287128712871286,1.427375863856469
1.1485148514851484,1.422485417205863
1.1683168316831685,1.4170073508504561
1.188118811881188,1.410956857216789
1.2079207920792079,1.4043508941014209
1.227722772277228,1.3972081939307315
1.2475247524752475,1.3895492730522756
1.2673267326732673,1.3813964407157848
1.2871287128712872,1.3727738073297806
1.3069306930693068,1.3637072914951993
1.3267326732673268,1.3542246252201808
1.3465346534653466,1.3443553566090354
1.3663366336633662,1.3341308491927975
1.3861386138613863,1.3235842769279014
1.405940594059406,1.3127506137342442
1.4257425742574257,1.3016666162747155
1.4455445544554455,1.2903707984973631
1.4653465346534653,1.2789033962724274
1.4851485148514851,1.2673063202640695
1.504950495049505,1.2556230949883853
1.5247524752475248,1.243898781834217
1.5445544554455446,1.2321798836746254
1.5643564356435644,1.2205142285884005
1.5841584158415842,1.2089508301626684
1.6039603960396038,1.1975397218792725
1.6237623762376237,1.1863317632235477
1.6435643564356437,1.1753784154183038
1.6633663366336633,1.1647314851037083
1.683168316831683,1.154442834876444
1.7029702970297032,1.14456406038635
1.7227722772277227,1.1351461346732055
1.7425742574257426,1.1262390216064408
1.7623762376237624,1.1178912616450933
1.782178217821782,1.1101495346247618
1.801980198019802,1.1030582058411162
1.8217821782178218,1.0966588632528946
1.8415841584158414,1.0909898550707577
1.8613861386138615,1.08608583821671
1.881188118811881,1.0819773490146996
1.900990099009901,1.0786904078952644
1.920792079207921,1.0762461697754944
1.9405940594059405,1.0746606310539268
1.9603960396039604,1.0739444028262155
1.98019801980198,1.0741025580211223
2.0,1.0751345577693683
2.01980198019802,1.0770342595889595
2.0396039603960396,1.0797900070723663
2.0594059405940595,1.0833847978844586
2.0792079207920793,1.0877965242127088
2.099009900990099,1.0929982775205986
2.118811881188119,1.098958707669082
2.1386138613861387,1.105642425270989
2.1584158415841586,1.1130104355557955
2.1782178217821784,1.1210205920262046
2.1980198019801978,1.1296280587167877
2.217821782178218,1.138785770824284
2.237623762376238,1.1484448847544049
2.257425742574257,1.1585552101040761
2.2772277227722775,1.1690656176582461
2.297029702970297,1.1799244190304723
2.3168316831683167,1.1910797150374108
2.336633663366337,1.2024797112140446
2.3564356435643563,1.2140730000120505
2.376237623762376,1.225808810163108
2.3960396039603964,1.237637224428714
2.4158415841584158,1.2495093675106836
2.4356435643564356,1.2613775662777411
2.455445544554456,1.273195484698322
2.4752475247524752,1.2849182359806175
2.495049504950495,1.2965024744340108
2.514851485148515,1.3079064695035596
2.5346534653465347,1.319090164311439
2.5544554455445545,1.3300152208846323
2.5742574257425743,1.340645054070127
2.594059405940594,1.3509448559502368
2.6138613861386135,1.3608816123791463
2.633663366336634,1.3704241130753096
2.6534653465346536,1.3795429565264048
2.673267326732673,1.3882105507981155
2.6930693069306932,1.3964011111864278
2.712871287128713,1.4040906555161785
2.7326732673267324,1.4112569977667508
2.7524752475247527,1.417879740598141
2.7722772277227725,1.4239402672568287
2.792079207920792,1.4294217332592944
2.811881188118812,1.4343090581816371
2.8316831683168315,1.4385889178236915
2.8514851485148514,1.442249736965884
2.8712871287128716,1.445281682894308
2.891089108910891,1.4476766598337798
2.910891089108911,1.449428304398434
2.9306930693069306,1.4505319821439764
2.9504950495049505,1.4509847852842794
2.9702970297029703,1.4507855316160412
2.99009900990099,1.449934764678552
3.00990099009901,1.4484347551604166
3.0297029702970297,1.446289503549558
3.0495049504950495,1.4435047440081827
3.0693069306930694,1.440087949437161
3.089108910891089,1.4360483376766275
3.108910891089109,1.4313968787679077
3.128712871287129,1.426146303177339
3.148514851485148,1.4203111108531496
3.1683168316831685,1.4139075809512656
3.1881188118811883,1.4069537820245221
3.2079207920792077,1.3994695824197367
3.227722772277228,1.3914766605687408
3.2475247524752473,1.3829985147902342
3.267326732673267,1.3740604721387886
3.2871287128712874,1.3646896957437953
3.3069306930693068,1.354915189973857
3.3267326732673266,1.3447678026397611
3.346534653465347,1.334280223311338
3.366336633663366,1.3234869766702355
3.386138613861386,1.3124244096522402
3.4059405940594063,1.3011306709507635
3.4257425742574257,1.2896456812605759
3.4455445544554455,1.2780110924417845
3.4653465346534653,1.2662702335849407
3.485148514851485,1.2544680417675333
3.504950495049505,1.2426509751214996
3.5247524752475248,1.2308669056948471
3.5445544554455446,1.219164989506047
3.564356435643564,1.207595511177639
3.5841584158415842,1.196209700619413
3.603960396039604,1.1850595194368174
3.6237623762376234,1.1741974150928314
3.6435643564356437,1.1636760413763518
3.6633663366336635,1.1535479444472108
3.683168316831683,1.143865214651255
3.702970297029703,1.1346791054294614
3.722772277227723,1.1260396219704578
3.7425742574257423,1.1179950837432646
3.762376237623762,1.1105916666433382
3.7821782178217824,1.103872932113165
3.801980198019802,1.097879352161401
3.8217821782178216,1.0926478405876427
3.841584158415842,1.088211301799729
3.8613861386138613,1.0845982092668431
3.881188118811881,1.0818322257788222
3.9009900990099013,1.0799318772041524
3.9207920792079207,1.0789102903233088
3.9405940594059405,1.0787750035779968
3.96039603960396,1.0795278572943265
3.98019801980198,1.0811649672349646
4.0,1.0836767823795832
4.01980198019802,1.0870482248188895
4.03960396039604,1.0912589067748355
4.0594059405940595,1.0962834172140545
4.079207920792079,1.1020916684544555
4.099009900990099,1.1086492916810682
4.118811881188119,1.1159180694369888
4.138613861386139,1.1238563929334702
4.158415841584159,1.1324197323785976
4.178217821782178,1.141561109365717
4.198019801980198,1.151231561578327
4.217821782178218,1.1613805915341266
4.237623762376238,1.1719565926872297
4.257425742574258,1.1829072478266573
4.2772277227722775,1.1941798962618244
4.297029702970297,1.2057218677057506
4.316831683168317,1.2174807820092415
4.336633663366336,1.2294048149408845
4.356435643564357,1.241442931042042
4.376237623762377,1.2535450852196515
4.3960396039603955,1.2656623951897454
4.415841584158416,1.2777472871733024
4.435643564356436,1.2897536173986808
4.455445544554455,1.3016367720075315
4.475247524752476,1.3133537479179924
4.4950495049504955,1.3248632170924848
4.514851485148514,1.3361255765072058
4.534653465346535,1.3471029859417885
4.554455445544555,1.357759395514529
4.574257425742574,1.3680605646904298
4.594059405940594,1.377974074294201
4.613861386138614,1.387469332873318
4.633663366336633,1.3965175785812243
4.653465346534653,1.4050918775899166
4.673267326732674,1.4131671198951663
4.693069306930693,1.4207200132476556
4.712871287128713,1.4277290758279702
4.732673267326733,1.4341746281828842
4.752475247524752,1.440038784852978
4.772277227722772,1.4453054460466994
4.792079207920793,1.4499602896520525
4.811881188118812,1.4539907638225762
4.8316831683168315,1.4573860803290537
4.851485148514852,1.460137208829533
4.871287128712871,1.462236872178654
4.891089108910891,1.4636795428698999
4.910891089108912,1.4644614406821088
4.930693069306931,1.4645805315819596
4.9504950495049505,1.4640365279171752
4.97029702970297,1.4628308899199973
4.99009900990099,1.4609668285256998
5.00990099009901,1.4584493094962725
5.02970297029703,1.4552850588243595
5.0495049504950495,1.45148256937498
5.069306930693069,1.4470521087035741
5.089108910891089,1.442005727965721
5.108910891089109,1.4363572718069377
5.128712871287129,1.4301223890882988
5.148514851485149,1.423318544264988
5.1683168316831685,1.415965029187965
5.188118811881188,1.4080829750439683
5.207920792079208,1.3996953640833336
5.227722772277227,1.3908270407079537
5.247524752475248,1.3815047214020035
5.267326732673268,1.371757002883673
5.2871287128712865,1.3616143677369086
5.306930693069307,1.3511091866462257
5.326732673267327,1.3402757162054093
5.346534653465346,1.3291500911016976
5.366336633663367,1.3177703092924558
5.3861386138613865,1.3061762085926425
5.405940594059405,1.2944094328833244
5.425742574257426,1.2825133859380142
5.445544554455446,1.2705331706537426
5.465346534653465,1.2585155112771247
5.485148514851486,1.2465086560458711
5.504950495049505,1.2345622575402924
5.524752475247524,1.222727227977551
5.544554455445545,1.2110555667071505
5.564356435643565,1.1996001573059867
5.584158415841584,1.1884145319531974
5.603960396039604,1.1775526012161965
5.623762376237624,1.1670683480254733
5.643564356435643,1.1570154854753585
5.663366336633663,1.1474470791707971
5.683168316831684,1.138415136140867
5.702970297029703,1.1299701638353277
5.7227722772277225,1.1221607043652193
5.742574257425743,1.1150328508729288
5.762376237623762,1.1086297546271815
5.782178217821782,1.1029911330192408
5.801980198019803,1.0981527899592107
5.821782178217822,1.0941461611023526
5.841584158415841,1.0909978967520486
5.861386138613861,1.0887294950890412
5.881188118811881,1.0873569975079833
5.900990099009901,1.0868907562944872
5.920792079207921,1.087335282700945
5.9405940594059405,1.0886891807888934
5.96039603960396,1.0909451693617294
5.98019801980198,1.0940901911134635
6.0,1.098105604982113
6.01980198019802,1.1029674548290955
6.03960396039604,1.1086468051486924
6.0594059405940595,1.1151101326790382
6.079207920792079,1.1223197616158114
6.099009900990099,1.1302343296397386
6.118811881188119,1.1388092721220024
6.138613861386139,1.1479973125839433
6.158415841584159,1.157748948646075
6.178217821782178,1.1680129241752435
6.198019801980198,1.1787366799968062
6.217821782178218,1.1898667772589413
6.237623762376237,1.2013492892159696
6.257425742574258,1.213130158756389
6.2772277227722775,1.225155520384229
6.297029702970296,1.2373719865364519
6.316831683168317,1.2497268990722576
6.336633663366337,1.2621685475055446
6.356435643564356,1.2746463560851615
6.376237623762377,1.2871110421806744
6.396039603960396,1.299514748631814
6.415841584158415,1.3118111527944045
6.435643564356436,1.3239555549923356
6.455445544554456,1.3359049489876187
6.475247524752475,1.3476180769315071
6.495049504950495,1.3590554710762315
6.514851485148515,1.3701794843248047
6.534653465346534,1.3809543114865137
6.554455445544554,1.3913460028975058
6.574257425742575,1.4013224718650816
6.594059405940594,1.4108534972057438
6.6138613861386135,1.4199107219729734
6.633663366336634,1.4284676493128674
6.653465346534653,1.4364996362442337
6.673267326732673,1.4439838860349845
6.693069306930694,1.450899439736893
6.712871287128713,1.4572271673460686
6.732673267326732,1.4629497589749123
6.752475247524753,1.468051716351803
6.772277227722772,1.4725193449058378
6.792079207920792,1.4763407466446596
6.811881188118813,1.4795058139919233
6.8316831683168315,1.4820062247165535
6.851485148514851,1.4838354380574263
6.871287128712871,1.484988692123059
6.891089108910891,1.4854630026259747
6.910891089108911,1.4852571629941371
6.930693069306931,1.4843717458865433
6.9504950495049505,1.4828091061262094
6.97029702970297,1.4805733850498657
6.99009900990099,1.4776705162597739
7.00990099009901,1.4741082327473678
7.02970297029703,1.4698960753411634
7.0495049504950495,1.4650454024105242
7.069306930693069,1.4595694007324433
7.089108910891089,1.4534830973988142
7.108910891089109,1.4468033726059193
7.128712871287128,1.4395489731248556
7.148514851485149,1.431740526199659
7.1683168316831685,1.4234005535583976
7.188118811881187,1.4145534851489474
7.207920792079208,1.4052256721251732
7.227722772277228,1.395445398508228
7.247524752475247,1.3852428908312615
7.267326732673268,1.3746503249418702
7.287128712871287,1.3637018289848226
7.306930693069306,1.3524334814172354
7.326732673267327,1.34088330271972
7.346534653465347,1.3290912392615544
7.366336633663366,1.3170991375581966
7.3861386138613865,1.3049507069297694
7.405940594059406,1.2926914683363595
7.425742574257425,1.2803686869391304
7.445544554455446,1.2680312857280278
7.465346534653466,1.2557297373831466
7.485148514851485,1.243515931417456
7.504950495049505,1.2314430136073375
7.524752475247524,1.2195651947817583
7.544554455445544,1.2079375262401661
7.564356435643565,1.1966156394354246
7.584158415841584,1.1856554481206312
7.603960396039604,1.1751128119438397
7.623762376237624,1.1650431615001182
7.643564356435643,1.155501086120841
7.663366336633663,1.1465398871831065
7.683168316831684,1.1382111014224547
7.702970297029703,1.130564000568208
7.7227722772277225,1.123645075504855
7.742574257425743,1.1174975149795419
7.762376237623762,1.1121606904902082
7.782178217821782,1.107669660253775
7.801980198019803,1.1040547059252586
7.821782178217822,1.101340915889946
7.841584158415841,1.0995478283918292
7.861386138613862,1.0986891464533257
7.881188118811881,1.0987725345082038
7.900990099009901,1.099799504001499
7.92079207920792,1.1017653920626156
7.9405940594059405,1.1046594339324904
7.96039603960396,1.1084649263570827
7.980198019801979,1.113159475884782
8.0,1.118715323140667
8.01980198019802,1.1250997318704117
8.03960396039604,1.132275429963724
8.05940594059406,1.140201088830976
8.07920792079208,1.1488318273980294
8.099009900990099,1.1581197275316426
8.118811881188119,1.1680143487954147
8.138613861386139,1.1784632319254322
8.158415841584159,1.189412382158164
8.178217821782178,1.2008067254018484
8.198019801980198,1.2125905320927362
8.217821782178218,1.2247078053233509
8.237623762376238,1.2371026313990916
8.257425742574258,1.2497194923292914
8.277227722772277,1.262503540868018
8.297029702970297,1.275400839588102
8.316831683168317,1.2883585661121413
8.336633663366337,1.3013251870594456
8.356435643564357,1.3142506035272314
8.376237623762377,1.327086271038141
8.396039603960396,1.3397852968842752
8.415841584158416,1.3523025177095458
8.435643564356436,1.3645945600206515
8.455445544554456,1.3766198861245762
8.475247524752476,1.388338827773717
8.495049504950495,1.3997136095727802
8.514851485148515,1.4107083639738227
8.534653465346535,1.4212891394661362
8.554455445544555,1.4314239033597298
8.574257425742575,1.4410825403694036
8.594059405940595,1.450236848032001
8.613861386138613,1.458860529833009
8.633663366336634,1.4669291867806122
8.653465346534654,1.4744203080440625
8.673267326732672,1.4813132611685536
8.693069306930694,1.4875892822886496
8.712871287128714,1.493231466685796
8.732673267326732,1.498224759970635
8.752475247524753,1.502555950116813
8.772277227722773,1.5062136605276708
8.792079207920791,1.50918834428012
8.811881188118813,1.5114722796589921
8.831683168316832,1.513059567070157
8.85148514851485,1.5139461273995394
8.871287128712872,1.5141297018677267
8.891089108910892,1.5136098534149889
8.91089108910891,1.512387969637914
8.930693069306932,1.510467267286472
8.950495049504951,1.5078527983174401
8.97029702970297,1.504551457486895
8.990099009900991,1.5005719914487086
9.00990099009901,1.4959250093084953
9.029702970297029,1.4906229945604774
9.04950495049505,1.4846803183086712
9.06930693069307,1.4781132536416457
9.089108910891088,1.4709399909909238
9.10891089108911,1.4631806542556702
9.12871287128713,1.4548573174188546
9.148514851485148,1.4459940213111988
9.16831683168317,1.436616790097536
9.188118811881187,1.4267536469632327
9.207920792079207,1.416434628365412
9.227722772277229,1.4056917960822286
9.247524752475247,1.3945592461428327
9.267326732673267,1.383073113549132
9.287128712871288,1.3712715715082913
9.306930693069306,1.3591948236819402
9.326732673267326,1.3468850877261658
9.346534653465348,1.3343865681488483
9.366336633663366,1.3217454162527968
9.386138613861386,1.3090096746727853
9.405940594059407,1.2962292037627092
9.425742574257425,1.2834555868609256
9.445544554455445,1.270742011276198
9.465346534653467,1.2581431217172347
9.485148514851485,1.245714842863438
9.504950495049505,1.2335141678754573
9.524752475247526,1.221598909905451
9.544554455445544,1.2100274141252945
9.564356435643564,1.1988582284790477
9.584158415841586,1.1881497323117496
9.603960396039604,1.1779597232470744
9.623762376237623,1.1683449641817563
9.643564356435645,1.1593606940132493
9.663366336633663,1.1510601076701217
9.683168316831683,1.1434938130917072
9.702970297029704,1.1367092748937477
9.722772277227723,1.1307502564193512
9.742574257425742,1.1256562735490516
9.762376237623764,1.1214620748618624
9.782178217821782,1.118197163340881
9.801980198019802,1.115885374673129
9.821782178217823,1.1145445262222675
9.841584158415841,1.1141861489397418
9.861386138613861,1.1148153118852324
9.881188118811881,1.1164305457880483
9.900990099009901,1.1190238684012748
9.92079207920792,1.122580910532013
9.94059405940594,1.1270811378447547
9.96039603960396,1.132498160095094
9.98019801980198,1.1388001165808115
10.0,1.1459501244618888
10.01980198019802,1.1539067752902366
10.03960396039604,1.1626246646170326
10.05940594059406,1.172054939853453
10.07920792079208,1.1821458525367163
10.099009900990099,1.192843302648569
10.118811881188119,1.204091364480608
10.138613861386139,1.2158327855771325
10.158415841584159,1.2280094523622673
10.178217821782178,1.240562818052032
10.198019801980198,1.253434290272415
10.217821782178218,1.2665655773905933
10.237623762376238,1.2798989938869587
10.257425742574258,1.2933777261427024
10.277227722772277,1.3069460608020491
10.297029702970297,1.320549578413837
10.316831683168317,1.3341353153946676
10.336633663366337,1.3476518975205507
10.356435643564357,1.3610496481802343
10.376237623762377,1.374280674544241
10.396039603960396,1.3872989346482303
10.415841584158416,1.400060288182402
10.435643564356436,1.412522533541307
10.455445544554454,1.424645433436187
10.475247524752476,1.4363907311183106
10.495049504950495,1.4477221590143379
10.514851485148514,1.4586054413415086
10.534653465346535,1.4690082920539262
10.554455445544555,1.4789004092743576
10.574257425742573,1.4882534671898568
10.594059405940595,1.4970411062332445
10.613861386138614,1.505238922236402
10.633663366336632,1.5128244551230565
10.653465346534654,1.5197771776076636
10.673267326732674,1.5260784842811765
10.693069306930692,1.531711681392068
