Frequency (Hz),Amplitude
0.0,0.6067259689745512
0.04,0.6064637750373829
0.08,0.6056774524171848
0.12,0.6043677787762669
0.16,0.6025360505186532
0.19999999999999998,0.6001840832599233
0.24,0.5973142125247778
0.27999999999999997,0.5939292947134636
0.32,0.5900327083921827
0.36,0.5856283559780576
0.39999999999999997,0.5807206659071349
0.44,0.5753145953945665
0.48,0.5694156339203759
0.52,0.5630298076032102
0.5599999999999999,0.5561636846592151
0.6,0.5488243821850363
0.64,0.541019574555342
0.6799999999999999,0.5327575037877929
0.72,0.5240469923061319
0.76,0.5148974586280249
0.7999999999999999,0.5053189366245175
0.84,0.4953220991486825
0.88,0.4849182870213796
0.9199999999999999,0.47411954460375877
0.96,0.4629386634946597
1.0,0.45138923628732697
1.04,0.4394857228316496
1.0799999999999998,0.42724353211288735
1.1199999999999999,0.4146791237265253
1.1600000000000001,0.40181013407039207
1.2,0.388655533883635
1.24,0.3752358257661493
1.28,0.36157329298734303
1.3199999999999998,0.34769231447908105
1.3599999999999999,0.3336197657286661
1.4,0.31938553177641205
1.44,0.30502316724242157
1.48,0.2905707499576654
1.52,0.27607199014294853
1.5599999999999998,0.26157767685977845
1.5999999999999999,0.2471475677536301
1.64,0.23285285524798238
1.68,0.218779366246194
1.72,0.20503165711502935
1.76,0.19173811499951374
1.7999999999999998,0.17905699606933423
1.8399999999999999,0.1671828859757878
1.88,0.15635215494946195
1.92,0.1468444138694192
1.9599999999999997,0.1389749292230757
2.0,0.1330716873335947
2.0399999999999996,0.12943328744129692
2.08,0.12827316651958498
2.12,0.1296692371170209
2.1599999999999997,0.1335436554101085
2.2,0.1396841762613878
2.2399999999999998,0.14779488500404847
2.28,0.1575515398475912
2.3200000000000003,0.1686429318321631
2.36,0.18079320727954815
2.4,0.1937691264214341
2.44,0.207378518007678
2.48,0.2214648691024675
2.5199999999999996,0.23590096299373622
2.56,0.25058294734782016
2.6,0.2654253275099038
2.6399999999999997,0.28035694857237303
2.68,0.29531785569959185
2.7199999999999998,0.3102568736826596
2.76,0.32512975175971204
2.8,0.3398977432723106
2.84,0.354526516320728
2.88,0.3689853153579218
2.92,0.3832463130148704
2.96,0.39728410648873197
2.9999999999999996,0.41107532423026033
3.04,0.42459831720718016
3.08,0.4378329153786202
3.1199999999999997,0.4507602347423745
3.16,0.463362523834655
3.1999999999999997,0.4756230411877459
3.2399999999999998,0.48752595721910447
3.28,0.4990562755075174
3.32,0.5101997695341679
3.36,0.5209429318207732
3.4,0.5312729330511157
3.44,0.5411775892661524
3.4799999999999995,0.5506453356131142
3.52,0.5596652054331376
3.5599999999999996,0.5682268137101996
3.5999999999999996,0.576320344091882
3.64,0.5839365388413853
3.6799999999999997,0.5910666911987584
3.7199999999999998,0.5977026397244556
3.76,0.6038367642750226
3.7999999999999994,0.60946198332291
3.84,0.6145717523832808
3.88,0.6191600633525348
3.9199999999999995,0.6232214445978238
3.96,0.6267509616660083
4.0,0.6297442185049819
4.04,0.6321973591113572
4.079999999999999,0.6341070695367821
4.12,0.6354705802014019
4.16,0.636285668477611
4.199999999999999,0.6365506615208343
4.24,0.6362644393369273
4.28,0.6354264380885235
4.319999999999999,0.6340366536552949
4.36,0.632095645476372
4.4,0.6296045407171791
4.4399999999999995,0.6265650388184075
4.4799999999999995,0.6229794165018983
4.5200000000000005,0.6188505333278042
4.56,0.6141818379197909
4.6,0.6089773750014688
4.640000000000001,0.6032417934181946
4.68,0.5969803553555828
4.72,0.5901989470106009
4.76,0.5829040910250445
4.8,0.5751029610570868
4.84,0.5668033989470646
4.88,0.5580139350330792
4.92,0.5487438122950284
4.96,0.539003015158909
5.0,0.5288023039850562
5.039999999999999,0.518153256505366
5.08,0.5070683177795547
5.12,0.4955608606284111
5.159999999999999,0.48364525899709204
5.2,0.4713369773373639
5.24,0.45865267991749104
5.279999999999999,0.4456103650311248
5.319999999999999,0.4322295304595706
5.36,0.41853137834928933
5.3999999999999995,0.4045390700363222
5.4399999999999995,0.3902780444639998
5.48,0.3757764179373706
5.52,0.3610654883406564
5.56,0.346180373984155
5.6,0.33116082636785854
5.64,0.3160522677574593
5.68,0.3009071187805728
5.72,0.28578649788380395
5.76,0.27076239159472826
5.8,0.25592040703573793
5.84,0.24136321439898692
5.879999999999999,0.22721474298729566
5.92,0.2136250641225799
5.96,0.2007755993830016
5.999999999999999,0.18888372056928446
6.04,0.17820485126800614
6.08,0.16902888699579185
6.119999999999999,0.16166665649286924
6.16,0.15642265692746588
6.2,0.1535543968202052
6.239999999999999,0.15322680221356208
6.279999999999999,0.15547793638008006
6.32,0.16021164775230395
6.359999999999999,0.16722068108256763
6.3999999999999995,0.17622887211056917
6.44,0.18693510999618212
6.4799999999999995,0.19904676253043754
6.52,0.21229901192800585
6.56,0.2264625124807947
6.6,0.2413436345969737
6.64,0.25678097204586364
6.68,0.2726405093217019
6.72,0.2888107423522617
6.76,0.3051983274036363
6.8,0.32172443668809236
6.84,0.33832180910306997
6.88,0.3549324087239813
6.92,0.3715055845633098
6.959999999999999,0.38799663092523545
7.0,0.40436566240794963
7.04,0.4205767338354809
7.08,0.43659715011939576
7.119999999999999,0.45239692332134046
7.16,0.4679483439825506
7.199999999999999,0.4832256414201908
7.239999999999999,0.4982047135610777
7.28,0.5128629113676572
7.32,0.5271788663263184
7.359999999999999,0.5411323520691519
7.3999999999999995,0.5547041731841458
7.4399999999999995,0.5678760757861727
7.4799999999999995,0.580630675586225
7.52,0.5929514000941953
7.5600000000000005,0.6048224422860177
7.599999999999999,0.616228723607057
7.64,0.6271558646067181
7.68,0.6375901618317752
7.719999999999999,0.6475185698685628
7.76,0.6569286876327818
7.800000000000001,0.6658087481721449
7.839999999999999,0.6741476113806631
7.88,0.6819347591313151
7.92,0.6891602924213696
7.959999999999999,0.6958149301961715
8.0,0.7018900095761972
8.040000000000001,0.707377487260884
8.08,0.7122699419238117
8.12,0.7165605774482606
8.159999999999998,0.7202432268819459
8.2,0.7233123570154448
8.24,0.7257630735117243
8.28,0.7275911265348203
8.32,0.7287929168448632
8.36,0.7293655023448699
8.399999999999999,0.7293066050825024
8.44,0.7286146187279524
8.48,0.7272886165676963
8.52,0.7253283600736008
8.56,0.7227343081284563
8.6,0.719507627012841
8.639999999999999,0.7156502012855196
8.68,0.7111646457204983
8.72,0.7060543185003733
8.76,0.7003233359079808
8.8,0.6939765888090909
8.84,0.6870197612790955
8.879999999999999,0.6794593517994092
8.92,0.6713026975369177
8.959999999999999,0.662558002326704
9.0,0.6532343691086017
9.040000000000001,0.6433418377281367
9.079999999999998,0.6328914292097826
9.12,0.6218951978544808
9.16,0.610366292816929
9.2,0.5983190311967032
9.24,0.5857689851513207
9.280000000000001,0.5727330861351757
9.32,0.5592297501191574
9.36,0.5452790285952256
9.399999999999999,0.5309027913727464
9.44,0.516124948699365
9.48,0.5009717221755197
9.52,0.48547197638643924
9.559999999999999,0.46965762627655055
9.6,0.4535641391832591
9.639999999999999,0.43723115527643147
9.68,0.4207032560295607
9.72,0.40403091728238594
9.76,0.3872716911871006
9.8,0.3704916690607534
9.84,0.35376728302730354
9.879999999999999,0.3371875044781255
9.92,0.32085648447809995
9.959999999999999,0.3048966421929073
10.0,0.28945212038546414
10.04,0.2746923590254039
10.079999999999998,0.26081524682521595
10.12,0.24804886017859643
10.16,0.2366502058864373
10.2,0.2268988091479722
10.24,0.21908285583382245
10.280000000000001,0.2134766095724563
10.319999999999999,0.21031059167210994
10.36,0.20974015560919462
10.4,0.21182144401147152
10.44,0.21650320724573235
10.48,0.22363753358442973
10.52,0.2330051679661816
10.559999999999999,0.24434654290452532
10.6,0.25739006947688015
10.639999999999999,0.2718729202076495
10.68,0.2875534414043711
10.72,0.3042166982181048
10.76,0.32167538623289066
10.799999999999999,0.3397681037332173
10.84,0.3583564075693319
10.879999999999999,0.3773215273402275
10.92,0.39656120881169293
10.96,0.41598690059172205
11.0,0.4355213513480425
11.04,0.45509660937543
11.08,0.47465238271113624
11.12,0.4941347071053235
11.16,0.5134948695656849
11.2,0.5326885405455276
11.24,0.5516750747961221
11.28,0.5704169478351742
11.319999999999999,0.5888793011989444
11.36,0.6070295749224212
11.4,0.6248372100347388
11.44,0.6422734073644244
11.48,0.6593109317504546
11.52,0.6759239529775771
11.559999999999999,0.6920879165125103
11.6,0.7077794385057643
11.64,0.7229762206210996
11.68,0.737656981122657
11.72,0.7518013993382513
11.759999999999998,0.7653900711646827
11.799999999999999,0.7784044737177311
11.84,0.7908269375793079
11.879999999999999,0.8026406253751872
11.92,0.8138295156439556
11.96,0.8243783911416107
11.999999999999998,0.8342728308764659
12.04,0.8434992052918336
12.08,0.8520446741152683
12.12,0.8598971864773554
12.16,0.8670454829733376
12.200000000000001,0.8734790994003249
12.239999999999998,0.8791883719535668
12.28,0.8841644437092441
12.32,0.8883992722596903
12.36,0.8918856384017073
12.4,0.8946171558101229
12.44,0.8965882816584219
12.479999999999999,0.8977943281768644
12.52,0.8982314751666705
12.559999999999999,0.8978967835175846
12.6,0.8967882098061634
12.64,0.8949046220841271
12.68,0.8922458170012586
12.719999999999999,0.8888125384464872
12.76,0.8846064979349162
12.799999999999999,0.8796303970194268
12.84,0.8738879520643126
12.88,0.8673839217872328
12.92,0.8601241380568829
12.959999999999999,0.8521155405300711
12.999999999999998,0.8433662158266062
13.04,0.8338854420777997
13.08,0.823683739849752
13.12,0.8127729306420869
13.16,0.8011662044043851
13.2,0.7888781978059617
13.239999999999998,0.7759250853516552
13.28,0.762324685871779
13.32,0.7480965874461646
13.36,0.7332622944723873
13.4,0.717845401382871
13.44,0.7018717984862682
13.479999999999999,0.6853699165909045
13.52,0.6683710185030183
13.559999999999999,0.6509095472215525
13.6,0.6330235427128884
13.64,0.6147551415672893
13.68,0.5961511766046852
13.719999999999999,0.5772638965333036
13.76,0.5581518288665551
13.799999999999999,0.5388808120421564
13.84,0.5195252242491675
13.88,0.500169435407112
13.919999999999998,0.4809095026060846
13.959999999999999,0.46185511413921665
14.0,0.4431317569247993
14.04,0.4248830278026236
14.08,0.4072729193757956
14.120000000000001,0.39048777325055756
14.16,0.37473739973487985
14.2,0.36025462216908455
14.239999999999998,0.34729226313520084
14.28,0.336116460721884
14.32,0.32699537523750094
14.36,0.3201830436215113
14.399999999999999,0.3158994701768738
14.44,0.3143097722983455
14.479999999999999,0.31550660895300964
14.52,0.3195002486063523
14.56,0.32621896552324064
14.6,0.3355195247855532
14.64,0.34720473093728366
14.68,0.36104366378239977
14.719999999999999,0.3767906187231951
14.76,0.3942002566624306
14.799999999999999,0.4130381153871975
14.84,0.43308682508153734
14.879999999999999,0.454148953534962
14.919999999999998,0.4760475205685793
14.959999999999999,0.49862508004504114
15.0,0.5217420399156872
15.04,0.5452746708623333
15.079999999999998,0.5691130798821782
15.120000000000001,0.5931593021021592
15.159999999999998,0.6173255840291673
15.199999999999998,0.6415328828811755
15.24,0.6657095793186533
15.28,0.6897903870113768
15.319999999999999,0.7137154366494495
15.36,0.7374295107416614
15.399999999999999,0.7608814066727172
15.439999999999998,0.7840234077258272
15.48,0.806810844387798
15.52,0.8292017308487827
15.559999999999999,0.85115646399655
15.600000000000001,0.8726375743088729
15.639999999999999,0.8936095198518532
15.679999999999998,0.9140385161133641
15.72,0.9338923956689478
15.76,0.9531404927274847
15.799999999999999,0.9717535484689555
15.84,0.9897036337979048
15.879999999999999,1.0069640867200775
15.919999999999998,1.0235094620294756
15.96,1.0393154913873206
16.0,1.054359052199215
16.04,1.0686181439649962
16.080000000000002,1.082071870997875
16.12,1.0947004305941759
16.16,1.1064851058893632
16.200000000000003,1.1174082627656925
16.24,1.1274533502865223
16.279999999999998,1.136604904226043
16.319999999999997,1.1448485533436403
16.36,1.1521710281226742
16.4,1.1585601717556036
16.439999999999998,1.1640049532134327
16.48,1.168495482289055
16.52,1.172023026552253
16.56,1.1745800302008018
16.6,1.1761601348378856
16.64,1.1767582022526364
16.68,1.1763703393286637
16.72,1.1749939252568058
16.759999999999998,1.172627641283569
16.799999999999997,1.169271503287887
16.84,1.164926897547172
16.88,1.1595966201308812
16.919999999999998,1.1532849204484381
16.96,1.1459975495802879
17.0,1.1377418141392894
17.04,1.1285266365477862
17.080000000000002,1.1183626227775563
17.12,1.1072621387898716
17.16,1.0952393971371026
17.2,1.0823105554513284
17.24,1.0684938288577126
17.279999999999998,1.0538096187187465
17.32,1.0382806605504402
17.36,1.021932194463452
17.4,1.0047921620832685
17.44,0.9868914346051874
17.48,0.9682640774534195
17.52,0.9489476579459931
17.56,0.9289836034198292
17.6,0.9084176184309886
17.64,0.8873001708802697
17.68,0.8656870581541496
17.72,0.8436400654871163
17.759999999999998,0.8212277295248054
17.799999999999997,0.7985262201394078
17.84,0.7756203523546743
17.88,0.752604736913646
17.919999999999998,0.7295850712889872
17.96,0.7066795609686186
18.0,0.6840204411616145
18.04,0.6617555384927969
18.080000000000002,0.6400497671601987
18.12,0.6190863910637321
18.159999999999997,0.5990678011397215
18.2,0.5802154590674793
18.24,0.5627685577863969
18.279999999999998,0.5469808743563339
18.32,0.5331152895845488
18.36,0.5214355858818083
18.4,0.5121954721600475
18.44,0.5056253427626884
18.48,0.5019179834018669
18.52,0.5012150927106886
18.560000000000002,0.5035968075186054
18.6,0.5090761594821639
18.64,0.5175995154626349
18.679999999999996,0.5290528178129146
18.72,0.5432722842740072
18.759999999999998,0.5600575443547359
18.799999999999997,0.5791851291160149
18.84,0.6004206707465167
18.88,0.6235288373970668
18.919999999999998,0.6482806719068361
18.96,0.6744584721135185
19.0,0.7018586108607929
19.04,0.7302927825823581
19.080000000000002,0.7595881419271928
19.119999999999997,0.7895867241605977
19.159999999999997,0.8201444457397631
19.2,0.8511298981477176
19.24,0.882423077973088
19.279999999999998,0.9139141431534225
19.32,0.9455022474664434
19.36,0.9770944796964475
19.4,1.0086049173099396
19.44,1.0399537942932549
19.48,1.0710667769778037
19.52,1.101874338701958
19.560000000000002,1.1323112229791468
19.6,1.1623159847452016
19.639999999999997,1.1918305997753074
19.68,1.2208001331911362
19.72,1.2491724589361808
19.759999999999998,1.276898023070828
19.8,1.3039296446665187
19.84,1.3302223489288003
19.88,1.3557332279391203
19.919999999999998,1.38042132507373
19.96,1.4042475397388001
20.0,1.427174549561902
20.04,1.449166747609803
20.08,1.470190192570202
20.119999999999997,1.4902125701491729
20.159999999999997,1.5092031642042338
20.2,1.5271328363624033
20.24,1.5439740130693453
20.279999999999998,1.5597006791848678
20.32,1.5742883773865894
20.36,1.5877142127710513
20.4,1.599956862153706
20.44,1.610996587668711
20.48,1.6208152543589802
20.52,1.6293963515286798
20.560000000000002,1.636725017706369
20.599999999999998,1.6427880691388566
20.639999999999997,1.6475740318054755
20.68,1.6510731770111782
20.72,1.65327756068625
20.759999999999998,1.654181066591944
20.8,1.6537794537063502
20.84,1.652070408145075
20.88,1.649053600058074
20.92,1.6447307460394376
20.96,1.639105677692444
21.0,1.6321844171101132
21.04,1.6239752601642388
21.08,1.6144888686449477
21.119999999999997,1.603738372462255
21.159999999999997,1.5917394833122946
21.2,1.5785106214277926
21.24,1.5640730572770916
21.279999999999998,1.5484510703522583
21.32,1.5316721274955298
21.36,1.5137670835575534
21.4,1.4947704075584776
21.44,1.4747204379327696
21.48,1.4536596708721594
21.52,1.4316350862260698
21.56,1.4086985158518408
21.599999999999998,1.384907059692061
21.639999999999997,1.3603235551372188
21.68,1.3350171053250308
21.72,1.309063671811382
21.759999999999998,1.2825467363470846
21.8,1.255558035066093
21.84,1.2281983659000053
21.88,1.20057846603473
21.92,1.1728199501407799
21.96,1.1450562912212225
22.0,1.117433813390169
22.04,1.0901126488212158
22.08,1.063267588685713
22.119999999999997,1.0370887297135682
22.16,1.011781784492449
22.2,0.9875678867817371
22.24,0.9646826874497159
22.28,0.9433745100939323
22.32,0.9239013299861661
22.36,0.9065263712910293
22.4,0.8915122021741325
22.44,0.8791133576340464
22.48,0.8695677351138984
22.519999999999996,0.8630872659407743
22.56,0.8598486177004121
22.599999999999998,0.8599848591260906
22.639999999999997,0.8635790487751979
22.68,0.8706605483375225
22.72,0.8812045215869478
22.759999999999998,0.8951346320909672
22.8,0.9123285073212262
22.84,0.9326252021574261
22.88,0.9558337374893011
22.92,0.9817418161886359
22.96,1.0101239847183425
23.0,1.0407487452497965
23.04,1.073384364887126
23.08,1.1078033305738204
23.119999999999997,1.1437855403932156
23.16,1.1811204039740657
23.2,1.2196080576997774
23.24,1.259059899422763
23.28,1.29929862646447
23.32,1.3401579306983051
23.36,1.381481972717897
23.400000000000002,1.4231247276669137
23.44,1.4649492702043105
23.479999999999997,1.506827045836467
23.519999999999996,1.5486371602058686
23.56,1.5902657062560306
23.599999999999998,1.6316051407535346
23.639999999999997,1.6725537157289405
23.68,1.7130149663817935
23.72,1.7528972543756018
23.759999999999998,1.7921133638324092
23.8,1.830580146422468
23.84,1.8682182115112673
23.88,1.9049516572118326
23.92,1.9407078382805127
23.96,1.9754171670088803
23.999999999999996,2.009012943547963
24.04,2.041431212416755
24.08,2.0726106422711053
24.119999999999997,2.1024924263260756
24.16,2.1310202011264496
24.2,2.1581399816411655
24.24,2.183800110916299
24.28,2.2079512227580156
24.32,2.230546216132476
24.36,2.251540240165991
24.400000000000002,2.270890688807978
24.439999999999998,2.2885572043838796
24.479999999999997,2.3045016894175956
24.52,2.318688326245897
24.56,2.33108360408292
24.599999999999998,2.3416563533241703
24.64,2.350377787008656
24.68,2.357221549487792
24.72,2.362163772483067
24.759999999999998,2.365183138854431
24.8,2.3662609545505253
24.84,2.365381229374666
24.88,2.3625307673799645
24.92,2.357699267908242
24.959999999999997,2.3508794385153617
24.999999999999996,2.342067121286654
25.04,2.3312614343467035
25.08,2.3184649307169045
25.119999999999997,2.3036837770809817
25.16,2.286927955494929
25.2,2.268211491636587
25.24,2.2475527138472486
25.28,2.224974547990832
25.32,2.200504854066158
25.36,2.1741768115774116
25.4,2.146029361922135
25.439999999999998,2.1161077175209737
25.479999999999997,2.084463949114365
25.52,2.0511576646089256
25.56,2.0162567950809787
25.599999999999998,1.9798385060273018
25.64,1.9419902546484091
25.68,1.9028110167535337
25.72,1.8624127095882441
25.76,1.8209218391533415
25.8,1.778481401824277
25.84,1.7352530693626582
25.880000000000003,1.6914196823012484
25.919999999999998,1.6471880670364423
25.959999999999997,1.6027921736780821
25.999999999999996,1.5584965004839286
26.04,1.514599720886132
26.08,1.4714383538303986
26.119999999999997,1.4293902101317486
26.16,1.388877201248817
26.2,1.3503669126373306
26.24,1.3143721349685122
26.28,1.2814473491270963
26.32,1.2521810443179033
26.36,1.2271828191679781
26.4,1.2070646020770799
26.439999999999998,1.1924161324957274
26.479999999999997,1.1837760633013017
26.52,1.1816014693468602
26.56,1.1862397431161296
26.599999999999998,1.1979072772415
26.64,1.2166785832979377
26.68,1.242487624716848
26.72,1.2751407133910646
26.76,1.3143381692755416
26.8,1.3597007467184605
26.84,1.4107967980221796
26.88,1.4671670088334232
26.919999999999998,1.5283448040858565
26.959999999999997,1.5938717322783922
27.0,1.6633080277340682
27.04,1.7362390617789962
27.08,1.8122785870131426
27.119999999999997,1.8910696618925023
27.16,1.9722840164078494
27.2,2.0556204558192843
27.24,2.140802740383858
27.28,2.2275772443567434
27.32,2.3157105927287365
27.36,2.4049873973252787
27.4,2.4952081602018534
27.439999999999998,2.586187376336844
27.479999999999997,2.677751844612539
27.52,2.7697391821009023
27.56,2.8619965287997937
27.599999999999998,2.9543794260839236
27.64,3.0467508507698695
27.68,3.1389803868469803
27.72,3.2309435179366344
27.76,3.322521024986501
27.8,3.4135984753194526
27.839999999999996,3.5040657907788364
27.88,3.593816884253572
