Frequency (Hz),Amplitude
0.0,1.4084057365861646
0.01978021978021978,1.4077269217394097
0.03956043956043956,1.4056911706386055
0.05934065934065934,1.4023005632398888
0.07912087912087912,1.397558564936475
0.0989010989010989,1.3914700247827199
0.11868131868131868,1.3840411730579398
0.13846153846153844,1.3752796182219915
0.15824175824175823,1.3651943433322768
0.17802197802197803,1.3537957020121116
0.1978021978021978,1.3410954140833387
0.21758241758241756,1.3271065610033408
0.23736263736263735,1.3118435812793252
0.2571428571428572,1.2953222660715153
0.2769230769230769,1.2775597552450602
0.2967032967032967,1.2585745341888985
0.31648351648351647,1.238386431793616
0.3362637362637363,1.2170166200713093
0.35604395604395606,1.1944876160167086
0.3758241758241758,1.1708232864560904
0.3956043956043956,1.1460488568197063
0.4153846153846154,1.1201909250176574
0.4351648351648351,1.093277481918303
0.45494505494505494,1.065337940346576
0.4747252747252747,1.0364031750753118
0.4945054945054945,1.0065055770248725
0.5142857142857143,0.9756791258894608
0.5340659340659341,0.9439594867763866
0.5538461538461538,0.9113841383294836
0.5736263736263736,0.8779925424364894
0.5934065934065934,0.8438263693268189
0.6131868131868132,0.8089297971618443
0.6329670329670329,0.773349912886425
0.6527472527472528,0.7371372523697809
0.6725274725274726,0.7003465346513561
0.6923076923076923,0.6630376705416885
0.7120879120879121,0.6252771650213449
0.7318681318681318,0.5871400943482261
0.7516483516483516,0.548712936953403
0.7714285714285715,0.5100976968725777
0.7912087912087912,0.4714180226884053
0.810989010989011,0.432828468701951
0.8307692307692308,0.39452879675181973
0.8505494505494506,0.35678648462353885
0.8703296703296702,0.31997267112727973
0.8901098901098901,0.28461976434520864
0.9098901098901099,0.2515117256266908
0.9296703296703297,0.22181389888003436
0.9494505494505494,0.1972141505782993
0.9692307692307692,0.17992990932036115
0.989010989010989,0.1722533517202659
1.0087912087912088,0.17548103380575394
1.0285714285714287,0.189044370019963
1.0483516483516484,0.21091392579625748
1.0681318681318681,0.2387475124983103
1.087912087912088,0.27062179186935986
1.1076923076923075,0.3051700816303287
1.1274725274725275,0.3414684444838018
1.1472527472527472,0.3788936013526598
1.1670329670329669,0.417016268444427
1.1868131868131868,0.4555314330318138
1.2065934065934065,0.4942146403998579
1.2263736263736265,0.5328947137845627
1.2461538461538462,0.5714365386847072
1.2659340659340659,0.6097300048319619
1.2857142857142858,0.6476827607246066
1.3054945054945055,0.6852153702595684
1.3252747252747252,0.7222580125492336
1.3450549450549452,0.7587481929257778
1.3648351648351649,0.7946291293959947
1.3846153846153846,0.8298485985952476
1.4043956043956045,0.8643580997262988
1.4241758241758242,0.8981122420775628
1.443956043956044,0.9310682920677005
1.4637362637362636,0.9631858356590722
1.4835164835164834,0.9944265252398446
1.5032967032967033,1.0247538890461472
1.523076923076923,1.0541331873569137
1.542857142857143,1.0825313039833384
1.5626373626373626,1.1099166646005993
1.5824175824175823,1.1362591756293403
1.6021978021978023,1.161530178934324
1.621978021978022,1.185702418746531
1.6417582417582417,1.2087500180549573
1.6615384615384616,1.2306484623396923
1.6813186813186813,1.2513745889881422
1.7010989010989013,1.2709065810926563
1.720879120879121,1.289223964600384
1.7406593406593405,1.3063076079963312
1.7604395604395604,1.3221397238638064
1.7802197802197801,1.3367038717943562
1.7999999999999998,1.3499849622202371
1.8197802197802198,1.361969260822452
1.8395604395604395,1.3726443932322236
1.8593406593406594,1.3819993497954064
1.879120879120879,1.3900244902120638
1.8989010989010988,1.3967115478986003
1.9186813186813187,1.4020536339488259
1.9384615384615385,1.4060452405954815
1.9582417582417584,1.408682244094858
1.978021978021978,1.4099619069758866
1.9978021978021978,1.4098828796118374
2.0175824175824175,1.40844520108827
2.0373626373626372,1.4056502993550484
2.0571428571428574,1.401500990665065
2.076923076923077,1.3960014783158197
2.096703296703297,1.389157350725239
2.1164835164835165,1.3809755788888924
2.1362637362637362,1.3714645132826684
2.1560439560439564,1.360633880294904
2.175824175824176,1.348494778293944
2.195604395604396,1.3350596734633295
2.215384615384615,1.3203423955675875
2.2351648351648348,1.3043581338489771
2.254945054945055,1.2871234333003851
2.2747252747252746,1.2686561916152026
2.2945054945054943,1.2489756571835438
2.314285714285714,1.2281024285897244
2.3340659340659338,1.2060584561740422
2.353846153846154,1.1828670463584574
2.3736263736263736,1.1585528696111116
2.3934065934065933,1.133141973149582
2.413186813186813,1.10666179977601
2.4329670329670328,1.0791412146202863
2.452747252747253,1.0506105420737146
2.4725274725274726,1.0211016158696997
2.4923076923076923,0.9906478461742962
2.512087912087912,0.9592843087799808
2.5318681318681318,0.9270478631832271
2.5516483516483515,0.8939773086660118
2.5714285714285716,0.8601135907826972
2.5912087912087913,0.825500075311882
2.610989010989011,0.7901829134328053
2.6307692307692307,0.7542115316555754
2.6505494505494505,0.717639294489899
2.6703296703296706,0.6805244095597911
2.6901098901098903,0.6429311780494794
2.70989010989011,0.604931744911531
2.7296703296703297,0.5666085847694348
2.7494505494505495,0.5280580906156079
2.769230769230769,0.48939584715169626
2.7890109890109893,0.4507645275246658
2.808791208791209,0.4123459514901182
2.8285714285714287,0.37437984903388055
2.8483516483516484,0.3371935232391189
2.8681318681318677,0.30124910243704034
2.887912087912088,0.2672179496886947
2.9076923076923076,0.23609137737419467
2.9274725274725273,0.20931840200780802
2.947252747252747,0.18888628297112176
2.9670329670329667,0.17709675688124896
2.986813186813187,0.17574860645737142
3.0065934065934066,0.18507736153030951
3.0263736263736263,0.20359046316435533
3.046153846153846,0.22901218424554828
3.0659340659340657,0.25923721997839977
3.085714285714286,0.2926845226376436
3.1054945054945056,0.32826218037333477
3.1252747252747253,0.36523117476780276
3.145054945054945,0.40308559237518277
3.1648351648351647,0.44146985043189585
3.184615384615385,0.4801256930710094
3.2043956043956046,0.5188589020310325
3.2241758241758243,0.557518300534819
3.243956043956044,0.5959823188533939
3.2637362637362637,0.6341502385156534
3.2835164835164834,0.6719363734644053
3.3032967032967036,0.7092661283612394
3.3230769230769233,0.7460732798682189
3.342857142857143,0.78229807003449
3.3626373626373627,0.8178858489327604
3.3824175824175824,0.8527860952634433
3.4021978021978025,0.8869517013049801
3.4219780219780223,0.9203384455431624
3.441758241758242,0.9529046004066087
3.4615384615384617,0.9846106385063973
3.481318681318681,1.0154190115302102
3.501098901098901,1.0452939832905213
3.520879120879121,1.0742015035174568
3.5406593406593405,1.1021091125630258
3.5604395604395602,1.1289858697248307
3.58021978021978,1.1548022997255845
3.5999999999999996,1.1795303532143997
3.61978021978022,1.203143378132582
3.6395604395604395,1.225616099511648
3.659340659340659,1.246924605814458
3.679120879120879,1.267046340340576
3.6989010989010986,1.2859600965300286
3.718681318681319,1.3036460162398318
3.7384615384615385,1.320085590254019
3.758241758241758,1.335261660433437
3.7780219780219784,1.3491584230256946
3.7978021978021976,1.3617614327466459
3.8175824175824173,1.373057607317216
3.8373626373626375,1.3830352321978694
3.8571428571428568,1.39168396531054
3.876923076923077,1.3989948415770874
3.896703296703296,1.4049602771354892
3.916483516483517,1.4095740731228044
3.936263736263736,1.4128314189369449
3.956043956043956,1.4147288949095544
3.9758241758241755,1.4152644743410738
3.9956043956043956,1.4144375248644463
4.015384615384615,1.4122488091202938
4.035164835164835,1.4087004847407043
4.054945054945055,1.4037961036535505
4.0747252747252745,1.3975406107346557
4.094505494505494,1.389940341850789
4.114285714285715,1.3810030213541393
4.134065934065934,1.370737759108071
4.153846153846154,1.3591550471463298
4.173626373626373,1.346266756093233
4.193406593406594,1.3320861315029866
4.213186813186813,1.3166277903121106
4.232967032967033,1.299907717643239
4.252747252747253,1.2819432642515325
4.2725274725274724,1.2627531449717848
4.292307692307692,1.2423574386058436
4.312087912087913,1.2207775897936815
4.331868131868132,1.198036413541687
4.351648351648352,1.174158103248014
4.371428571428571,1.1491682432781414
4.391208791208792,1.1230938274196394
4.410989010989011,1.0959632849053458
4.43076923076923,1.0678065161665435
4.450549450549451,1.0386549411057229
4.4703296703296695,1.0085415635167292
4.49010989010989,0.9775010564140705
4.50989010989011,0.9455698745779663
4.52967032967033,0.9127864027518027
4.549450549450549,0.8791911508969408
4.569230769230769,0.8448270120940373
4.589010989010989,0.8097396046543445
4.608791208791209,0.7739777286446726
4.628571428571428,0.7375939797028204
4.648351648351649,0.7006455818832953
4.6681318681318675,0.6631955297845221
4.687912087912088,0.6253141740068342
4.707692307692308,0.5870814523919122
4.7274725274725276,0.5485900781199134
4.747252747252747,0.5099501710411807
4.767032967032967,0.47129610557655444
4.786813186813187,0.43279682295146216
4.806593406593407,0.3946716406089615
4.826373626373626,0.35721486686213905
4.846153846153847,0.3208344709280979
4.8659340659340655,0.28611247407817847
4.885714285714286,0.25389556588237333
4.905494505494506,0.2254150820119597
4.9252747252747255,0.2023909305889747
4.945054945054945,0.18695784902589163
4.964835164835165,0.18113610253448656
4.984615384615385,0.18585751241963203
5.004395604395604,0.20036478041860864
5.024175824175824,0.22270804520293325
5.043956043956045,0.2507308117658837
5.0637362637362635,0.2826601617271571
5.083516483516483,0.3172162548467551
5.103296703296703,0.35351721468326025
5.123076923076923,0.39095745825875977
5.142857142857143,0.4291135654421661
5.162637362637362,0.4676810370595782
5.182417582417583,0.506433707852474
5.2021978021978015,0.5451979176522548
5.221978021978022,0.5838359444313659
5.241758241758242,0.6222352175153257
5.2615384615384615,0.6603011686255262
5.281318681318681,0.6979524064223969
5.301098901098901,0.7351174010272711
5.320879120879121,0.7717321677330322
5.340659340659341,0.8077386238113243
5.36043956043956,0.8430834065871412
5.380219780219781,0.8777170127770332
5.3999999999999995,0.9115931649950694
5.41978021978022,0.9446683411642091
5.43956043956044,0.976901422274087
5.4593406593406595,1.0082534271431998
5.479120879120879,1.038687311840406
5.498901098901099,1.0681678176324758
5.518681318681319,1.0966613556692757
5.538461538461538,1.124135919696332
5.558241758241758,1.1505610202901593
5.578021978021979,1.1759076357111227
5.5978021978021975,1.2001481756390113
5.617582417582418,1.2232564549231466
5.637362637362637,1.245207675125619
5.6571428571428575,1.265978412123628
5.676923076923077,1.2855466084073743
5.696703296703297,1.3038915689939898
5.716483516483517,1.32099396009703
5.736263736263735,1.3368358098621635
5.756043956043956,1.3514005106132276
5.775824175824176,1.3646728221592268
5.795604395604395,1.3766388757966639
5.815384615384615,1.3872861787101083
5.835164835164835,1.3966036185282475
5.854945054945055,1.4045814678380641
5.874725274725275,1.4112113884968547
5.894505494505494,1.4164864356129345
5.914285714285715,1.4204010610924014
5.934065934065933,1.4229511166723081
5.953846153846154,1.4241338563804655
5.973626373626374,1.423947938380679
5.993406593406593,1.422393426178579
6.013186813186813,1.4194717891798139
6.032967032967033,1.4151859026075462
6.052747252747253,1.4095400468026849
6.072527472527473,1.4025399059466568
6.092307692307692,1.3941925662648211
6.112087912087913,1.384506513788234
6.131868131868131,1.3734916317744545
6.151648351648352,1.3611591979134985
6.171428571428572,1.3475218814761136
6.191208791208791,1.3325937405973587
6.210989010989011,1.3163902199325785
6.230769230769231,1.298928148975732
6.2505494505494505,1.2802257413957525
6.270329670329671,1.2603025958274299
6.29010989010989,1.2391796986548074
6.309890109890111,1.2168794294526464
6.329670329670329,1.1934255699131984
6.349450549450549,1.1688433172928692
6.36923076923077,1.1431593036793735
6.3890109890109885,1.1164016227263756
6.408791208791209,1.0885998659548517
6.428571428571428,1.0597851713177573
6.4483516483516485,1.029990287518625
6.468131868131868,0.9992496586415373
6.487912087912088,0.9675995350952292
6.507692307692308,0.935078118852882
6.527472527472527,0.9017257537068609
6.547252747252747,0.8675851750868814
6.567032967032967,0.8327018394106674
6.5868131868131865,0.7971243607034457
6.606593406593407,0.7609050935010389
6.626373626373626,0.7241009176519654
6.6461538461538465,0.6867743054246321
6.665934065934065,0.6489947888999065
6.685714285714286,0.6108410034524027
6.705494505494506,0.572403573465135
6.725274725274725,0.5337892496173333
6.745054945054945,0.49512693689553344
6.764835164835165,0.4565766243340149
6.7846153846153845,0.4183428289237181
6.804395604395605,0.3806951211259541
6.824175824175824,0.34399972845396176
6.8439560439560445,0.3087680070528855
6.863736263736263,0.2757285175467598
6.883516483516484,0.24592452139787316
6.903296703296704,0.22081309175033292
6.923076923076923,0.20226890938657419
6.942857142857143,0.19228744035232004
6.962637362637362,0.19225277188200265
6.9824175824175825,0.20217529841460888
7.002197802197802,0.22068624927917518
7.021978021978022,0.2457953075458166
7.041758241758242,0.2756263732674123
7.061538461538461,0.30871896631762313
7.081318681318681,0.3440266406138431
7.101098901098901,0.3808184070953536
7.1208791208791204,0.41858115988760985
7.140659340659341,0.4569474055200278
7.16043956043956,0.49564662455473923
7.1802197802197805,0.5344735509747139
7.199999999999999,0.5732675698179742
7.21978021978022,0.6118992238555563
7.23956043956044,0.6502612521546351
7.259340659340659,0.6882625416238478
7.279120879120879,0.7258239764371002
7.298901098901099,0.7628755436250814
7.318681318681318,0.7993542838914973
7.338461538461539,0.8352028204979985
7.358241758241758,0.8703682897680423
7.3780219780219785,0.9048015548104855
7.397802197802197,0.9384566217815532
7.417582417582418,0.9712902028856981
7.437362637362638,1.003261386976345
7.457142857142857,1.0343313899344482
7.476923076923077,1.0644633647963497
7.496703296703297,1.0936222570402305
7.516483516483516,1.1217746942818412
7.536263736263736,1.1488889023762618
7.556043956043957,1.1749346419066244
7.575824175824176,1.1998831604908946
7.595604395604395,1.2237071574067884
7.615384615384615,1.2463807578318702
7.635164835164835,1.2678794945942697
7.654945054945055,1.28818029578319
7.674725274725275,1.3072614769156972
7.694505494505494,1.3251027366229406
7.7142857142857135,1.3416851550270115
7.734065934065935,1.3569911941417385
7.753846153846154,1.371004699758869
7.7736263736263735,1.3837109043829279
7.793406593406592,1.3950964308592653
7.813186813186814,1.4051492964058858
7.832967032967034,1.4138589168132827
7.852747252747252,1.4212161106205419
7.872527472527472,1.4272131031127877
7.892307692307693,1.4318435300164443
7.912087912087912,1.4351024407949968
7.931868131868132,1.4369863014714876
7.951648351648351,1.437492996924872
7.971428571428572,1.436621832626197
7.991208791208791,1.4343735357986838
8.010989010989011,1.4307502560031558
8.03076923076923,1.4257555651677183
8.05054945054945,1.4193944570989274
8.07032967032967,1.4116733465302966
8.09010989010989,1.4026000677859602
8.10989010989011,1.3921838731601281
8.129670329670331,1.380435431140595
8.149450549450549,1.3673668246359074
8.169230769230769,1.3529915494031373
8.189010989010988,1.33732451291807
8.20879120879121,1.3203820339837526
8.22857142857143,1.3021818434399415
8.248351648351647,1.2827430864174887
8.268131868131867,1.2620863266841937
8.287912087912087,1.240233553755865
8.307692307692308,1.2172081936082992
8.327472527472528,1.193035124030869
8.347252747252746,1.1677406959257493
8.367032967032966,1.1413527621968083
8.386813186813187,1.1139007163144348
8.406593406593407,1.085415543222368
8.426373626373627,1.0559298860199917
8.446153846153845,1.0254781328758662
8.465934065934066,0.9940965300052519
8.485714285714286,0.9618233284137607
8.505494505494505,0.9286989746744725
8.525274725274725,0.8947663595621375
8.545054945054945,0.8600711433515057
8.564835164835165,0.8246621836527108
8.584615384615384,0.7885921017950561
8.604395604395604,0.7519180385021307
8.624175824175826,0.7147026712872306
8.643956043956043,0.6770155983503894
8.663736263736263,0.6389352426750523
8.683516483516483,0.6005515049594796
8.703296703296704,0.561969510203634
8.723076923076924,0.5233149746687301
8.742857142857142,0.48474200613865825
8.762637362637362,0.44644459898363564
8.782417582417583,0.40867377312539
8.802197802197803,0.3717632958078208
8.821978021978023,0.336168118980637
8.84175824175824,0.30252029058988855
8.86153846153846,0.2717042242099486
8.881318681318682,0.24493851354942825
8.901098901098901,0.22380890319751587
8.920879120879121,0.2101222769493096
8.940659340659339,0.20543560945260864
8.96043956043956,0.21037629906178237
8.98021978021978,0.22429769212962217
9.0,0.24563566522110372
9.01978021978022,0.27258800923554727
9.03956043956044,0.3035784069544971
9.05934065934066,0.33739728393514684
9.079120879120879,0.3731670955414761
9.098901098901099,0.41026053264690754
9.11868131868132,0.4482257583183801
9.138461538461538,0.4867309899980311
9.158241758241758,0.5255264281643462
9.178021978021977,0.5644187822669513
9.197802197802199,0.6032542940501362
9.217582417582419,0.6419073481311492
9.237362637362637,0.6802727409387559
9.257142857142856,0.7182603596748872
9.276923076923078,0.7557914667179039
9.296703296703297,0.792796068012792
9.316483516483517,0.829211023958395
9.336263736263735,0.8649786762860809
9.356043956043957,0.9000458386088458
9.375824175824176,0.9343630467628316
9.395604395604396,0.9678839971120196
9.415384615384616,1.0005651224778864
9.435164835164835,1.0323652699582784
9.454945054945055,1.0632454549538313
9.474725274725275,1.0931686727278915
9.494505494505495,1.1220997537713155
9.514285714285714,1.150005252772075
9.534065934065934,1.1768533635364837
9.553846153846154,1.2026138540650488
9.573626373626373,1.2272580173532202
9.593406593406593,1.2507586345033763
9.613186813186815,1.273089947496504
9.632967032967032,1.2942276395485208
9.652747252747252,1.3141488214158628
9.672527472527472,1.3328320223531271
9.692307692307693,1.3502571846873885
9.712087912087913,1.3664056611782307
9.731868131868131,1.3812602144934656
9.75164835164835,1.3948050182578153
9.771428571428572,1.4070256592336037
9.791208791208792,1.4179091402745603
9.810989010989012,1.4274438837602184
9.83076923076923,1.435619735272959
9.850549450549451,1.4424279673251754
9.87032967032967,1.4478612829815496
9.89010989010989,1.4519138192543133
9.90989010989011,1.4545811501768322
9.92967032967033,1.455860289486092
9.94945054945055,1.4557496928666647
9.96923076923077,1.454249259730072
9.989010989010989,1.4513603345230062
10.008791208791209,1.447085707578062
10.028571428571428,1.4414296155405273
10.048351648351648,1.434397741426267
10.068131868131868,1.4259972143885093
10.08791208791209,1.4162366092971883
10.107692307692307,1.4051259462632004
10.127472527472527,1.3926766902739123
10.147252747252747,1.3789017511451849
10.167032967032966,1.3638154840428178
10.186813186813188,1.34743369088247
10.206593406593406,1.3297736229863768
10.226373626373626,1.3108539854597674
10.246153846153845,1.2906949438548339
10.265934065934067,1.269318133820786
10.285714285714286,1.2467466746029958
10.305494505494504,1.223005187462071
10.325274725274724,1.1981198203488843
10.345054945054946,1.1721182805117274
10.364835164835165,1.1450298771513858
10.384615384615385,1.1168855768131618
10.404395604395603,1.0877180749566449
10.424175824175824,1.0575618881392113
10.443956043956044,1.026453472577405
10.463736263736264,0.994431376637564
10.483516483516484,0.9615364372359232
10.503296703296703,0.927812033458636
10.523076923076923,0.8933044153265686
10.542857142857143,0.8580631320874521
10.562637362637362,0.8221415935567022
10.582417582417584,0.7855978111022573
