Time (s),Filtered Signal
0.0,-0.02760996475052254
0.033370165745856356,-0.0509397392212275
0.06674033149171271,-0.07747619740617571
0.10011049723756907,-0.10921456585412681
0.13348066298342542,-0.14331687561658307
0.16685082872928178,-0.1711762191347758
0.20022099447513814,-0.17956824237862742
0.2335911602209945,-0.154256183220113
0.26696132596685085,-0.08540702167319417
0.30033149171270723,0.026970218130023014
0.33370165745856356,0.1699630378298922
0.3670718232044199,0.31901543294578766
0.4004419889502763,0.44390926496725674
0.43381215469613266,0.517806647709407
0.467182320441989,0.5260694849132337
0.5005524861878453,0.4712696162420656
0.5339226519337017,0.3721550679153033
0.5672928176795581,0.2568583738224681
0.6006629834254145,0.15315772090963117
0.6340331491712707,0.07985374539362534
0.6674033149171271,0.042629569572950374
0.7007734806629835,0.035476082392409784
0.7341436464088398,0.046113105760595796
0.7675138121546962,0.06222048082283071
0.8008839779005525,0.07548477078497232
0.8342541436464089,0.08219204282258609
0.8676243093922653,0.08123785040662967
0.9009944751381216,0.07171227434834612
0.934364640883978,0.05197264021885574
0.9677348066298344,0.020620562977436422
1.0011049723756906,-0.021898735191893705
1.0344751381215471,-0.07306744157079963
1.0678453038674034,-0.13054476472987406
1.1012154696132597,-0.19595172019570337
1.1345856353591162,-0.277361916639492
1.1679558011049724,-0.38743539803812027
1.201325966850829,-0.5361772675506125
1.2346961325966852,-0.7207820355150352
1.2680662983425415,-0.9179300139109355
1.301436464088398,-1.0842050203138525
1.3348066298342542,-1.1672423663210028
1.3681767955801105,-1.1249086495002094
1.401546961325967,-0.9448193419425769
1.4349171270718233,-0.6546002909332267
1.4682872928176796,-0.3160884254590216
1.501657458563536,-0.0035403557335051444
1.5350276243093923,0.22602028689734366
1.5683977900552488,0.3570207945435836
1.601767955801105,0.42180356201827457
1.6351381215469614,0.4845330957898118
1.6685082872928179,0.6086180964125267
1.7018784530386741,0.8224948301260028
1.7352486187845306,1.1004150823016117
1.768618784530387,1.3682868616448736
1.8019889502762432,1.5327279166883256
1.8353591160220997,1.5203377030831737
1.868729281767956,1.3093912851890734
1.9020994475138122,0.9399077293966128
1.9354696132596687,0.4982000009872637
1.968839779005525,0.08351472840567976
2.0022099447513813,-0.22809191970839973
2.0355801104972375,-0.4070865280878764
2.0689502762430942,-0.472005639727314
2.1023204419889505,-0.47056150437335614
2.135690607734807,-0.45098860688456566
2.169060773480663,-0.4383647222351993
2.2024309392265193,-0.42747822578780836
2.235801104972376,-0.3948375374142108
2.2691712707182323,-0.32194719010623823
2.3025414364640886,-0.2154451234882588
2.335911602209945,-0.11100533516711572
2.369281767955801,-0.05703574549233085
2.402651933701658,-0.08653538349307012
2.436022099447514,-0.19382182996811012
2.4693922651933704,-0.33152365700733794
2.5027624309392267,-0.43203269007218326
2.536132596685083,-0.4426849904654791
2.5695027624309392,-0.35449628358457536
2.602872928176796,-0.20675434010938992
2.636243093922652,-0.06339281591878997
2.6696132596685085,0.02600610815371846
2.7029834254143648,0.057661483037083336
2.736353591160221,0.0776065980041981
2.7697237569060777,0.15318256478398193
2.803093922651934,0.3255164216941203
2.8364640883977903,0.5687269940454132
2.8698342541436466,0.7806236225690442
2.903204419889503,0.8153294476146234
2.936574585635359,0.5472622715237759
2.969944751381216,-0.06140217826743205
3.003314917127072,-0.9222499674572716
3.0366850828729284,-1.8323865748951886
3.0700552486187846,-2.5354996136992325
3.103425414364641,-2.808803922838692
3.1367955801104976,-2.540737260184747
3.170165745856354,-1.7688609632616632
3.20353591160221,-0.6653407953936242
3.2369060773480665,0.5207962115937161
3.2702762430939227,1.5400700147126627
3.3036464088397794,2.20991223908937
3.3370165745856357,2.453304924098809
3.370386740331492,2.302362921516044
3.4037569060773483,1.8726874352324585
3.4371270718232045,1.321337509217262
3.4704972375690613,0.8025124906731141
3.5038674033149175,0.4320736928088307
3.537237569060774,0.26715244330991167
3.57060773480663,0.3022864833053152
3.6039779005524863,0.47993931934655
3.6373480662983426,0.7111157599831474
3.6707182320441993,0.9007696260526428
3.7040883977900556,0.9724138327298779
3.737458563535912,0.8866219269360577
3.770828729281768,0.6491003600444606
3.8041988950276244,0.3060638070299561
3.837569060773481,-0.07208788353433446
3.8709392265193374,-0.4139342883365397
3.9043093922651937,-0.669285368604932
3.93767955801105,-0.8225839416715878
3.9710497237569062,-0.8927687410159123
4.0044198895027625,-0.920437303883849
4.037790055248619,-0.9484036945527062
4.071160220994475,-1.0041529502974345
4.104530386740332,-1.0911242705350401
4.1379005524861885,-1.191132893813578
4.171270718232044,-1.2749972442922664
4.204640883977901,-1.3151928382860203
4.238011049723757,-1.2945622071961187
4.271381215469614,-1.2083474978282396
4.30475138121547,-1.0610406761717819
4.338121546961326,-0.8622340168594013
4.371491712707183,-0.6252221121101422
4.404861878453039,-0.368915401081015
4.438232044198895,-0.1198597325861085
4.471602209944752,0.09043183757528626
4.504972375690608,0.2354603343945235
4.538342541436465,0.30851047998214
4.5717127071823205,0.334529486210951
4.605082872928177,0.3699000108484
4.638453038674034,0.48502411620876607
4.67182320441989,0.7332808849802082
4.7051933701657465,1.1188150932943342
4.738563535911602,1.5794631451599812
4.771933701657459,1.9966919677859054
4.805303867403316,2.2328184177805657
4.8386740331491715,2.1823330236996874
4.872044198895028,1.8158227726352025
4.905414364640884,1.1965718792701527
4.938784530386741,0.4612987358831786
4.972154696132597,-0.2275638735472883
5.005524861878453,-0.7378718152228197
5.03889502762431,-1.0085472047275381
5.072265193370166,-1.0591952412271706
5.105635359116023,-0.9671632255356551
5.1390055248618784,-0.8250332824077375
5.172375690607735,-0.6991750812490153
5.205745856353592,-0.6077933034088714
5.239116022099448,-0.5264029328309169
5.272486187845304,-0.41499933835760594
5.30585635359116,-0.2508267648191281
5.339226519337017,-0.04854737853680881
5.372596685082874,0.1431582889032998
5.4059668508287295,0.26658598886332346
5.439337016574586,0.2877117043716
5.472707182320442,0.21825492593809478
5.506077348066299,0.11426501156819267
5.5394475138121555,0.050988961449449484
5.572817679558011,0.08663529064990269
5.606187845303868,0.23376066233339804
5.639558011049724,0.4530234648058536
5.672928176795581,0.6721076511927401
5.706298342541437,0.8192063291354129
5.739668508287293,0.8529266663372457
5.77303867403315,0.7730615426420648
5.806408839779006,0.6080171402998104
5.839779005524862,0.3883784515163354
5.873149171270718,0.12411587892179199
5.906519337016575,-0.1996632196629891
5.939889502762432,-0.6054090278682212
5.9732596685082875,-1.0953102611436885
6.006629834254144,-1.6314335825195299
6.04,-2.138191255795334
6.073370165745857,-2.5280826090056574
6.1067403314917135,-2.737047324538511
6.140110497237569,-2.749056969478805
6.173480662983426,-2.595178054344994
6.206850828729282,-2.3272689672386293
6.240220994475139,-1.9819526040035296
6.273591160220995,-1.5570783252761045
6.306961325966851,-1.016113598174438
6.340331491712708,-0.3193546104176653
6.373701657458564,0.5357085703788148
6.40707182320442,1.4889455512950898
6.440441988950277,2.423268924704893
6.473812154696133,3.2002054231360226
6.50718232044199,3.70767914688845
6.5405524861878455,3.8966132698888023
6.573922651933702,3.7905387925778258
6.607292817679559,3.4675367047405814
6.640662983425415,3.0269195453084587
6.674033149171271,2.5571702747915093
6.707403314917127,2.1164773840371316
6.740773480662984,1.7279598999767312
6.774143646408841,1.3847491936175977
6.8075138121546965,1.0587931943841917
6.840883977900553,0.7103839380277308
6.874254143646409,0.2990422809769431
6.907624309392266,-0.2029383797207609
6.9409944751381225,-0.7958596212716259
6.974364640883978,-1.4424107024544404
7.007734806629835,-2.068845468925203
7.041104972375691,-2.5813588822442823
7.074475138121548,-2.894656461496729
7.107845303867403,-2.962709651683303
7.14121546961326,-2.7986126533232536
7.174585635359117,-2.4736111099760443
7.207955801104973,-2.093817869444264
7.241325966850829,-1.7629972056179004
7.274696132596685,-1.5462881878428105
7.308066298342542,-1.4496594265443963
7.341436464088399,-1.423261346909455
7.3748066298342545,-1.3867418745464197
7.408176795580111,-1.265507456550551
7.441546961325967,-1.0226537283850612
7.474917127071824,-0.6734487824504759
7.5082872928176805,-0.27674877352037186
7.541657458563536,0.09257221870692467
7.575027624309393,0.3780997028998675
7.608397790055249,0.5681320445746624
7.641767955801106,0.7018179923497184
7.675138121546962,0.8516706706861586
7.708508287292818,1.089128762423372
7.741878453038675,1.4475364055380662
7.775248618784531,1.8987542370726647
7.808618784530387,2.3546117105960196
7.841988950276244,2.6944309687797
7.8753591160221,2.808846098182537
7.908729281767957,2.642621566261339
7.9420994475138125,2.218537718281951
7.975469613259669,1.631519483428608
8.008839779005525,1.014580151909285
8.042209944751383,0.49054479640259313
8.075580110497238,0.12995100615236305
8.108950276243094,-0.0674582337685759
8.14232044198895,-0.16133516019807478
8.175690607734808,-0.23671806981007526
8.209060773480664,-0.36404839859738936
8.24243093922652,-0.5707547532351621
8.275801104972377,-0.8348667707916204
8.309171270718233,-1.100306292331876
8.342541436464089,-1.3043050245296248
8.375911602209946,-1.4036079208898373
8.409281767955802,-1.3886125444986572
8.442651933701658,-1.281447698967143
8.476022099447514,-1.1216324645379299
8.509392265193371,-0.9477938730414511
8.542762430939227,-0.7840296490974291
8.576132596685083,-0.6355448859828828
8.60950276243094,-0.4929311436943127
8.642872928176796,-0.3409539765148005
8.676243093922652,-0.1673891452786872
8.709613259668508,0.03059281460678581
8.742983425414366,0.24291630469808329
8.776353591160222,0.4458103500770029
8.809723756906077,0.6044031792193877
8.843093922651935,0.6800252296264325
8.87646408839779,0.6424404776524655
8.909834254143647,0.4841948467452458
8.943204419889504,0.23105012268237538
8.97657458563536,-0.058290673169634794
9.009944751381216,-0.3066258429053923
9.043314917127072,-0.4437870427804801
9.07668508287293,-0.4337594771447948
9.110055248618785,-0.2914166301376974
9.143425414364641,-0.08025781379632639
9.176795580110499,0.10960355203458781
9.210165745856354,0.1953568645785398
9.24353591160221,0.13414972279855666
9.276906077348068,-0.058506189727699505
9.310276243093924,-0.3122020007676873
9.34364640883978,-0.5263272043182974
9.377016574585635,-0.6072434894999593
9.410386740331493,-0.5040640589870907
9.443756906077349,-0.22898032185645992
9.477127071823205,0.14660517062099745
9.510497237569062,0.5194502904795414
9.543867403314918,0.7945998978821096
9.577237569060774,0.9213839272496209
9.610607734806631,0.9096267981588757
9.643977900552487,0.8190944827702118
9.677348066298343,0.7275392926356229
9.710718232044199,0.6926597530061771
9.744088397790057,0.725827491393387
9.777458563535912,0.7892695505884385
9.810828729281768,0.8167577746360518
9.844198895027626,0.7467044263962956
9.877569060773482,0.5513813047191486
9.910939226519337,0.248980039798948
9.944309392265193,-0.10558736239507037
9.97767955801105,-0.444834155939779
10.011049723756907,-0.7150508720841936
10.044419889502763,-0.8925328141721779
10.07779005524862,-0.9837874441951451
10.111160220994476,-1.0124889512931152
10.144530386740332,-1.00220117497735
10.17790055248619,-0.9647083149971606
10.211270718232045,-0.8992410750305918
10.244640883977901,-0.8009198276071291
10.278011049723757,-0.6714525549505155
10.311381215469615,-0.524414020788398
10.34475138121547,-0.3813664818925117
10.378121546961326,-0.26101770908805105
10.411491712707184,-0.16794446909974112
10.44486187845304,-0.08780442051087296
10.478232044198895,0.007449226794627028
10.511602209944753,0.1459475441900839
10.544972375690609,0.33974755982416954
10.578342541436465,0.5736952531685411
10.61171270718232,0.8053928176796774
10.645082872928178,0.9780859961651693
10.678453038674034,1.0425227705635445
10.71182320441989,0.978811797310192
10.745193370165747,0.8077011354587201
10.778563535911603,0.5842609964540484
10.811933701657459,0.3749922215141213
10.845303867403315,0.22829002600162787
10.878674033149172,0.15292603969226667
10.912044198895028,0.11625088139741922
10.945414364640884,0.06385946759112046
10.978784530386742,-0.04926890447635828
11.012154696132598,-0.23272320467886004
11.045524861878453,-0.45353585083255393
11.078895027624311,-0.6512765359183221
11.112265193370167,-0.766667590475794
11.145635359116023,-0.7685558574556578
11.179005524861878,-0.666318331885412
11.212375690607736,-0.5034907111819507
11.245745856353592,-0.33795035686714064
11.279116022099448,-0.21918555573892806
11.312486187845305,-0.17225779819246387
11.345856353591161,-0.19294529293981194
11.379226519337017,-0.2529619938135109
11.412596685082875,-0.3110230439677486
11.44596685082873,-0.32549439339469116
11.479337016574586,-0.2659195764703267
11.512707182320442,-0.12183406549104932
11.5460773480663,0.09285084000030698
11.579447513812156,0.3420296147535798
11.612817679558011,0.5773137052294893
11.646187845303869,0.7538098341756584
11.679558011049725,0.8461199551714543
11.71292817679558,0.8570204563662279
11.746298342541436,0.8134147689142937
11.779668508287294,0.7501648779367301
11.81303867403315,0.6893754019493037
11.846408839779006,0.6264064750822292
11.879779005524863,0.5314301095045013
11.91314917127072,0.3672809528959328
11.946519337016575,0.11485078594120103
11.979889502762433,-0.20806622593681043
12.013259668508288,-0.5460855945334122
12.046629834254144,-0.8258087876136898
12.08,-0.9864756428731811
12.113370165745858,-1.0060356160409505
12.146740331491714,-0.909190650642806
12.18011049723757,-0.753520429806975
12.213480662983427,-0.6011908947066543
12.246850828729283,-0.49076779450246044
12.280220994475139,-0.42290098588435576
12.313591160220996,-0.36597550096441733
12.346961325966852,-0.277502407189176
12.380331491712708,-0.1293546734151365
12.413701657458564,0.07630125300508801
12.447071823204421,0.30793910003506636
12.480441988950277,0.5207152593522344
12.513812154696133,0.6779122352871025
12.54718232044199,0.7658286585995364
12.580552486187846,0.7947062730418581
12.613922651933702,0.7867540106073417
12.64729281767956,0.7596144776332021
12.680662983425416,0.7155120244730054
12.714033149171271,0.642063881445255
12.747403314917127,0.5232955045752006
12.780773480662985,0.3534183304099215
12.81414364640884,0.14479700089140404
12.847513812154697,-0.07448693835185859
12.880883977900554,-0.27170961114617476
12.91425414364641,-0.42260384537718143
12.947624309392266,-0.5192528258226522
12.980994475138122,-0.5692120271965947
13.01436464088398,-0.5877051452707841
13.047734806629835,-0.5884498658294804
13.081104972375691,-0.5785350664867819
13.114475138121549,-0.5592926413392861
13.147845303867404,-0.530936449609521
13.18121546961326,-0.49672167105950726
13.214585635359118,-0.46355495887391723
13.247955801104974,-0.43903817093697317
13.28132596685083,-0.42738836762912147
13.314696132596685,-0.42690450510731687
13.348066298342543,-0.4299632843481536
13.381436464088399,-0.42464962342592716
13.414806629834255,-0.3966014113616935
13.448176795580112,-0.330605683429047
13.481546961325968,-0.21273357786634814
13.514917127071824,-0.03397728831036056
13.548287292817681,0.20490798454960515
13.581657458563537,0.48939937860163224
13.615027624309393,0.790797371831318
13.648397790055249,1.070991009220303
13.681767955801106,1.2914200800815736
13.715138121546962,1.4229084003723038
13.748508287292818,1.452408607784009
13.781878453038676,1.3841624595154003
13.815248618784532,1.235426049317866
13.848618784530387,1.0292358691856263
13.881988950276245,0.787563906768127
13.9153591160221,0.5274084863721876
13.948729281767957,0.2605475201087438
13.982099447513813,-0.004097743147107677
14.01546961325967,-0.25743066850360385
14.048839779005526,-0.4882275409954329
14.082209944751382,-0.6831733239797887
14.11558011049724,-0.8289190154011483
14.148950276243095,-0.9156087767772991
14.182320441988951,-0.9409491676414192
14.215690607734807,-0.9135448892539453
14.249060773480664,-0.8539418670244756
14.28243093922652,-0.7919084483792301
14.315801104972376,-0.7593055021835204
14.349171270718234,-0.7795279856414691
14.38254143646409,-0.8565207281269314
14.415911602209945,-0.9678555304267967
14.449281767955803,-1.0662134729308441
14.482651933701659,-1.0912089707738164
14.516022099447515,-0.9892645501479346
14.54939226519337,-0.7348860391628853
14.582762430939228,-0.3445147987352624
14.616132596685084,0.12413017915634346
14.64950276243094,0.5887099515503802
14.682872928176797,0.9691525379468855
14.716243093922653,1.2136296257439934
14.749613259668509,1.3121601783106052
14.782983425414367,1.291940178391983
14.816353591160222,1.1975410232360404
14.849723756906078,1.0669127756468377
14.883093922651934,0.91618626258168
14.916464088397792,0.7411187265769305
14.949834254143648,0.5333400260649944
14.983204419889503,0.3007436932941548
15.016574585635361,0.07847869997078306
15.049944751381217,-0.07818441236407797
15.083314917127073,-0.11779134474984788
15.116685082872928,-0.022195361071503363
15.150055248618786,0.174108078910963
15.183425414364642,0.38693353130356967
15.216795580110498,0.509653560641064
15.250165745856355,0.45489921302731623
15.283535911602211,0.19304557798188404
15.316906077348067,-0.2300666969520913
15.350276243093925,-0.70546496597368
15.38364640883978,-1.0999089483088758
15.417016574585636,-1.306049427680123
15.450386740331492,-1.2832120370670193
15.48375690607735,-1.0714581149176252
15.517127071823205,-0.7724297218122647
15.550497237569061,-0.5044727879155826
15.583867403314919,-0.3508170748880125
15.617237569060775,-0.323243637627206
15.65060773480663,-0.35773556787257504
15.683977900552488,-0.34511777592983106
15.717348066298344,-0.1841247032455202
15.7507182320442,0.16644678231972984
15.784088397790056,0.6605443688774632
15.817458563535913,1.1762250221615154
15.85082872928177,1.56174868855118
15.884198895027625,1.6961386852317875
15.917569060773483,1.5366843061933013
15.950939226519338,1.131918133485926
15.984309392265194,0.59545778114936
16.01767955801105,0.05534174140228088
16.051049723756908,-0.39499232468226153
16.084419889502765,-0.7203961906336268
16.11779005524862,-0.9338133342792961
16.151160220994477,-1.0630238997238288
16.18453038674033,-1.1177599066446053
16.21790055248619,-1.0790952341856335
16.251270718232046,-0.9181554410957116
16.2846408839779,-0.6317341789857448
16.318011049723758,-0.2701023328206299
16.351381215469615,0.06502902399500493
16.38475138121547,0.257726108226725
16.418121546961327,0.23419950750580895
16.451491712707185,0.008666641982266254
16.48486187845304,-0.30857073077753827
16.518232044198896,-0.550330304958613
16.551602209944754,-0.564390568941539
16.584972375690608,-0.2853842914533739
16.618342541436466,0.22813307019942727
16.651712707182323,0.8113373590975538
16.685082872928177,1.2600470141836075
16.718453038674035,1.4177200793061289
16.751823204419892,1.2428456766241702
16.785193370165747,0.8252687278255305
16.818563535911604,0.34363824922945835
16.851933701657458,-0.015859626939379506
16.885303867403316,-0.14081502849318298
16.918674033149173,-0.03575007419121417
16.952044198895027,0.19164536308524946
16.985414364640885,0.3914311707784475
17.018784530386743,0.4468534823495981
17.052154696132597,0.32619181164044364
17.085524861878454,0.08718753942140842
17.118895027624312,-0.16396752231871023
17.152265193370166,-0.33389246063485184
17.185635359116024,-0.38984267802834777
17.21900552486188,-0.37018682641080247
17.252375690607735,-0.3551799992758809
17.285745856353593,-0.41672039588325027
17.31911602209945,-0.5753233881633839
17.352486187845304,-0.7866805428004288
17.385856353591162,-0.9633413913352002
17.419226519337016,-1.0188114405732256
17.452596685082874,-0.910917857979126
