Time (s),Filtered Signal
0.0,0.0501952392998809
0.033370165745856356,-1.093841946799227
0.06674033149171271,-1.9863476076088502
0.10011049723756907,-2.4598950940302284
0.13348066298342542,-2.482152572891702
0.16685082872928178,-2.1512522760153328
0.20022099447513814,-1.6430241353179706
0.2335911602209945,-1.1368359291717032
0.26696132596685085,-0.7532231711381899
0.30033149171270723,-0.5272544349244644
0.33370165745856356,-0.42260138998859137
0.3670718232044199,-0.37237700692983333
0.4004419889502763,-0.32271217779482625
0.43381215469613266,-0.25755516963255665
0.467182320441989,-0.19577724861103799
0.5005524861878453,-0.16714286843386048
0.5339226519337017,-0.18402113021839553
0.5672928176795581,-0.22613427947177667
0.6006629834254145,-0.24687764044029242
0.6340331491712707,-0.19715374044928508
0.6674033149171271,-0.05308263130835893
0.7007734806629835,0.167872474343951
0.7341436464088398,0.41141926936070183
0.7675138121546962,0.6097021734976663
0.8008839779005525,0.7117073717769122
0.8342541436464089,0.7055869214364762
0.8676243093922653,0.6218866998244349
0.9009944751381216,0.5164313468864493
0.934364640883978,0.4419087901161189
0.9677348066298344,0.42269501505562135
1.0011049723756906,0.44533629458417995
1.0344751381215471,0.4686054803839146
1.0678453038674034,0.44689989775237765
1.1012154696132597,0.35448447617053946
1.1345856353591162,0.19878471909868453
1.1679558011049724,0.017518105298149508
1.201325966850829,-0.13731528602334478
1.2346961325966852,-0.22015431443364383
1.2680662983425415,-0.20835441645015118
1.301436464088398,-0.10883026256381025
1.3348066298342542,0.046068740166118165
1.3681767955801105,0.21063840076882825
1.401546961325967,0.34105044264863127
1.4349171270718233,0.40854039850365115
1.4682872928176796,0.4063062099258083
1.501657458563536,0.34805522162753033
1.5350276243093923,0.25921291848694444
1.5683977900552488,0.1647657328948613
1.601767955801105,0.07913710505728071
1.6351381215469614,0.0024412983766615567
1.6685082872928179,-0.07575676159816494
1.7018784530386741,-0.167807966886896
1.7352486187845306,-0.27937805951953376
1.768618784530387,-0.4053558823874082
1.8019889502762432,-0.5319437104161767
1.8353591160220997,-0.6430685715685525
1.868729281767956,-0.7269716607009921
1.9020994475138122,-0.7790350111850977
1.9354696132596687,-0.7994389531171749
1.968839779005525,-0.7876543534255263
2.0022099447513813,-0.738040597154639
2.0355801104972375,-0.6404578837053276
2.0689502762430942,-0.48678889243160683
2.1023204419889505,-0.2802372618385826
2.135690607734807,-0.04170739982580304
2.169060773480663,0.19170358555059638
2.2024309392265193,0.3771510170591011
2.235801104972376,0.4814809880333703
2.2691712707182323,0.49454925301656005
2.3025414364640886,0.433841375623599
2.335911602209945,0.3377925492672765
2.369281767955801,0.2504926189689688
2.402651933701658,0.2043770624144019
2.436022099447514,0.2082743599127615
2.4693922651933704,0.2456782261059332
2.5027624309392267,0.2836657936263696
2.536132596685083,0.2884778386180071
2.5695027624309392,0.24118026257575823
2.602872928176796,0.14694948151207396
2.636243093922652,0.0341861232622092
2.6696132596685085,-0.05625590694744381
2.7029834254143648,-0.08752043109905547
2.736353591160221,-0.04238753256861284
2.7697237569060777,0.06821026116579157
2.803093922651934,0.20749674394013326
2.8364640883977903,0.32556786819879713
2.8698342541436466,0.3779564286790129
2.903204419889503,0.34291983935163634
2.936574585635359,0.2304539236999409
2.969944751381216,0.0790326345897484
3.003314917127072,-0.05904482813677677
3.0366850828729284,-0.13797084014656605
3.0700552486187846,-0.13602901948694565
3.103425414364641,-0.06303987885227194
3.1367955801104976,0.0454378018822927
3.170165745856354,0.14438017043946177
3.20353591160221,0.19863227636771952
3.2369060773480665,0.19665505727041815
3.2702762430939227,0.1527716374471857
3.3036464088397794,0.09738138015215414
3.3370165745856357,0.06011807247011511
3.370386740331492,0.054043250359989504
3.4037569060773483,0.06832464800593066
3.4371270718232045,0.07282833562533338
3.4704972375690613,0.03253203535773874
3.5038674033149175,-0.07486320900633806
3.537237569060774,-0.2462910292210628
3.57060773480663,-0.4516909467045878
3.6039779005524863,-0.6445086450422827
3.6373480662983426,-0.7798053098775481
3.6707182320441993,-0.831683649842143
3.7040883977900556,-0.8018234514094245
3.737458563535912,-0.7151864138746216
3.770828729281768,-0.6055026046303084
3.8041988950276244,-0.4985218730195285
3.837569060773481,-0.4020395031148574
3.8709392265193374,-0.30759531348152175
3.9043093922651937,-0.20182257003047685
3.93767955801105,-0.07981240262674205
3.9710497237569062,0.04808017662868748
4.0044198895027625,0.16033016226714727
4.037790055248619,0.23679941981398758
4.071160220994475,0.27209504019802033
4.104530386740332,0.2814735144663937
4.1379005524861885,0.295314622116995
4.171270718232044,0.34471141144285206
4.204640883977901,0.44567380185715744
4.238011049723757,0.5901164436508479
4.271381215469614,0.7480585733908361
4.30475138121547,0.8795994563316172
4.338121546961326,0.950504475189053
4.371491712707183,0.9440143877750341
4.404861878453039,0.8640687298268428
4.438232044198895,0.7297885209899249
4.471602209944752,0.5651943486390664
4.504972375690608,0.3897468546565841
4.538342541436465,0.2139405086206735
4.5717127071823205,0.040955343735982065
4.605082872928177,-0.12786693626809575
4.638453038674034,-0.287607454230069
4.67182320441989,-0.42775008908517465
4.7051933701657465,-0.5346705497797921
4.738563535911602,-0.5971530287476443
4.771933701657459,-0.6118475593046997
4.805303867403316,-0.5857049110664015
4.8386740331491715,-0.5340568228992698
4.872044198895028,-0.4751802041067837
4.905414364640884,-0.42379338113779697
4.938784530386741,-0.38632088825308464
4.972154696132597,-0.35990917982130677
5.005524861878453,-0.3355355685425586
5.03889502762431,-0.3037970006889622
5.072265193370166,-0.26076644768920276
5.105635359116023,-0.2111538117158936
5.1390055248618784,-0.16703281722672716
5.172375690607735,-0.1422638879921533
5.205745856353592,-0.14474982240687645
5.239116022099448,-0.16997027892292893
5.272486187845304,-0.19919011691821512
5.30585635359116,-0.20411930620368868
5.339226519337017,-0.15706436426489903
5.372596685082874,-0.04283920031685518
5.4059668508287295,0.13273027853591218
5.439337016574586,0.3419763878104992
5.472707182320442,0.5433411757409184
5.506077348066299,0.6951325447895579
5.5394475138121555,0.769189021160167
5.572817679558011,0.7584917314808058
5.606187845303868,0.6757616699772091
5.639558011049724,0.5446067009212046
5.672928176795581,0.38837636746656506
5.706298342541437,0.22259999147485415
5.739668508287293,0.054415543677597274
5.77303867403315,-0.11180688639132828
5.806408839779006,-0.2670354812725851
5.839779005524862,-0.39375229942514356
5.873149171270718,-0.4690471271331449
5.906519337016575,-0.4738510324214355
5.939889502762432,-0.4036757509278925
5.9732596685082875,-0.27477697292989156
6.006629834254144,-0.1215493800360485
6.04,0.014694981570838678
6.073370165745857,0.10090454614951765
6.1067403314917135,0.1245358968565704
6.140110497237569,0.09725271201708158
6.173480662983426,0.04850903253379347
6.206850828729282,0.012123758215327905
6.240220994475139,0.011918677041935194
6.273591160220995,0.05248938460881608
6.306961325966851,0.11850894811007491
6.340331491712708,0.18210999420585144
6.373701657458564,0.21464533168878044
6.40707182320442,0.19776511444315584
6.440441988950277,0.12958782497877422
6.473812154696133,0.024172921905287758
6.50718232044199,-0.09464245566536988
6.5405524861878455,-0.2019106295076877
6.573922651933702,-0.27910017502170187
6.607292817679559,-0.3179280106702021
6.640662983425415,-0.3199531946843317
6.674033149171271,-0.29325230692152326
6.707403314917127,-0.24832062086424717
6.740773480662984,-0.19490811492323082
6.774143646408841,-0.14034667804380427
6.8075138121546965,-0.0889465600322483
6.840883977900553,-0.04184112786152768
6.874254143646409,0.0028408396793619417
6.907624309392266,0.04903757852054356
6.9409944751381225,0.10065854598077599
6.974364640883978,0.158717424819299
7.007734806629835,0.21904636158956536
7.041104972375691,0.2722411514385544
7.074475138121548,0.3066182305499292
7.107845303867403,0.3132542670038358
7.14121546961326,0.2906693616019235
7.174585635359117,0.24648960499955527
7.207955801104973,0.19481726846069436
7.241325966850829,0.1503166529320559
7.274696132596685,0.12184154760926517
7.308066298342542,0.10871294662882346
7.341436464088399,0.10138565235878333
7.3748066298342545,0.08605879460384996
7.408176795580111,0.050985294659579176
7.441546961325967,-0.008342187585297362
7.474917127071824,-0.08720368922051736
7.5082872928176805,-0.1734039214070853
7.541657458563536,-0.2517709248707007
7.575027624309393,-0.3094922028594684
7.608397790055249,-0.34030002131623494
7.641767955801106,-0.3461119507277842
7.675138121546962,-0.33565343206794995
7.708508287292818,-0.3205394525342014
7.741878453038675,-0.31011808606554797
7.775248618784531,-0.30695679790108127
7.808618784530387,-0.3049361170788881
7.841988950276244,-0.29119414952283484
7.8753591160221,-0.2516031220260984
7.908729281767957,-0.17761599332664377
7.9420994475138125,-0.07124367269558149
7.975469613259669,0.05450199061345459
8.008839779005525,0.18016875295259183
8.042209944751383,0.2872345682437068
8.075580110497238,0.36458314149798837
8.108950276243094,0.41098909637436637
8.14232044198895,0.4328562594792175
8.175690607734808,0.4390319358060656
8.209060773480664,0.43579600346813424
8.24243093922652,0.42450874760353974
8.275801104972377,0.4025284513013685
8.309171270718233,0.3661580336475243
8.342541436464089,0.31358205779628606
8.375911602209946,0.24623336128345083
8.409281767955802,0.16824456876643562
8.442651933701658,0.08477041721995553
8.476022099447514,0.00040931882192853797
8.509392265193371,-0.08140540771554018
8.542762430939227,-0.15797794651907093
8.576132596685083,-0.2265039087849916
8.60950276243094,-0.2835757926896988
8.642872928176796,-0.32542619988280413
8.676243093922652,-0.3487435390497887
8.709613259668508,-0.35159739227111875
8.742983425414366,-0.3341050320741599
8.776353591160222,-0.2987436492623775
8.809723756906077,-0.2503483396161941
8.843093922651935,-0.1957344700970073
8.87646408839779,-0.14275116774877122
8.909834254143647,-0.09869794047868491
8.943204419889504,-0.06846307879976464
8.97657458563536,-0.05316152148206473
9.009944751381216,-0.05003543773436703
9.043314917127072,-0.05378837048373174
9.07668508287293,-0.058691017305767604
9.110055248618785,-0.06033017848878488
9.143425414364641,-0.05616327443637471
9.176795580110499,-0.044910915332867285
9.210165745856354,-0.025617934366511802
9.24353591160221,0.00268193659338038
9.276906077348068,0.04042367786238349
9.310276243093924,0.08667657625957745
9.34364640883978,0.13890784640429427
9.377016574585635,0.19369233864586916
9.410386740331493,0.24778559893326083
9.443756906077349,0.2985004200808361
9.477127071823205,0.34280508870105114
9.510497237569062,0.3756958722133279
9.543867403314918,0.3892993015103276
9.577237569060774,0.37405629127354795
9.610607734806631,0.3221723814600738
9.643977900552487,0.23199192593048598
9.677348066298343,0.1110436145167791
9.710718232044199,-0.024175101542319586
9.744088397790057,-0.1521555228832542
9.777458563535912,-0.2527149976515821
9.810828729281768,-0.31309437408087837
9.844198895027626,-0.3312177368374279
9.877569060773482,-0.3148411374937018
9.910939226519337,-0.27725731431380224
9.944309392265193,-0.2317464771325682
9.97767955801105,-0.18728301147569895
10.011049723756907,-0.14704915382549594
10.044419889502763,-0.10972425096628904
10.07779005524862,-0.07224713624025608
10.111160220994476,-0.03240760567565989
10.144530386740332,0.009808169370691476
10.17790055248619,0.052237901829499
10.211270718232045,0.0913252085199097
10.244640883977901,0.12291586581346436
10.278011049723757,0.14270590899929464
10.311381215469615,0.14654302997123528
10.34475138121547,0.13109673993072718
10.378121546961326,0.09520860066226587
10.411491712707184,0.041577619076647164
10.44486187845304,-0.022249765857137418
10.478232044198895,-0.08475276266636063
10.511602209944753,-0.13358559461418917
10.544972375690609,-0.1600236044511136
10.578342541436465,-0.1625476325093769
10.61171270718232,-0.14738774596614654
10.645082872928178,-0.12528672430854162
10.678453038674034,-0.1059205420589593
10.71182320441989,-0.09295346021474235
10.745193370165747,-0.08251591241329964
10.778563535911603,-0.06597321585965946
10.811933701657459,-0.035354516997266494
10.845303867403315,0.011714655993994853
10.878674033149172,0.07035900581945909
10.912044198895028,0.1308625616588596
10.945414364640884,0.18355423962857778
10.978784530386742,0.22326064001579576
11.012154696132598,0.25084778133204905
11.045524861878453,0.27118352645249194
11.078895027624311,0.28890035918878765
11.112265193370167,0.3044671480709145
11.145635359116023,0.3127804460082318
11.179005524861878,0.3050780395742912
11.212375690607736,0.27327937267816926
11.245745856353592,0.21467997777443928
11.279116022099448,0.13471563593913183
11.312486187845305,0.046274200033701376
11.345856353591161,-0.034545145661425455
11.379226519337017,-0.09474182013493632
11.412596685082875,-0.13015812210883834
11.44596685082873,-0.1478750334520805
11.479337016574586,-0.1636295788987882
11.512707182320442,-0.19479931445618243
11.5460773480663,-0.25177844383014175
11.579447513812156,-0.3317643759164984
11.612817679558011,-0.418280837661708
11.646187845303869,-0.4872811523709878
11.679558011049725,-0.5174502545299438
11.71292817679558,-0.49992306403447767
11.746298342541436,-0.44242903532161765
11.779668508287294,-0.36529470095041505
11.81303867403315,-0.29086459900546896
11.846408839779006,-0.23166925394925642
11.879779005524863,-0.1838424401296531
11.91314917127072,-0.12982485800084262
11.946519337016575,-0.049337303585041375
11.979889502762433,0.06722974242989882
12.013259668508288,0.21053246010100785
12.046629834254144,0.35396181859092235
12.08,0.46468461187029336
12.113370165745858,0.5183403392760705
12.146740331491714,0.5099070177851528
12.18011049723757,0.45552335821810613
12.213480662983427,0.3848171412305468
12.246850828729283,0.3278268395069933
12.280220994475139,0.3027155791775613
12.313591160220996,0.3095043466133869
12.346961325966852,0.3318879826458142
12.380331491712708,0.3455595417468127
12.413701657458564,0.3289742726887701
12.447071823204421,0.27199253789697464
12.480441988950277,0.17925237892323578
12.513812154696133,0.0675977728651063
12.54718232044199,-0.04070815664552307
12.580552486187846,-0.12588198851742027
12.613922651933702,-0.1765979742410446
12.64729281767956,-0.1922662360820303
12.680662983425416,-0.18152328716392468
12.714033149171271,-0.15817483764344595
12.747403314917127,-0.136362195115749
12.780773480662985,-0.12652132091727403
12.81414364640884,-0.13312066209507736
12.847513812154697,-0.15452085495551224
12.880883977900554,-0.18472082998204511
12.91425414364641,-0.21624847068677025
12.947624309392266,-0.24308482035721207
12.980994475138122,-0.2624616782510828
13.01436464088398,-0.274816406152502
13.047734806629835,-0.2820763560067581
13.081104972375691,-0.285398412797175
13.114475138121549,-0.28392786752361754
13.147845303867404,-0.2756458344392005
13.18121546961326,-0.2600513527817884
13.214585635359118,-0.2409768429335263
13.247955801104974,-0.2272127481730545
13.28132596685083,-0.2294195494864621
13.314696132596685,-0.2538341745101756
13.348066298342543,-0.2955322788276182
13.381436464088399,-0.33516465326743594
13.414806629834255,-0.3422260575651642
13.448176795580112,-0.2851160911123877
13.481546961325968,-0.14469813921098978
13.514917127071824,0.07445746655169694
13.548287292817681,0.34094811937643893
13.581657458563537,0.60440345610645
13.615027624309393,0.8123985680805242
13.648397790055249,0.9298782204185244
13.681767955801106,0.952463441915187
13.715138121546962,0.9068387762351426
13.748508287292818,0.8368620220815421
13.781878453038676,0.7809142846042423
13.815248618784532,0.7510190357807716
13.848618784530387,0.7245371553363886
13.881988950276245,0.6539817225423419
13.9153591160221,0.4917303753426935
13.948729281767957,0.21835779161223273
13.982099447513813,-0.13966470854266805
14.01546961325967,-0.5129597552325723
14.048839779005526,-0.8132598187540588
14.082209944751382,-0.9683315459962991
14.11558011049724,-0.951932463518684
14.148950276243095,-0.7948894035455117
14.182320441988951,-0.5720868826926204
14.215690607734807,-0.3712393457630006
14.249060773480664,-0.25746360981537375
14.28243093922652,-0.2491780201425195
14.315801104972376,-0.31528481047266416
14.349171270718234,-0.39374430504039987
14.38254143646409,-0.4221509711081244
14.415911602209945,-0.36605979112902465
14.449281767955803,-0.2326011717974911
14.482651933701659,-0.06425990386595316
14.516022099447515,0.0830250396291728
14.54939226519337,0.16639456511422226
14.582762430939228,0.17472367107989953
14.616132596685084,0.13122441319839093
14.64950276243094,0.07970587385546787
14.682872928176797,0.06185521472859508
14.716243093922653,0.09682886498752744
14.749613259668509,0.17291519361464056
14.782983425414367,0.2548553439764367
14.816353591160222,0.3025992758548643
14.849723756906078,0.2917055006694028
14.883093922651934,0.22509987052259495
14.916464088397792,0.13071491481004185
14.949834254143648,0.046999027160377724
14.983204419889503,0.004336783606694007
15.016574585635361,0.011888659734753166
15.049944751381217,0.05577337001338927
15.083314917127073,0.1082108630557372
15.116685082872928,0.14180226896611886
15.150055248618786,0.14129487582331665
15.183425414364642,0.10751312495120385
15.216795580110498,0.05293895754825379
15.250165745856355,-0.007121722656049755
15.283535911602211,-0.062113246190284827
15.316906077348067,-0.10853679768061524
15.350276243093925,-0.14677015168135527
15.38364640883978,-0.175676180901484
15.417016574585636,-0.18938611073750033
15.450386740331492,-0.1788506868068976
15.48375690607735,-0.13735730856539466
15.517127071823205,-0.06643366600081907
15.550497237569061,0.021893476733162883
15.583867403314919,0.10845251309473296
15.617237569060775,0.17459700662364588
15.65060773480663,0.21034322317074258
15.683977900552488,0.2186885390962913
15.717348066298344,0.2136805334258641
15.7507182320442,0.21293578635866306
15.784088397790056,0.22809895316888737
15.817458563535913,0.25783181068540406
15.85082872928177,0.28684513918218985
15.884198895027625,0.29174404870165194
15.917569060773483,0.2512638281611516
15.950939226519338,0.15627374045866652
15.984309392265194,0.014846755090730752
16.01767955801105,-0.15003769545334936
16.051049723756908,-0.3089796105552725
16.084419889502765,-0.43660933706190175
16.11779005524862,-0.5190406795326757
16.151160220994477,-0.5553315543248233
16.18453038674033,-0.5533611835324737
16.21790055248619,-0.5232918510921566
16.251270718232046,-0.4724240656496063
16.2846408839779,-0.4037670156931253
16.318011049723758,-0.3182266443373958
16.351381215469615,-0.2183899350444827
16.38475138121547,-0.11128547107338077
16.418121546961327,-0.008254379545715595
16.451491712707185,0.0783331544284477
16.48486187845304,0.14005193982767186
16.518232044198896,0.176513029221722
16.551602209944754,0.19609987470555829
16.584972375690608,0.21233361521233504
16.618342541436466,0.2371161282214964
16.651712707182323,0.2740289724628842
16.685082872928177,0.3152779334433101
16.718453038674035,0.344297363255238
16.751823204419892,0.34315114503607214
16.785193370165747,0.30125688330000683
16.818563535911604,0.2211554516867368
16.851933701657458,0.11856612140962591
16.885303867403316,0.016926534527634637
16.918674033149173,-0.06072253200051724
16.952044198895027,-0.0987681204286719
16.985414364640885,-0.09243311833469325
17.018784530386743,-0.047304295740404394
17.052154696132597,0.0234685781840885
17.085524861878454,0.10245373336538248
17.118895027624312,0.17091313950449438
17.152265193370166,0.2119585727570422
17.185635359116024,0.21459789631841103
17.21900552486188,0.17819682085556265
17.252375690607735,0.11517928203045939
