Frequency (Hz),Amplitude
0.0,2.202728166968191
0.019823788546255508,2.20946027931449
0.039647577092511016,2.229508339037397
0.059471365638766524,2.2624407072677637
0.07929515418502203,2.3075792329081537
0.09911894273127755,2.364052545089242
0.11894273127753305,2.430856501699942
0.13876651982378857,2.506913090075646
0.15859030837004406,2.5911214978951587
0.17841409691629956,2.682398103535928
0.1982378854625551,2.779704776827946
0.2180616740088106,2.8820666502703003
0.2378854625550661,2.9885813903570906
0.25770925110132165,3.098422188789861
0.27753303964757714,3.2108364809792214
0.29735682819383263,3.32514201202184
0.31718061674008813,3.440721455217423
0.3370044052863437,3.5570164210273094
0.3568281938325991,3.6735214028372924
0.37665198237885467,3.789777990727637
0.3964757709251102,3.9053695344012964
0.41629955947136565,4.019916336855406
0.4361233480176212,4.133071397572149
0.4559471365638767,4.244516686719928
0.4757709251101322,4.353959911602637
0.49559471365638774,4.461131727283576
0.5154185022026433,4.56578334074178
0.5352422907488987,4.667684459287775
0.5550660792951543,4.766621537455608
0.5748898678414097,4.862396281055788
0.5947136563876653,4.954824371826307
0.6145374449339208,5.043734380757474
0.6343612334801763,5.12896684247794
0.6541850220264318,5.210373466976423
0.6740088105726874,5.287816468368145
0.6938325991189428,5.361167993408603
0.7136563876651982,5.43030963504152
0.7334801762114539,5.495132018485783
0.7533039647577093,5.555534449259721
0.7731277533039648,5.611424614156446
0.7929515418502204,5.662718327558559
0.8127753303964759,5.7093393166512545
0.8325991189427313,5.751219040091842
0.8524229074889869,5.788296535547238
0.8722466960352424,5.820518292243785
0.8920704845814978,5.847838145305753
0.9118942731277534,5.870217189207358
0.931718061674009,5.887623708143611
0.9515418502202644,5.900033121549792
0.9713656387665199,5.907427943380186
0.9911894273127755,5.9097977541027245
1.0110132158590308,5.90713918468668
1.0308370044052866,5.899455912163321
1.0506607929515421,5.88675866663225
1.0704845814977975,5.869065249875537
1.090308370044053,5.846400566035113
1.1101321585903086,5.818796665113553
1.1299559471365639,5.786292800381283
1.1497797356828194,5.748935501122721
1.1696035242290752,5.706778662539109
1.1894273127753305,5.659883655056113
1.209251101321586,5.608319455771351
1.2290748898678416,5.552162805334538
1.248898678414097,5.4914983941944415
1.2687224669603525,5.426419082892282
1.288546255506608,5.357026161949143
1.3083700440528636,5.283429657910505
1.3281938325991192,5.2057486933022865
1.3480176211453747,5.1241119096499785
1.36784140969163,5.038657964354544
1.3876651982378856,4.949536114142686
1.4074889867841411,4.856906900060312
1.4273127753303965,4.7609429515993895
1.4471365638766522,4.661829930579429
1.4669603524229078,4.559767638877625
1.4867841409691631,4.454971318020075
1.5066079295154187,4.347673172978402
1.5264317180616742,4.238124157149551
1.5462555066079295,4.126596060202197
1.5660792951541853,4.0133839448225945
1.5859030837004409,3.898808981650638
1.6057268722466962,3.783221732658053
1.6255506607929517,3.6670059299770594
1.6453744493392073,3.550582786808671
1.6651982378854626,3.434415855157666
1.6850220264317182,3.3190164054517886
1.7048458149779737,3.2049492368750916
1.7246696035242293,3.0928387230238084
1.7444933920704848,2.983374741464687
1.7643171806167404,2.8773179135893763
1.7841409691629957,2.7755032825492876
1.8039647577092512,2.6788411850603784
1.8237885462555068,2.5883136593138576
1.8436123348017623,2.504964358312631
1.863436123348018,2.42987976025517
1.8832599118942732,2.364159718556708
1.9030837004405288,2.3088763481742887
1.9229074889867843,2.265022103027408
1.9427312775330399,2.233450594186115
1.9625550660792954,2.21481669490083
1.982378854625551,2.2095247433347356
2.002202643171806,2.2176939797568593
2.0220264317180616,2.239148017846563
2.041850220264317,2.273430524011248
2.061674008810573,2.3198438754765967
2.0814977973568287,2.3775033132143686
2.1013215859030843,2.445397317163589
2.1211453744493394,2.522445732654241
2.140969162995595,2.607549687864299
2.1607929515418505,2.699630345491513
2.180616740088106,2.797656082523091
2.2004405286343616,2.900659360542539
2.220264317180617,3.0077453401628134
2.2400881057268722,3.1180944360630103
2.2599118942731278,3.2309607760711487
2.2797356828193833,3.3456681372665207
2.299559471365639,3.4616045226879844
2.319383259911895,3.5782161840179216
2.3392070484581504,3.6950016130098575
2.3590308370044055,3.8115058167832108
2.378854625550661,3.9273150477900183
2.3986784140969166,4.042052063785108
2.418502202643172,4.155371933096466
2.4383259911894277,4.266958365005633
2.4581497797356833,4.376520525906593
2.4779735682819384,4.483790293251486
2.497797356828194,4.588519897073474
2.5176211453744495,4.690479900411264
2.537444933920705,4.789457473499817
2.5572687224669606,4.885254921047222
2.577092511013216,4.977688426623291
2.5969162995594717,5.066586982762574
2.6167400881057272,5.151791479630355
2.6365638766519828,5.233153928923674
2.6563876651982383,5.310536803055935
2.676211453744494,5.383812472614892
2.6960352422907494,5.45286272762424
2.715859030837005,5.517578370316669
2.73568281938326,5.577858868989285
2.7555066079295156,5.633612064098987
2.775330396475771,5.684753919107595
2.7951541850220267,5.731208309738693
2.8149779735682823,5.772906846291137
2.834801762114538,5.809788724495323
2.854625550660793,5.841800601120644
2.874449339207049,5.868896491166024
2.8942731277533045,5.891037684007531
2.91409691629956,5.908192676352041
2.9339207048458156,5.920337120266785
2.953744493392071,5.92745378493228
2.9735682819383262,5.929532531110595
2.993392070484582,5.926570297640094
3.0132158590308373,5.918571099571212
3.033039647577093,5.905546037850032
3.0528634361233484,5.887513320749035
3.072687224669604,5.864498297538577
3.092511013215859,5.836533505201512
3.1123348017621146,5.803658729320112
3.1321585903083706,5.765921080619038
3.151982378854626,5.723375089039793
3.1718061674008817,5.676082817659907
3.1916299559471373,5.6241139992662905
3.2114537444933924,5.567546198959996
3.231277533039648,5.506465006823808
3.2511013215859035,5.440964265443686
3.270925110132159,5.371146337959334
3.2907488986784146,5.2971224233544465
3.31057268722467,5.219012926908393
3.3303964757709252,5.136947895153932
3.350220264317181,5.051067526352589
3.3700440528634363,4.96152276945183
3.389867841409692,4.868476026768672
3.4096916299559474,4.772101978292698
3.4295154185022034,4.672588548557097
3.4493392070484585,4.570138040512879
3.469162995594714,4.4649684647577645
3.4889867841409696,4.357315096770782
3.508810572687225,4.247432299358269
3.5286343612334807,4.135595652068245
3.5484581497797363,4.022104433411993
3.5682819383259914,3.907284504549684
3.588105726872247,3.791491643369202
3.6079295154185025,3.675115373593781
3.627753303964758,3.5585833216237344
3.6475770925110136,3.4423661097038734
3.667400881057269,3.326982751210355
3.6872246696035247,3.2130064434526133
3.7070484581497802,3.1010705438565314
3.726872246696036,2.99187435311217
3.7466960352422913,2.8861881002370207
3.7665198237885464,2.7848562210055463
3.7863436123348024,2.688797649129215
3.8061674008810575,2.5990014359501754
3.8259911894273135,2.516515668254579
3.8458149779735686,2.4424275262541433
3.8656387665198246,2.3778326499431857
3.8854625550660797,2.3237930257616655
3.905286343612335,2.281284537757322
3.925110132158591,2.2511380325028183
3.9449339207048464,2.2339806412247967
3.964757709251102,2.2301861411076223
3.9845814977973575,2.239843172326851
4.004405286343612,2.2627475575508
4.024229074889869,2.2984202942784773
4.044052863436123,2.346147556386209
4.06387665198238,2.4050350942664815
4.083700440528634,2.4740679345939554
4.103524229074891,2.5521672587759494
4.123348017621146,2.638238873133821
4.143171806167401,2.7312106015106843
4.162995594713657,2.8300583570179865
4.182819383259912,2.933822207949927
4.2026431718061685,3.041614471523456
4.222466960352423,3.1526219770849395
4.242290748898679,3.266104399276057
4.262114537444934,3.3813901777830484
4.28193832599119,3.49787114319303
4.301762114537445,3.6149966229548456
4.321585903083701,3.7322675295386634
4.3414096916299565,3.8492307332954665
4.361233480176212,3.9654738838000725
4.381057268722468,4.080620751645268
4.400881057268723,4.194327104868169
4.420704845814979,4.306277099991244
4.440528634361234,4.416180149189715
4.46035242290749,4.523768216724838
4.4801762114537445,4.6287934956321575
4.500000000000001,4.73102641713344
4.5198237885462555,4.830253948669964
4.539647577092512,4.926278140776685
4.559471365638767,5.018914887588675
4.579295154185023,5.1079928702245265
4.599118942731278,5.193352656426867
4.618942731277533,5.274845933569833
4.63876651982379,5.352334855439951
4.658590308370044,5.42569148607284
4.678414096916301,5.494797326413433
4.6982378854625555,5.559542911702183
4.718061674008811,5.619827469316057
4.737885462555067,5.675558628351091
4.757709251101322,5.72665217356283
4.777533039647578,5.773031837414263
4.797356828193833,5.814629124949157
4.817180616740089,5.851383167038409
4.837004405286344,5.8832405982604215
4.856828193832599,5.9101554562928
4.876651982378855,5.932089100229819
4.896475770925111,5.9490101457114175
4.9162995594713665,5.960894415167557
4.936123348017622,5.96772490185876
4.955947136563877,5.9694917467368676
4.975770925110133,5.966192227470769
4.995594713656388,5.957830759285665
5.015418502202644,5.944418907559985
5.035242290748899,5.925975412418557
5.055066079295155,5.902526225860074
5.07488986784141,5.874104562269755
5.094713656387666,5.84075096350107
5.114537444933921,5.802513380072435
5.134361233480177,5.759447270424356
5.154185022026432,5.711615720630111
5.174008810572688,5.6590895874609854
5.193832599118943,5.601947668286824
5.213656387665199,5.540276901963204
5.2334801762114544,5.474172605631257
5.25330396475771,5.403738753260992
5.2731277533039655,5.32908830282409
5.292951541850221,5.250343580217574
5.312775330396477,5.1676367295068
5.332599118942731,5.081110240749294
5.352422907488988,4.990917568639522
5.372246696035242,4.897223857517721
5.392070484581499,4.800206790952387
5.4118942731277535,4.700057587167952
5.43171806167401,4.596982165062744
5.451541850220265,4.491202509435202
5.47136563876652,4.382958268242779
5.491189427312777,4.272508619104272
5.511013215859031,4.160134446527813
5.530837004405288,4.046140874981701
5.550660792951542,3.930860205059986
5.570484581497798,3.8146552992436544
5.5903083700440535,3.6979234579759064
5.610132158590309,3.581100812721424
5.6299559471365646,3.4646672356373895
5.64977973568282,3.349151718768025
5.669603524229076,3.2351381002659743
5.689427312775331,3.123270899609502
5.709251101321586,3.014260855033944
5.729074889867842,2.9088895221592677
5.748898678414098,2.8080119871495084
5.768722466960353,2.7125563813352627
5.788546255506609,2.623518500297605
5.808370044052864,2.5419495250877286
5.82819383259912,2.4689347825827808
5.848017621145375,2.4055618976914857
5.867841409691631,2.352877826359849
5.887665198237886,2.3118362449451975
5.907488986784142,2.283239437594067
5.927312775330397,2.267681543722585
5.9471365638766525,2.2655017722791944
5.966960352422908,2.2767559062868696
5.986784140969164,2.30121165846754
6.00660792951542,2.3383688082083167
6.026431718061675,2.387500094215086
6.04625550660793,2.447705268744667
6.066079295154186,2.5179695395002524
6.085903083700441,2.59721873723598
6.105726872246697,2.6843660423093345
6.125550660792952,2.7783478828039243
6.145374449339208,2.8781488880356694
6.1651982378854635,2.982817220580587
6.185022026431718,3.0914722609937932
6.204845814977975,3.2033067030714757
6.224669603524229,3.3175848791745297
6.244493392070486,3.433638766600275
6.264317180616741,3.550862747129733
6.284140969162996,3.668707862586564
6.303964757709252,3.7866760498354215
6.323788546255507,3.9043146477865736
6.3436123348017635,4.021211335903373
6.363436123348018,4.1369895752798795
6.3832599118942746,4.251304567426803
6.403083700440529,4.363839712589449
6.422907488986785,4.4743035312522705
6.44273127753304,4.582427004091479
6.462555066079296,4.687961283302281
6.482378854625551,4.790675729456753
6.502202643171807,4.8903562312157245
6.5220264317180625,4.986803769292551
6.541850220264318,5.079833190421897
6.561674008810574,5.169272161352693
6.581497797356829,5.254960276866409
6.601321585903085,5.336748299424263
6.62114537444934,5.414497511241984
6.640969162995596,5.488079162384501
6.6607929515418505,5.557374000893437
6.680616740088107,5.622271873043825
6.700440528634362,5.682671383612042
6.720264317180618,5.738479607563757
6.740088105726873,5.789611845875491
6.759911894273129,5.835991419317195
6.779735682819384,5.877549494978122
6.799559471365639,5.914224941135551
6.819383259911895,5.945964206772266
6.83920704845815,5.97272122265836
6.859030837004407,5.994457321446708
6.8788546255506615,6.011141174699656
6.898678414096917,6.0227487451819695
6.918502202643173,6.029263253131832
6.938325991189428,6.030675155566129
6.958149779735684,6.026982137998586
6.977973568281939,6.018189118256661
6.997797356828195,6.004308262382018
7.01762114537445,5.985359012898873
7.037444933920705,5.961368130039432
7.0572687224669615,5.93236974683585
7.077092511013216,5.898405439328613
7.096916299559473,5.859524313512462
7.116740088105728,5.8157831110519265
7.136563876651983,5.767246336257333
7.156387665198239,5.713986407334524
7.176211453744494,5.656083835517564
7.19603524229075,5.593627436380308
7.215859030837005,5.526714578419362
7.235682819383261,5.455451474925387
7.255506607929516,5.379953526240126
7.275330396475772,5.300345720755922
7.295154185022027,5.216763104487692
7.314977973568283,5.129351330765178
7.334801762114538,5.038267303593829
7.354625550660794,4.943679930551562
7.374449339207049,4.845771003758579
7.394273127753305,4.744736230503591
7.4140969162995605,4.640786438536317
7.433920704845816,4.534148984812045
7.453744493392072,4.425069400510899
7.473568281938327,4.313813309261924
7.493392070484583,4.200668659334847
7.513215859030838,4.085948313532153
7.533039647577093,3.9699930416633245
7.552863436123348,3.853174958304512
7.572687224669605,3.7359014407445525
7.59251101321586,3.6186195451783423
7.612334801762115,3.5018209084201666
7.6321585903083715,3.3860470708541204
7.651982378854627,3.271895075001567
7.671806167400882,3.160023071863836
7.691629955947137,3.05115549196348
7.711453744493394,2.946087099495719
7.731277533039649,2.8456849438725342
7.751101321585904,2.7508868693573727
7.7709251101321595,2.6626948908633428
7.790748898678416,2.582161495484108
7.81057268722467,2.5103669534064204
7.830396475770926,2.4483862406069803
7.850220264317182,2.397245403415387
7.870044052863436,2.3578692093817666
7.889867841409693,2.3310244994305105
7.909691629955948,2.3172661279095466
7.929515418502204,2.3168937639275202
7.9493392070484585,2.329927210127304
7.969162995594715,2.3561049896258495
7.9889867841409705,2.3949064667963187
8.008810572687224,2.4455931929669887
8.02863436123348,2.507262039652553
8.048458149779737,2.578901813156016
8.068281938325994,2.659446248576038
8.088105726872246,2.7478186811787113
8.107929515418503,2.842966287236018
8.12775330396476,2.943883875615861
8.147577092511014,3.0496285230051874
8.167400881057269,3.1593269322321507
8.187224669603525,3.2721774609301537
8.207048458149782,3.3874485413997184
8.226872246696036,3.504474866955911
8.246696035242293,3.622652364899917
8.266519823788547,3.741432666674229
8.286343612334802,3.860317540804574
8.306167400881058,3.978853573028884
8.325991189427315,4.09662725088361
8.345814977973568,4.213260524919349
8.365638766519824,4.328406864419874
8.38546255506608,4.441747792784758
8.405286343612337,4.552989869583771
8.42511013215859,4.661862077620991
8.444933920704846,4.768113570610067
8.464757709251103,4.871511737865226
8.484581497797357,4.971840545176524
8.504405286343614,5.068899114757847
8.524229074889869,5.162500511208462
8.544052863436125,5.252470704446916
8.56387665198238,5.338647684355091
8.583700440528636,5.420880705311457
8.60352422907489,5.499029641859292
8.623348017621145,5.572964439448697
8.643171806167402,5.642564646533676
8.662995594713658,5.707719016327317
8.682819383259913,5.768325168257477
8.702643171806168,5.8242893006553516
8.722466960352424,5.875525947487089
8.74229074889868,5.9219577730315764
8.762114537444935,5.963515399346325
8.78193832599119,6.000137262170668
8.801762114537446,6.031769491612001
8.821585903083701,6.058365814567064
8.841409691629957,6.079887476359029
8.861233480176212,6.09630317953914
8.881057268722468,6.107589038218437
8.900881057268723,6.113728546673313
8.92070484581498,6.114712561315299
8.940528634361234,6.1105392954418365
8.960352422907489,6.101214326495665
8.980176211453745,6.086750615865817
9.000000000000002,6.0671685415686065
9.019823788546258,6.042495944460121
9.039647577092511,6.012768188960516
9.059471365638768,5.978028239621244
9.079295154185024,5.938326755249661
9.099118942731279,5.8937222027288385
9.118942731277533,5.844280993145601
9.13876651982379,5.790077643377813
9.158590308370046,5.731194966907782
9.1784140969163,5.667724298335896
9.198237885462555,5.599765756888183
9.218061674008812,5.527428555161157
9.237885462555067,5.450831360452954
9.257709251101323,5.370102717316737
9.27753303964758,5.285381541470738
9.297356828193834,5.196817696939885
9.317180616740089,5.104572670320622
9.337004405286345,5.008820358383297
9.356828193832602,4.909747987881209
9.376651982378855,4.807557189434413
9.396475770925111,4.702465250688443
9.416299559471367,4.594706577557342
9.436123348017622,4.484534396126134
9.455947136563877,4.372222731469593
9.475770925110133,4.258068702836093
9.49559471365639,4.1423951766674465
9.515418502202644,4.025553818707677
9.5352422907489,3.90792858234217
9.555066079295155,3.7899396598321284
9.57488986784141,3.6720479026642807
9.594713656387666,3.554759681740595
9.614537444933923,3.438632100694457
9.634361233480178,3.3242783873900494
9.654185022026432,3.2123731591860865
9.674008810572689,3.1036570761983198
9.693832599118945,2.9989401561661153
9.713656387665198,2.8991027269721137
9.733480176211454,2.805092661270325
9.75330396475771,2.717917230387737
9.773127753303967,2.638627741116699
9.792951541850222,2.5682952463939337
9.812775330396477,2.5079762538514903
9.832599118942733,2.458668668072098
9.852422907488988,2.4212602087060957
9.872246696035244,2.3964739567350613
9.892070484581499,2.3848178266501576
9.911894273127754,2.3865457345547707
9.93171806167401,2.4016372781403925
9.951541850220266,2.4297997578863644
9.971365638766521,2.4704921304299012
9.991189427312776,2.5229663864842236
10.011013215859032,2.5863192076099937
10.030837004405289,2.6595461953499937
10.050660792951543,2.7415922233453265
10.070484581497798,2.831393718084002
10.090308370044054,2.927911042170611
10.11013215859031,3.030151036940046
10.129955947136565,3.137180955925122
10.14977973568282,3.2481355436420305
10.169603524229077,3.3622190717523104
10.189427312775331,3.4787039372480812
10.209251101321588,3.5969271110754595
10.229074889867842,3.716285399118203
10.248898678414099,3.8362301910373384
10.268722466960353,3.9562621441366894
10.28854625550661,4.075926079119257
10.308370044052865,4.194806244014209
10.32819383259912,4.312522020994207
10.348017621145376,4.428724098117589
10.367841409691632,4.543091095779923
10.387665198237887,4.655326619343778
10.407488986784141,4.765156700277828
10.427312775330398,4.872327584823644
10.447136563876654,4.976603829431027
10.466960352422909,5.077766664435361
10.486784140969164,5.17561259071041
10.50660792951542,5.269952177696326
10.526431718061675,5.360609034905849
10.546255506607931,5.447418932536838
10.566079295154186,5.530229050059678
10.585903083700442,5.608897334555962
10.605726872246697,5.683291953155285
10.625550660792953,5.753290826162891
10.645374449339208,5.818781229419346
10.665198237885463,5.879659456116221
10.685022026431719,5.935830529738998
10.704845814977975,5.987207961053223
10.724669603524232,6.033713543119515
10.744493392070485,6.075277179243622
10.764317180616741,6.111836739562383
10.784140969162998,6.143337942654572
10.803964757709252,6.169734259166046
