Frequency (Hz),Amplitude
0.0,0.40092695180485427
0.020066889632107024,0.40112464232166806
0.04013377926421405,0.4017163553398426
0.060200668896321065,0.4026980382602893
0.0802675585284281,0.40406301245680776
0.10033444816053512,0.4058020835705583
0.12040133779264213,0.40790368964782875
0.14046822742474915,0.410354081407635
0.1605351170568562,0.41313752802138576
0.1806020066889632,0.41623654131388116
0.20066889632107024,0.4196321112443503
0.22073578595317725,0.4233039458531604
0.24080267558528426,0.4272307094930358
0.2608695652173913,0.4313902540166339
0.2809364548494983,0.4357598385756265
0.3010033444816054,0.44031633471627873
0.3210702341137124,0.4450364144618662
0.34113712374581934,0.44989671999895897
0.3612040133779264,0.4548740143957771
0.3812709030100334,0.45994531345652456
0.4013377926421405,0.4650879993494415
0.42140468227424743,0.4702799170433971
0.4414715719063545,0.47549945486009493
0.4615384615384615,0.4807256106134418
0.4816053511705685,0.48593804488283804
0.5016722408026756,0.491117122972231
0.5217391304347826,0.4962439470587685
0.5418060200668896,0.5013003799500637
0.5618729096989966,0.5062690617596864
0.5819397993311036,0.5111334206879006
0.6020066889632107,0.5158776789665809
0.6220735785953176,0.5204868549000389
0.6421404682274248,0.5249467618115335
0.6622073578595318,0.5292440045912306
0.6822742474916387,0.5333659744371992
0.7023411371237458,0.5373008422873672
0.7224080267558528,0.5410375513575135
0.7424749163879598,0.5445658091279065
0.7625418060200668,0.5478760790586676
0.7826086956521738,0.550959572260513
0.802675585284281,0.5538082393022365
0.8227424749163879,0.5564147622985256
0.8428093645484949,0.5587725473901916
0.862876254180602,0.5608757177031581
0.882943143812709,0.562719106851503
0.903010033444816,0.5642982530330503
0.923076923076923,0.5656093937525236
0.9431438127090299,0.5666494611967607
0.963210702341137,0.5674160782783495
0.983277591973244,0.567907555357691
1.0033444816053512,0.5681228876487671
1.0234113712374582,0.5680617533101937
1.0434782608695652,0.5677245122201864
1.0635451505016722,0.5671122054317232
1.0836120401337792,0.5662265553017847
1.1036789297658862,0.5650699662862192
1.1237458193979932,0.5636455263889167
1.1438127090301002,0.5619570092503554
1.1638795986622072,0.5600088768560718
1.1839464882943145,0.5578062828394887
1.2040133779264215,0.5553550763459164
1.2240802675585283,0.552661806414472
1.2441471571906353,0.549733726822276
1.2642140468227423,0.546578801319493
1.2842809364548495,0.5432057091645086
1.3043478260869565,0.5396238508449427
1.3244147157190636,0.5358433538415498
1.3444816053511706,0.5318750782579638
1.3645484949832773,0.5277306220986979
1.3846153846153846,0.5234223259302591
1.4046822742474916,0.5189632766049576
1.4247491638795986,0.5143673096635125
1.4448160535117056,0.5096490099603495
1.4648829431438126,0.504823709974611
1.4849498327759196,0.4999074851804902
1.5050167224080266,0.4949171457536276
1.5250836120401337,0.489870223787325
1.5451505016722407,0.4847849550860351
1.5652173913043477,0.4796802544977586
1.5852842809364547,0.4745756836466424
1.605351170568562,0.4694914098394881
1.625418060200669,0.46444815485370916
1.6454849498327757,0.4594671322800289
1.6655518394648827,0.4545699721042701
1.6856187290969897,0.44977863128196555
1.705685618729097,0.44511528920358745
1.725752508361204,0.44060222718078956
1.745819397993311,0.4362616914193759
1.765886287625418,0.4321157393918454
1.7859531772575248,0.4281860700860155
1.806020066889632,0.424493839280974
1.826086956521739,0.4210594617732518
1.846153846153846,0.4179024033152795
1.866220735785953,0.415040965893857
1.8862876254180598,0.412492070812794
1.9063545150501673,0.4102710447851799
1.926421404682274,0.408391414815577
1.9464882943143813,0.4068647179897198
1.966555183946488,0.40570033232842106
1.9866220735785953,0.40490533456082767
2.0066889632107023,0.4044843900141031
2.026755852842809,0.4044396788185998
2.0468227424749164,0.4047708613397778
2.0668896321070234,0.4054750842517649
2.0869565217391304,0.4065470270667261
2.1070234113712374,0.40797898734565713
2.1270903010033444,0.40976100135475385
2.1471571906354514,0.4118809956977166
2.1672240802675584,0.4143249645240161
2.1872909698996654,0.4170771663299173
2.2073578595317724,0.42012033414259287
2.2274247491638794,0.42343589298660234
2.2474916387959865,0.4270041789289255
2.267558528428094,0.4308046546202221
2.2876254180602005,0.4348161170236287
2.3076923076923075,0.4390168938772892
2.3277591973244145,0.44338502630813775
2.3478260869565215,0.447898435849172
2.367892976588629,0.45253507487158073
2.3879598662207355,0.45727306010021307
2.408026755852843,0.46209078942377696
2.4280936454849495,0.466967042636864
2.4481605351170566,0.4718810670648245
2.468227424749164,0.476812649235906
2.4882943143812706,0.4817421738913566
2.508361204013378,0.48665067167921194
2.5284280936454846,0.49151985687592564
2.548494983277592,0.4963321564362118
2.568561872909699,0.5010707315977054
2.5886287625418056,0.5057194931737994
2.608695652173913,0.5102631115638727
2.6287625418060196,0.514687022401524
2.648829431438127,0.518977428653593
2.668896321070234,0.5231212998789492
2.688963210702341,0.5271063692589293
2.709030100334448,0.5309211289220356
2.7290969899665547,0.53455482400505
2.749163879598662,0.5379974458210631
2.769230769230769,0.5412397244420585
2.789297658862876,0.5442731209489436
2.809364548494983,0.5470898195549688
2.82943143812709,0.5496827197682669
2.849498327759197,0.5520454287255046
2.869565217391304,0.5541722538000817
2.8896321070234112,0.5560581955647527
2.9096989966555182,0.5576989411690735
2.9297658862876252,0.5590908581759046
2.9498327759197323,0.560230988888314
2.9698996655518393,0.5611170451874209
2.9899665551839463,0.5617474038931879
3.0100334448160533,0.5621211026529808
3.0301003344481603,0.5622378363569218
3.0501672240802673,0.5620979540739774
3.0702341137123748,0.561702456498183
3.0903010033444813,0.5610529938903389
3.1103678929765888,0.5601518644960654
3.1304347826086953,0.559002013416628
3.1505016722408024,0.5576070319038879
3.1705685618729094,0.5559711570446373
3.1906354515050164,0.5540992717925862
3.210702341137124,0.5519969052977898
3.2307692307692304,0.5496702334730295
3.250836120401338,0.547126079724545
3.270903010033445,0.5443719157597994
3.2909698996655514,0.541415862367742
3.311036789297659,0.5382666900465601
3.3311036789297654,0.5349338193301086
3.351170568561873,0.5314273206365613
3.3712374581939795,0.5277579134310574
3.391304347826087,0.5239369644580059
3.411371237458194,0.5199764847579854
3.4314381270903005,0.5158891251388346
3.451505016722408,0.5116881697207987
3.471571906354515,0.50738752712158
3.491638795986622,0.5030017187899712
3.511705685618729,0.4985458639370108
3.531772575250836,0.49403566045366326
3.551839464882943,0.4894873611452761
3.5719063545150496,0.4849177445593279
3.591973244147157,0.48034407963756715
3.612040133779264,0.4757840833913883
3.632107023411371,0.47125587078583087
3.652173913043478,0.4667778960293568
3.672240802675585,0.46236888451061325
3.692307692307692,0.45804775470727493
3.712374581939799,0.4538335295232739
3.732441471571906,0.4497452366959295
3.752508361204013,0.4458017981591063
3.7725752508361197,0.44202190855510487
3.7926421404682276,0.43842390345605076
3.8127090301003346,0.4350256182794131
3.832775919732441,0.4318442393510741
3.852842809364548,0.428896149065637
3.872909698996655,0.4261967675938035
3.8929765886287626,0.4237603940608609
3.9130434782608696,0.42160005053467425
3.933110367892976,0.419727332479815
3.953177257525083,0.41815226952126755
3.9732441471571907,0.4168832003864043
3.9933110367892977,0.4159266657354924
4.013377926421405,0.41528732223972553
4.033444816053511,0.41496788072663937
4.053511705685618,0.4149690705071766
4.073578595317726,0.4152896311627049
4.093645484949833,0.4159263321528651
4.113712374581939,0.41687401966272175
4.133779264214047,0.41812568920007265
4.153846153846153,0.4196725816364734
4.173913043478261,0.42150429970616937
4.193979933110368,0.42360894146974293
4.214046822742475,0.4259732469332052
4.234113712374581,0.4285827538908224
4.254180602006689,0.43142195912018944
4.274247491638796,0.43447448127699595
4.294314381270903,0.437723222182802
4.314381270903009,0.4411505236362565
4.334448160535117,0.4447383173694567
4.354515050167224,0.44846826628315173
4.374581939799331,0.4523218955972428
4.394648829431437,0.45628071302438067
4.414715719063545,0.4603263174967633
4.434782608695651,0.46444049634018625
4.454849498327759,0.46860531108972553
4.474916387959866,0.47280317237851993
4.494983277591973,0.4770169045078925
4.5150501672240795,0.481229800429864
4.535117056856188,0.4854256679485125
4.555183946488294,0.4895888679828235
4.575250836120401,0.49370434573799105
4.595317725752508,0.49775765561203167
4.615384615384615,0.5017349806265264
4.635451505016722,0.5056231471195753
4.655518394648829,0.5094096353808492
4.6755852842809364,0.5130825868462181
4.695652173913043,0.5166308084059383
4.71571906354515,0.5200437743181903
4.735785953177258,0.5233116261598406
4.7558528428093645,0.5264251711906268
4.775919732441471,0.5293758794551647
4.795986622073578,0.5321558799003684
4.816053511705686,0.5347579557436938
4.8361204013377925,0.5371755392901147
4.856187290969899,0.5394027063626342
4.8762541806020065,0.5414341704822145
4.896321070234113,0.543265276907767
4.916387959866221,0.5448919966250154
4.936454849498328,0.5463109203542459
4.956521739130435,0.5475192526307453
4.976588628762541,0.5485148059977104
4.996655518394649,0.5492959953394392
5.016722408026756,0.5498618323721027
5.036789297658863,0.5502119203002191
5.056856187290969,0.5503464486387571
5.076923076923077,0.5502661881934459
5.096989966555184,0.5499724861848466
5.117056856187291,0.5494672614952247
5.137123745819398,0.5487530000106682
5.157190635451505,0.5478327500243049
5.177257525083611,0.5467101176594656
5.197324414715719,0.5453892622644201
5.217391304347826,0.5438748917221115
5.237458193979933,0.5421722576097524
5.257525083612039,0.5402871501333181
5.277591973244148,0.5382258927514628
5.297658862876254,0.5359953363913325
5.317725752508361,0.5336028531459747
5.337792642140468,0.5310563293285934
5.357859531772575,0.5283641577433756
5.377926421404682,0.5255352290158287
5.397993311036789,0.5225789218076708
5.418060200668896,0.519505091722311
5.438127090301003,0.5163240586875805
5.458193979933109,0.5130465925822665
5.478260869565218,0.5096838968536122
5.498327759197324,0.5062475898540036
5.518394648829431,0.5027496836082739
5.538461538461538,0.49920255970870214
5.558528428093646,0.4956189420248739
5.578595317725752,0.4920118659107567
5.598662207357859,0.4883946435940155
5.618729096989966,0.48478082544402407
5.638795986622073,0.4811841568374369
5.65886287625418,0.4776185303754852
5.678929765886288,0.47409793325724914
5.698996655518394,0.47063638967980653
5.719063545150501,0.46724789822079554
5.739130434782608,0.46394636426230984
5.759197324414716,0.46074552763721904
5.7792642140468224,0.45765888581925956
5.799331103678929,0.45469961313419804
5.8193979933110365,0.45188047663757624
5.839464882943144,0.449213749480342
5.8595317725752505,0.4467111227599891
5.879598662207358,0.4443836170246443
5.8996655518394645,0.4422414947509206
5.919732441471571,0.4402941752447357
5.9397993311036785,0.4385501535070683
5.959866220735786,0.43701692465540004
5.9799331103678925,0.43570091548812273
5.999999999999999,0.43460742471861885
6.020066889632107,0.4337405732849772
6.040133779264214,0.43310326596164805
6.060200668896321,0.4326971652653122
6.080267558528428,0.4325226783670639
6.100334448160535,0.43257895740847624
6.120401337792642,0.4328639132842394
6.1404682274247495,0.4333742426145417
6.160535117056856,0.43410546730253263
6.180602006688963,0.435051985771005
6.200668896321069,0.4362071347116912
6.2207357859531776,0.4375632599702046
6.240802675585284,0.43911179503732367
6.260869565217391,0.44084334552565546
6.280936454849498,0.4427477779796284
6.301003344481605,0.44481431139221006
6.321070234113712,0.4470316098772737
6.341137123745819,0.44938787506348377
6.361204013377926,0.45187093692440683
6.381270903010033,0.45446834192997637
6.40133779264214,0.45716743758706896
6.421404682274248,0.45995545262259596
6.441471571906354,0.4628195722438079
6.461538461538461,0.4657470080814043
6.481605351170568,0.4687250625767955
6.501672240802676,0.4717411877127853
6.521739130434782,0.4747830381050783
6.54180602006689,0.4778385185701857
6.561872909698996,0.4808958263637347
6.581939799331103,0.48394348834330675
6.60200668896321,0.4869703933531903
6.622073578595318,0.48996582015698353
6.642140468227424,0.4929194612598395
6.662207357859531,0.4958214429673955
6.682274247491639,0.49866234202518744
6.702341137123746,0.5014331991723853
6.722408026755852,0.5041255299286599
6.742474916387959,0.5067313329144729
6.762541806020066,0.5092430959840639
6.782608695652174,0.5116538004281965
6.80267558528428,0.5139569234808578
6.822742474916388,0.5161464393414077
6.842809364548494,0.5182168189014814
6.862876254180601,0.5201630283448849
6.882943143812709,0.5219805267684853
6.903010033444816,0.5236652629535754
6.9230769230769225,0.5252136713997413
6.94314381270903,0.5266226677174161
6.963210702341137,0.5278896434607362
6.983277591973244,0.529012460469186
7.0033444816053505,0.5299894447745388
7.023411371237458,0.5308193801188441
7.0434782608695645,0.5315015011195695
7.063545150501672,0.5320354861092029
7.083612040133779,0.5324214496688287
7.103678929765886,0.5326599348680886
7.123745819397993,0.5327519052174873
7.143812709030099,0.5326987363332497
7.1638795986622075,0.5325022073095856
7.183946488294314,0.5321644917883792
7.204013377926421,0.5316881487118796
7.224080267558528,0.5310761127398085
7.2441471571906355,0.5303316843085374
7.264214046822742,0.5294585193064052
7.2842809364548495,0.5284606183360465
7.304347826086956,0.527342315531528
7.324414715719063,0.5261082668954492
7.34448160535117,0.5247634381186876
7.364548494983278,0.5233130918434348
7.384615384615384,0.521762774328398
7.404682274247491,0.5201183014738892
7.424749163879598,0.5183857441637694
7.444816053511706,0.5165714128810567
7.464882943143812,0.5146818415547197
7.48494983277592,0.5127237705966059
7.505016722408026,0.5107041290897785
7.525083612040134,0.5086300160931229
7.545150501672239,0.5065086810317715
7.565217391304348,0.5043475031488448
7.585284280936455,0.5021539700016497
7.605351170568561,0.49993565499446313
7.625418060200669,0.49770019395083254
7.645484949832775,0.49545526074077295
7.665551839464882,0.4932085419924947
7.685618729096991,0.4909677109342496
7.705685618729096,0.4887404004294405
7.725752508361204,0.48653417528730625
7.74581939799331,0.48435650395184093
7.765886287625418,0.4822147296929281
7.785953177257525,0.4801160414457378
7.806020066889631,0.4780674444664311
7.826086956521739,0.4760757309938897
7.846153846153847,0.4741474511279778
7.866220735785952,0.4722888841536093
7.88628762541806,0.47050601055642227
7.906354515050166,0.4688044849894466
7.926421404682274,0.4671896104592833
7.946488294314381,0.46566631400553654
7.966555183946488,0.4642391241469482
7.986622073578595,0.4629121503618869
8.006688963210701,0.46168906485919703
8.02675585284281,0.46057308687763027
8.046822742474916,0.45956696972829975
8.066889632107022,0.45867299076524837
8.08695652173913,0.4578929444344626
8.107023411371236,0.4572281385125394
8.127090301003344,0.45667939360351056
8.147157190635452,0.4562470459170764
8.167224080267557,0.45593095330485406
8.187290969899665,0.45573050448465996
8.207357859531772,0.45564463133741573
8.227424749163879,0.45567182411806834
8.247491638795987,0.4558101493826829
8.267558528428093,0.4560572703987427
8.2876254180602,0.4564104697763196
8.307692307692307,0.4568666740340802
8.327759197324415,0.45742247979702566
8.347826086956522,0.4580741813121076
8.367892976588628,0.45881779896360814
8.387959866220736,0.45964910847203355
8.408026755852843,0.46056367046805374
8.42809364548495,0.461556860145388
8.448160535117056,0.4626238967138954
8.468227424749163,0.46375987239464966
8.488294314381271,0.46495978072225347
8.508361204013378,0.46621854394513856
8.528428093645484,0.4675310393411451
8.548494983277592,0.4688921242929427
8.568561872909697,0.47029665999466275
8.588628762541806,0.4717395336874719
8.608695652173914,0.4732156793468276
8.628762541806019,0.474720096767686
8.648829431438127,0.47624786901563515
8.668896321070234,0.47779417823163206
8.68896321070234,0.479354319795611
8.709030100334449,0.4809237148697024
8.729096989966555,0.48249792135518366
8.749163879598662,0.4840726433085511
8.769230769230768,0.485643738871549
8.789297658862875,0.4872072267776581
8.809364548494983,0.48875929150339326
8.82943143812709,0.49029628713751794
8.849498327759196,0.4918147400443018
8.869565217391303,0.49331135039922436
8.889632107023411,0.4947829926766845
8.909698996655518,0.4962267151695378
8.929765886287624,0.4976397386200499
8.949832775919733,0.499019454040981
8.96989966555184,0.5003634198041952
8.989966555183946,0.5016693580725987
9.010033444816054,0.5029351506492371
9.030100334448159,0.5041588343154806
9.050167224080267,0.5053385957278277
9.070234113712376,0.5064727659407602
9.09030100334448,0.5075598146206536
9.110367892976589,0.5085983440134341
9.130434782608695,0.5095870827263972
9.150501672240802,0.5105248793821568
9.17056856187291,0.5114106962005132
9.190635451505017,0.5122436025616302
9.210702341137123,0.5130227686017185
9.23076923076923,0.5137474588901045
9.250836120401337,0.5144170262343482
9.270903010033445,0.5150309056577511
9.290969899665551,0.5155886085913853
9.311036789297658,0.5160897173204544
9.331103678929765,0.5165338797224066
9.351170568561873,0.516920804331946
9.37123745819398,0.517250255765583
9.391304347826086,0.517522050535946
9.411371237458194,0.5177360532835001
9.4314381270903,0.5178921734507704
9.451505016722408,0.5179903624214542
9.471571906354516,0.5180306111441154
9.49163879598662,0.5180129482573813
9.511705685618729,0.5179374387306398
9.531772575250837,0.5178041830314524
9.551839464882942,0.5176133168277604
9.57190635451505,0.5173650112301676
9.591973244147155,0.5170594735763216
9.612040133779264,0.5166969487564755
9.632107023411372,0.5162777210761462
9.652173913043477,0.5158021166485649
9.672240802675585,0.5152705063066367
9.692307692307692,0.5146833090207196
9.712374581939798,0.514040995805538
9.732441471571907,0.5133440940962175
9.752508361204013,0.5125931925702732
9.77257525083612,0.5117889463891662
9.792642140468226,0.510932082829784
9.812709030100335,0.5100234072729771
9.832775919732441,0.5090638095129872
9.852842809364548,0.5080542703483666
9.872909698996656,0.5069958684115431
9.89297658862876,0.5058897871909075
9.91304347826087,0.5047373221958642
9.933110367892976,0.5035398882116385
9.953177257525082,0.5022990265873312
9.97324414715719,0.5010164124967558
9.993311036789297,0.4996938621081241
10.013377926421404,0.4983333395946714
10.033444816053512,0.49693696391446446
10.053511705685617,0.49550701528373975
10.073578595317725,0.49404594126402024
10.093645484949834,0.49255636237934747
10.113712374581938,0.49104107717582596
10.133779264214047,0.48950306663204685
10.153846153846153,0.48794549782484375
10.17391304347826,0.48637172675160756
10.193979933110368,0.4847853002071431
10.214046822742475,0.4831899566103216
10.234113712374581,0.4815896256737488
10.254180602006688,0.47998842680849757
10.274247491638796,0.47839066615557413
10.294314381270903,0.4768008321368935
10.31438127090301,0.4752235894207788
10.334448160535118,0.47366377120130443
10.354515050167223,0.472126369696686
10.37458193979933,0.4706165247803531
10.394648829431437,0.4691395106689817
10.414715719063544,0.467700720605233
10.434782608695652,0.4663056494893442
10.454849498327757,0.4649598744330621
10.474916387959865,0.4636690332318501
10.494983277591974,0.4624388007770893
10.515050167224079,0.46127486345845126
10.535117056856187,0.46018289163826365
10.555183946488295,0.4591685103132924
10.5752508361204,0.45823726811542065
10.595317725752508,0.4573946048394972
10.615384615384615,0.4566458177243187
10.635451505016722,0.4559960267495807
10.65551839464883,0.45545013924722033
10.675585284280936,0.4550128141581237
