Frequency (Hz),Amplitude
0.0,7.790096913262486
0.020066889632107024,7.787144184327439
0.04013377926421405,7.7782909795187845
0.060200668896321065,7.76355225525047
0.0802675585284281,7.742952973808284
0.10033444816053512,7.716528156380229
0.12040133779264213,7.684322958581508
0.14046822742474915,7.64639276977886
0.1605351170568562,7.602803337923651
0.1806020066889632,7.553630922031302
0.20066889632107024,7.498962474902369
0.22073578595317725,7.438895859171812
0.24080267558528426,7.373540100303004
0.2608695652173913,7.303015680715085
0.2809364548494983,7.22745487984919
0.3010033444816054,7.14700216564077
0.3210702341137124,7.061814643569482
0.34113712374581934,6.972062570197559
0.3612040133779264,6.877929938868194
0.3812709030100334,6.779615145994179
0.4013377926421405,6.677331747086682
0.42140468227424743,6.5713093122998645
0.4414715719063545,6.461794391716989
0.4615384615384615,6.349051600762442
0.4816053511705685,6.233364835828024
0.5016722408026756,6.115038629225034
0.5217391304347826,5.994399650610243
0.5418060200668896,5.871798358671249
0.5618729096989966,5.747610801555814
0.5819397993311036,5.622240556593386
0.6020066889632107,5.496120788410712
0.6220735785953176,5.3697163885242265
0.6421404682274248,5.243526137665199
0.6622073578595318,5.118084803121516
0.6822742474916387,4.993965045970428
0.7023411371237458,4.871778966269397
0.7224080267558528,4.752179057904604
0.7424749163879598,4.635858280219987
0.7625418060200668,4.523548884610398
0.7826086956521738,4.416019568514546
0.802675585284281,4.314070479185403
0.8227424749163879,4.218525573522021
0.8428093645484949,4.130221881822543
0.862876254180602,4.049995349150606
0.882943143812709,3.9786631617307755
0.903010033444816,3.9170028185484718
0.923076923076923,3.8657286666766555
0.9431438127090299,3.8254671337795
0.963210702341137,3.7967323745947525
0.983277591973244,3.779904383277542
1.0033444816053512,3.775211693149703
1.0234113712374582,3.782720512491813
1.0434782608695652,3.802331530373659
1.0635451505016722,3.833784764956555
1.0836120401337792,3.8766718879926256
1.1036789297658862,3.930454637582159
1.1237458193979932,3.9944873839189903
1.1438127090301002,4.068041715027329
1.1638795986622072,4.150331043381618
1.1839464882943145,4.24053361069711
1.2040133779264215,4.337812766955427
1.2240802675585283,4.4413339085119174
1.2441471571906353,4.550277898746092
1.2642140468227423,4.663851122339916
1.2842809364548495,4.781292533669233
1.3043478260869565,4.90187816569408
1.3244147157190636,5.024923593040964
1.3444816053511706,5.149784818001517
1.3645484949832773,5.275857993590052
1.3846153846153846,5.40257833062379
1.4046822742474916,5.529418467372227
1.4247491638795986,5.655886517327
1.4448160535117056,5.781523956296893
1.4648829431438126,5.905903465295152
1.4849498327759196,6.02862681017935
1.5050167224080266,6.149322811667419
1.5250836120401337,6.267645438870972
1.5451505016722407,6.383272044533738
1.5652173913043477,6.495901749540196
1.5852842809364547,6.605253976943616
1.605351170568562,6.711067130920373
1.625418060200669,6.813097413026499
1.6454849498327757,6.911117766403325
1.6655518394648827,7.004916937764691
1.6856187290969897,7.094298646810914
1.705685618729097,7.179080852942599
1.725752508361204,7.259095109640756
1.745819397993311,7.334185997527355
1.765886287625418,7.404210627850553
1.7859531772575248,7.469038208898035
1.806020066889632,7.528549668598379
1.826086956521739,7.582637327301305
1.846153846153846,7.631204615422752
1.866220735785953,7.674165831291844
1.8862876254180598,7.711445935143423
1.9063545150501673,7.742980375762586
1.926421404682274,7.768714946808255
1.9464882943143813,7.788605670327061
1.966555183946488,7.8026187054192375
1.9866220735785953,7.810730280441509
2.0066889632107023,7.812926647532395
2.026755852842809,7.809204058628385
2.0468227424749164,7.799568762510627
2.0668896321070234,7.784037022786045
2.0869565217391304,7.762635157070033
2.1070234113712374,7.735399598004225
2.1270903010033444,7.702376977119124
2.1471571906354514,7.663624232941535
2.1672240802675584,7.6192087451565556
2.1872909698996654,7.569208497069135
2.2073578595317724,7.513712269074701
2.2274247491638794,7.4528198663484275
2.2474916387959865,7.386642384501219
2.267558528428094,7.315302517531961
2.2876254180602005,7.238934913031114
2.3076923076923075,7.1576865802602665
2.3277591973244145,7.071717357442191
2.3478260869565215,6.981200445336938
2.367892976588629,6.8863230149361465
2.3879598662207355,6.787286897852911
2.408026755852843,6.684309368677791
2.4280936454849495,6.577624029151323
2.4481605351170566,6.4674818043812055
2.468227424749164,6.3541520613814875
2.4882943143812706,6.237923859755202
2.508361204013378,6.119107343138215
2.5284280936454846,5.998035277741753
2.548494983277592,5.8750647405367955
2.568561872909699,5.75057895374274
2.5886287625418056,5.624989253584026
2.608695652173913,5.498737168849569
2.6287625418060196,5.3722965675357734
2.648829431438127,5.246175806522477
2.668896321070234,5.120919788496835
2.688963210702341,4.9971117909835545
2.709030100334448,4.875374883563881
2.7290969899665547,4.756372691315757
2.749163879598662,4.640809197035519
2.769230769230769,4.52942720649496
2.789297658862876,4.423005038391721
2.809364548494983,4.322350957429555
2.82943143812709,4.228294864515274
2.849498327759197,4.141676816746591
2.869565217391304,4.063332097830216
2.8896321070234112,3.9940728181399203
2.9096989966555182,3.934666399187537
2.9297658862876252,3.8858117692585936
2.9498327759197323,3.848114608138347
2.9698996655518393,3.822063434505303
2.9899665551839463,3.808008611735228
3.0100334448160533,3.806146346374143
3.0301003344481603,3.8165094066911376
3.0501672240802673,3.838965617301555
3.0702341137123748,3.8732243019603474
3.0903010033444813,3.9188499274051014
3.1103678929765888,3.975281434841174
3.1304347826086953,4.041855272882853
3.1505016722408024,4.11783002126255
3.1705685618729094,4.202410683768031
3.1906354515050164,4.2947711344654005
3.210702341137124,4.394073703975603
3.2307692307692304,4.499485386775991
3.250836120401338,4.610190564825039
3.270903010033445,4.725400444170621
3.2909698996655514,4.8443595875244885
3.311036789297659,4.966350014223006
3.3311036789297654,5.090693354820301
3.351170568561873,5.216751516253885
3.3712374581939795,5.343926256434545
3.391304347826087,5.471657999945071
3.411371237458194,5.599424159561105
3.4314381270903005,5.726737167411762
3.451505016722408,5.853142367498357
3.471571906354515,5.978215878657409
3.491638795986622,6.101562503371629
3.511705685618729,6.222813731996862
3.531772575250836,6.3416258726760075
3.551839464882943,6.457678323167723
3.5719063545150496,6.570671990872923
3.591973244147157,6.680327860521376
3.612040133779264,6.78638570448961
3.632107023411371,6.888602927934412
3.652173913043478,6.986753539361265
3.672240802675585,7.080627236538694
3.692307692307692,7.17002859754694
3.712374581939799,7.254776367014259
3.732441471571906,7.334702828103067
3.752508361204013,7.409653251460557
3.7725752508361197,7.479485413073415
3.7926421404682276,7.5440691737165055
3.8127090301003346,7.603286113429572
3.832775919732441,7.657029215174547
3.852842809364548,7.705202592507476
3.872909698996655,7.747721256738616
3.8929765886287626,7.784510919649256
3.9130434782608696,7.8155078283866235
3.933110367892976,7.840658629670566
3.953177257525083,7.859920260922638
3.9732441471571907,7.873259866373176
3.9933110367892977,7.880654736620914
4.013377926421405,7.882092270517425
4.033444816053511,7.877569958630045
4.053511705685618,7.867095387908129
4.073578595317726,7.850686267542702
4.093645484949833,7.828370476374899
4.113712374581939,7.800186132578808
4.133779264214047,7.766181686724721
4.153846153846153,7.726416039724805
4.173913043478261,7.680958687579749
4.193979933110368,7.629889895287441
4.214046822742475,7.573300902747708
4.234113712374581,7.511294166005556
4.254180602006689,7.443983637723029
4.274247491638796,7.3714950913587165
4.294314381270903,7.293966494167184
4.314381270903009,7.21154843480385
4.334448160535117,7.124404612031538
4.354515050167224,7.032712391760113
4.374581939799331,6.93666344039186
4.394648829431437,6.836464443162819
4.414715719063545,6.732337916815939
4.434782608695651,6.624523126449451
4.454849498327759,6.513277116653147
4.474916387959866,6.398875866938735
4.494983277591973,6.281615580795231
4.5150501672240795,6.161814116194125
4.535117056856188,6.039812562678541
4.555183946488294,5.915976965830272
4.575250836120401,5.790700193311925
4.595317725752508,5.664403927063952
4.615384615384615,5.537540752653589
4.635451505016722,5.4105962981084526
4.655518394648829,5.284091349573754
4.6755852842809364,5.158583838532576
4.695652173913043,5.034670554028272
4.71571906354515,4.9129883827736
4.735785953177258,4.794214820773892
4.7558528428093645,4.679067434603171
4.775919732441471,4.568301884198724
4.795986622073578,4.462708061590507
4.816053511705686,4.363103866155515
4.8361204013377925,4.2703261470807705
4.856187290969899,4.185218422244037
4.8762541806020065,4.108615154528534
4.896321070234113,4.041322649580682
4.916387959866221,3.9840970337085047
4.936454849498328,3.937620248663605
4.956521739130435,3.9024754964936217
4.976588628762541,3.8791239832536086
4.996655518394649,3.8678850293701337
5.016722408026756,3.868921537619361
5.036789297658863,3.8822323934520178
5.056856187290969,3.90765265743526
5.076923076923077,3.94486152187102
5.096989966555184,3.993397122127239
5.117056856187291,4.052676594802045
5.137123745819398,4.122019380369983
5.157190635451505,4.200671712002204
5.177257525083611,4.2878304664773506
5.197324414715719,4.382664976110307
5.217391304347826,4.484335897125762
5.237458193979933,4.592010702791429
5.257525083612039,4.704875756594637
5.277591973244148,4.8221451957239
5.297658862876254,4.943067020078313
5.317725752508361,5.066926855528396
5.337792642140468,5.193049867086054
5.357859531772575,5.320801262225391
5.377926421404682,5.449585766699073
5.397993311036789,5.57884638920515
5.418060200668896,5.708062726449223
5.438127090301003,5.836749001725233
5.458193979933109,5.964451980424629
5.478260869565218,6.09074886534588
5.498327759197324,6.215245242723826
5.518394648829431,6.337573125427095
5.538461538461538,6.457389121514644
5.558528428093646,6.5743727430662595
5.578595317725752,6.688224860808298
5.598662207357859,6.798666303618779
5.618729096989966,6.905436597764484
5.638795986622073,7.008292838103969
5.65886287625418,7.107008682029133
5.678929765886288,7.201373456267735
5.698996655518394,7.291191366574799
5.719063545150501,7.376280800613015
5.739130434782608,7.456473714826441
5.759197324414716,7.531615096751483
5.7792642140468224,7.601562494917973
5.799331103678929,7.666185609225175
5.8193979933110365,7.725365935403967
5.839464882943144,7.778996457877627
5.8595317725752505,7.826981385999982
5.879598662207358,7.869235929274768
5.8996655518394645,7.905686107743846
5.919732441471571,7.936268594274105
5.9397993311036785,7.960930585977815
5.959866220735786,7.979629702471065
5.9799331103678925,7.992333909116007
5.999999999999999,7.999021463808099
6.020066889632107,7.9996808862659785
6.040133779264214,7.9943109491629105
6.060200668896321,7.9829206908111745
6.080267558528428,7.96552944947863
6.100334448160535,7.9421669197856835
6.120401337792642,7.912873232006175
6.1404682274247495,7.877699055482031
6.160535117056856,7.836705727764484
6.180602006688963,7.789965411519153
6.200668896321069,7.737561281683058
6.2207357859531776,7.679587745843558
6.240802675585284,7.61615070132636
6.260869565217391,7.547367833035348
6.280936454849498,7.473368956683102
6.301003344481605,7.394296412687772
6.321070234113712,7.310305516685748
6.341137123745819,7.221565073313949
6.361204013377926,7.128257960635351
6.381270903010033,7.030581793294813
6.40133779264214,6.9287496731627325
6.421404682274248,6.822991036799376
6.441471571906354,6.713552609474267
6.461538461538461,6.600699475594574
6.481605351170568,6.4847162750790925
6.501672240802676,6.365908534250781
6.521739130434782,6.244604137924726
6.54180602006689,6.121154946161313
6.561872909698996,5.995938554137694
6.581939799331103,5.869360186128397
6.60200668896321,5.74185470387879
6.622073578595318,5.613888694736898
6.642140468227424,5.485962584658104
6.662207357859531,5.35861269439664
6.682274247491639,5.232413122664125
6.702341137123746,5.107977296863876
6.722408026755852,4.985958979976215
6.742474916387959,4.867052462341787
6.762541806020066,4.751991602677883
6.782608695652174,4.641547320072468
6.80267558528428,4.536523088643139
6.822742474916388,4.43774796485581
6.842809364548494,4.34606670503525
6.862876254180601,4.26232663139158
6.882943143812709,4.187361101543236
6.903010033444816,4.121969742391177
6.9230769230769225,4.066896017968952
6.94314381270903,4.022803176212302
6.963210702341137,3.9902500897978666
6.983277591973244,3.969668870093648
7.0033444816053505,3.9613462809640265
7.023411371237458,3.9654108258775698
7.0434782608695645,3.9818269037719465
7.063545150501672,4.010396685639627
7.083612040133779,4.05076949044266
7.103678929765886,4.102457610952275
7.123745819397993,4.164856918538379
7.143812709030099,4.237270260228812
7.1638795986622075,4.318931667263935
7.183946488294314,4.409029663171598
7.204013377926421,4.50672838907781
7.224080267558528,4.611185745865131
7.2441471571906355,4.721568199390441
7.264214046822742,4.837062252854068
7.2842809364548495,4.956882839637831
7.304347826086956,5.08027903548329
7.324414715719063,5.206537549848957
7.34448160535117,5.334984456606846
7.364548494983278,5.464985586577342
7.384615384615384,5.595945947061708
7.404682274247491,5.727308469619407
7.424749163879598,5.858552325216327
7.444816053511706,5.989190990175584
7.464882943143812,6.118770199105281
7.48494983277592,6.24686588249408
7.505016722408026,6.373082156340812
7.525083612040134,6.497049407950924
7.545150501672239,6.618422504683336
7.565217391304348,6.736879139798718
7.585284280936455,6.852118320606949
7.605351170568561,6.9638589979648655
7.625418060200669,7.071838832124355
7.645484949832775,7.1758130874175
7.665551839464882,7.275553646856042
7.685618729096991,7.370848137091124
7.705685618729096,7.46149915408078
7.725752508361204,7.547323580068811
7.74581939799331,7.628151982959543
7.765886287625418,7.7038280897864375
7.785953177257525,7.774208326655118
7.806020066889631,7.839161418248194
7.826086956521739,7.8985680406822985
7.846153846153847,7.952320522189079
7.866220735785952,8.000322586739989
7.88628762541806,8.04248913634515
7.906354515050166,8.07874606832794
7.926421404682274,8.109030124409445
7.946488294314381,8.133288768934044
7.966555183946488,8.1514800940322
7.986622073578595,8.163572749953733
8.006688963210701,8.169545899218749
8.02675585284281,8.169389193629945
8.046822742474916,8.163102773572195
8.066889632107022,8.150697289401222
8.08695652173913,8.132193945094551
8.107023411371236,8.107624564712838
8.127090301003344,8.07703168260096
8.147157190635452,8.040468658652285
8.167224080267557,7.997999820371025
8.187290969899665,7.949700633900276
8.207357859531772,7.895657906644515
8.227424749163879,7.83597002460536
8.247491638795987,7.770747228075929
8.267558528428093,7.7001119299014675
8.2876254180602,7.6241990811147815
8.307692307692307,7.543156589392266
8.327759197324415,7.457145796444625
8.347826086956522,7.366342021146234
8.367892976588628,7.2709351758999246
8.387959866220736,7.171130464402915
8.408026755852843,7.067149169581853
8.42809364548495,6.959229540939216
8.448160535117056,6.847627790811717
8.468227424749163,6.732619208959576
8.488294314381271,6.6144994043143885
8.508361204013378,6.493585681379361
8.528428093645484,6.370218556390086
8.548494983277592,6.244763414497149
8.568561872909697,6.117612303394871
8.588628762541806,5.989185850324778
8.608695652173914,5.85993527740243
8.628762541806019,5.730344473773725
8.648829431438127,5.600932061096034
8.668896321070234,5.472253360109131
8.68896321070234,5.344902129573738
8.709030100334449,5.21951190397014
8.729096989966555,5.096756703267136
8.749163879598662,4.97735082849096
8.769230769230768,4.862047394805206
8.789297658862875,4.751635196799909
8.809364548494983,4.646933460478426
8.82943143812709,4.5487840297041835
8.849498327759196,4.458040582615827
8.869565217391303,4.3755545985344115
8.889632107023411,4.302158017529529
8.909698996655518,4.2386428608356495
8.929765886287624,4.185738496867291
8.949832775919733,4.144087700539467
8.96989966555184,4.1142230861629185
8.989966555183946,4.096545796126788
9.010033444816054,4.09130839845602
9.030100334448159,4.09860371856328
9.050167224080267,4.118360800790557
9.070234113712376,4.150348438979149
9.09030100334448,4.194185872939956
9.110367892976589,4.249359485797835
9.130434782608695,4.315243797786586
9.150501672240802,4.391124812798434
9.17056856187291,4.476223833928529
9.190635451505017,4.569720157637627
9.210702341137123,4.670771483410419
9.23076923076923,4.778531336657422
9.250836120401337,4.892163219657286
9.270903010033445,5.010851533529504
9.290969899665551,5.133809538851001
9.311036789297658,5.260284750662802
9.331103678929765,5.389562214189477
9.351170568561873,5.520966103197069
9.37123745819398,5.653860044481189
9.391304347826086,5.787646516226623
9.411371237458194,5.921765606795757
9.4314381270903,6.055693361427183
9.451505016722408,6.188939891509358
9.471571906354516,6.321047376311037
9.49163879598662,6.4515880505598115
9.511705685618729,6.580162242464586
9.531772575250837,6.706396504668068
9.551839464882942,6.82994186406102
9.57190635451505,6.950472204296536
9.591973244147155,7.067682786239519
9.612040133779264,7.181288905651305
9.632107023411372,7.291024683476243
9.652173913043477,7.3966419816353985
9.672240802675585,7.4979094358346625
9.692307692307692,7.5946115962482645
9.712374581939798,7.686548166811254
9.732441471571907,7.773533334074639
9.752508361204013,7.855395177019396
9.77257525083612,7.931975149802272
9.792642140468226,8.003127630053287
9.812709030100335,8.068719526021578
9.832775919732441,8.12862993654155
9.852842809364548,8.182749858449608
9.872909698996656,8.230981936710267
9.89297658862876,8.273240253105921
9.91304347826087,8.309450149902183
9.933110367892976,8.339548085425044
9.953177257525082,8.363481518975185
9.97324414715719,8.381208822965993
9.993311036789297,8.392699220606094
10.013377926421404,8.397932747861137
10.033444816053512,8.396900238827039
10.053511705685617,8.38960333403268
10.073578595317725,8.376054511569688
10.093645484949834,8.356277141324627
10.113712374581938,8.330305562970558
10.133779264214047,8.298185188764403
10.153846153846153,8.259972632599561
10.17391304347826,8.215735867184279
10.193979933110368,8.165554411659217
10.214046822742475,8.109519552438584
10.234113712374581,8.047734600558893
10.254180602006688,7.980315189353956
10.274247491638796,7.907389616842367
10.294314381270903,7.829099237816816
10.31438127090301,7.745598911256885
10.334448160535118,7.6570575093433275
10.354515050167223,7.563658495016053
10.37458193979933,7.465600575669947
10.394648829431437,7.363098441186757
10.414715719063544,7.256383595008442
10.434782608695652,7.145705287295603
10.454849498327757,7.031331559282654
10.474916387959865,6.913550407599695
10.494983277591974,6.792671076389323
10.515050167224079,6.669025483248586
10.535117056856187,6.542969782034463
10.555183946488295,6.414886060945162
10.5752508361204,6.285184167469228
10.595317725752508,6.154303642080839
10.615384615384615,6.022715729110197
10.635451505016722,5.890925415056748
10.65551839464883,5.759473420677399
10.675585284280936,5.628938042429299
10.695652173913043,5.4999367004468
10.71571906354515,5.3731270038906835
10.735785953177256,5.249207090956032
10.755852842809364,5.128914942503073
10.775919732441471,5.013026310194819
10.795986622073578,4.9023508507080855
10.816053511705684,4.797726029835844
10.836120401337793,4.7000083713670024
10.856187290969899,4.610061696085188
10.876254180602006,4.528742146806729
10.896321070234114,4.456880041190242
10.916387959866219,4.395258936346719
10.936454849498327,4.344592706345582
10.956521739130435,4.305501874334332
10.97658862876254,4.278490825266894
10.996655518394649,4.263927756990621
11.016722408026755,4.26202921881779
