Frequency (Hz),Amplitude
0.0,1.7366289251905576
0.01978021978021978,1.736421857579164
0.03956043956043956,1.735801279825169
0.05934065934065934,1.734769066533603
0.07912087912087912,1.7333283399183148
0.0989010989010989,1.7314834665773278
0.11868131868131868,1.7292400529122254
0.13846153846153844,1.7266049391254252
0.15824175824175823,1.7235861917094009
0.17802197802197803,1.7201930943225068
0.1978021978021978,1.7164361369257497
0.21758241758241756,1.7123270030347533
0.23736263736263735,1.7078785549202125
0.2571428571428572,1.703104816569822
0.2769230769230769,1.6980209542034161
0.2967032967032967,1.6926432541129406
0.31648351648351647,1.686989097578578
0.3362637362637363,1.6810769325934658
0.35604395604395606,1.6749262421114808
0.3758241758241758,1.6685575085170534
0.3956043956043956,1.6619921740024262
0.4153846153846154,1.6552525965284304
0.4351648351648351,1.6483620010389008
0.45494505494505494,1.6413444255990186
0.4747252747252747,1.634224662133775
0.4945054945054945,1.6270281914565885
0.5142857142857143,1.619781112300557
0.5340659340659341,1.6125100640971701
0.5538461538461538,1.605242143291055
0.5736263736263736,1.598004813035118
0.5934065934065934,1.5908258061795373
0.6131868131868132,1.5837330215510355
0.6329670329670329,1.576754413616035
0.6527472527472528,1.5699178757325734
0.6725274725274726,1.5632511173206296
0.6923076923076923,1.5567815354175967
0.7120879120879121,1.5505360812328908
0.7318681318681318,1.5445411224705963
0.7516483516483516,1.5388223023480834
0.7714285714285715,1.5334043963971555
0.7912087912087912,1.5283111682882429
0.810989010989011,1.5235652260607826
0.8307692307692308,1.5191878802697403
0.8505494505494506,1.5151990056617193
0.8703296703296702,1.511616908069375
0.8901098901098901,1.5084581982539953
0.9098901098901099,1.5057376744285043
0.9296703296703297,1.5034682151531893
0.9494505494505494,1.5016606842125053
0.9692307692307692,1.5003238489524453
0.989010989010989,1.4994643133863617
1.0087912087912088,1.4990864671655773
1.0285714285714287,1.499192451265912
1.0483516483516484,1.4997821409682042
1.0681318681318681,1.500853146419941
1.087912087912088,1.5024008307640144
1.1076923076923075,1.504418345520651
1.1274725274725275,1.5068966826188017
1.1472527472527472,1.5098247422029847
1.1670329670329669,1.5131894150997622
1.1868131868131868,1.5169756786204973
1.2065934065934065,1.5211667042098993
1.2263736263736265,1.525743975325855
1.2461538461538462,1.5306874138565874
1.2659340659340659,1.5359755133458581
1.2857142857142858,1.5415854773033577
1.3054945054945055,1.5474933609222394
1.3252747252747252,1.553674214603764
1.3450549450549452,1.560102227795002
1.3648351648351649,1.566750871773756
1.3846153846153846,1.5735930401584275
1.4043956043956045,1.5806011860746478
1.4241758241758242,1.5877474550689215
1.443956043956044,1.5950038130175945
1.4637362637362636,1.6023421684332781
1.4835164835164834,1.609734488716477
1.5032967032967033,1.6171529100358188
1.523076923076923,1.624569840642854
1.542857142857143,1.631958057537323
1.5626373626373626,1.6392907964936327
1.5824175824175823,1.6465418355410533
1.6021978021978023,1.6536855720571415
1.621978021978022,1.660697093688665
1.6417582417582417,1.6675522433564498
1.6615384615384616,1.6742276786319021
1.6813186813186813,1.6807009257945633
1.7010989010989013,1.686950428892891
1.720879120879121,1.6929555941359662
1.7406593406593405,1.6986968299433391
1.7604395604395604,1.7041555829740291
1.7802197802197801,1.7093143704460374
1.7999999999999998,1.7141568090440908
1.8197802197802198,1.7186676406976993
1.8395604395604395,1.7228327554936413
1.8593406593406594,1.7266392119681255
1.879120879120879,1.7300752550037777
1.8989010989010988,1.7331303315362336
1.9186813186813187,1.7357951042543898
1.9384615384615385,1.7380614634577254
1.9582417582417584,1.7399225372135483
1.978021978021978,1.7413726999366452
1.9978021978021978,1.7424075794938791
2.0175824175824175,1.7430240629163691
2.0373626373626372,1.7432203007824554
2.0571428571428574,1.7429957103152809
2.076923076923077,1.742350977219793
2.096703296703297,1.7412880562644197
2.1164835164835165,1.7398101705941011
2.1362637362637362,1.737921809741366
2.1560439560439564,1.7356287262831605
2.175824175824176,1.732937931070855
2.195604395604396,1.7298576869407738
2.215384615384615,1.7263975007919086
2.2351648351648348,1.7225681138962623
2.254945054945055,1.718381490285637
2.2747252747252746,1.7138508030368464
2.2945054945054943,1.7089904182547555
2.314285714285714,1.7038158765304654
2.3340659340659338,1.6983438716293235
2.353846153846154,1.6925922261417812
2.3736263736263736,1.6865798638088125
2.3934065934065933,1.6803267782141045
2.413186813186813,1.6738539975169893
2.4329670329670328,1.667183544885401
2.452747252747253,1.6603383942761232
2.4725274725274726,1.6533424212026007
2.4923076923076923,1.646220348128972
2.512087912087912,1.6389976841343337
2.5318681318681318,1.631700658504449
2.5516483516483515,1.6243561479310302
2.5714285714285716,1.616991597032352
2.5912087912087913,1.6096349319546917
2.610989010989011,1.6023144668734846
2.6307692307692307,1.5950588032868163
2.6505494505494505,1.5878967220828304
2.6703296703296706,1.5808570684676997
2.6901098901098903,1.5739686299610585
2.70989010989011,1.5672600078014793
2.7296703296703297,1.5607594822537894
2.7494505494505495,1.5544948724707472
2.769230769230769,1.5484933917309287
2.7890109890109893,1.5427814990487465
2.808791208791209,1.537384748326341
2.8285714285714287,1.5323276363855471
2.8483516483516484,1.5276334513745302
2.8681318681318677,1.5233241231820493
2.887912087912088,1.5194200776049342
2.9076923076923076,1.5159400960958829
2.9274725274725273,1.5129011829615058
2.947252747252747,1.5103184418810796
2.9670329670329667,1.5082049635695227
2.986813186813187,1.5065717263126455
3.0065934065934066,1.5054275109577584
3.0263736263736263,1.5047788317507078
3.046153846153846,1.5046298841752976
3.0659340659340657,1.5049825106790864
3.085714285714286,1.505836184868723
3.1054945054945056,1.5071880144382317
3.1252747252747253,1.5090327627652238
3.145054945054945,1.5113628887838524
3.1648351648351647,1.5141686044310767
3.184615384615385,1.517437948673497
3.2043956043956046,1.5211568768658625
3.2241758241758243,1.5253093639754305
3.243956043956044,1.5298775200349366
3.2637362637362637,1.5348417160633046
3.2835164835164834,1.5401807186192038
3.3032967032967036,1.5458718311260542
3.3230769230769233,1.5518910401261288
3.342857142857143,1.5582131646808568
3.3626373626373627,1.564812007229039
3.3824175824175824,1.5716605043380734
3.4021978021978025,1.5787308759286391
3.4219780219780223,1.5859947717139704
3.441758241758242,1.5934234137646177
3.4615384615384617,1.6009877342822483
3.481318681318681,1.6086585078365385
3.501098901098901,1.6164064774838771
3.520879120879121,1.6242024743405288
3.5406593406593405,1.632017530325179
3.5604395604395602,1.6398229839136744
3.58021978021978,1.6475905788609335
3.5999999999999996,1.6552925559428382
3.61978021978022,1.662901737851606
3.6395604395604395,1.670391607445941
3.659340659340659,1.6777363796095373
3.679120879120879,1.6849110670122522
3.6989010989010986,1.6918915400966583
3.718681318681319,1.6986545816317684
3.7384615384615385,1.7051779361853272
3.758241758241758,1.7114403548688637
3.7780219780219784,1.7174216357057615
3.7978021978021976,1.7231026599640378
3.8175824175824173,1.7284654247826714
3.8373626373626375,1.7334930724044624
3.8571428571428568,1.7381699163100912
3.876923076923077,1.7424814645282931
3.896703296703296,1.7464144403759243
3.916483516483517,1.7499568008600104
3.936263736263736,1.7530977529518839
3.956043956043956,1.7558277679214933
3.9758241758241755,1.7581385938978353
3.9956043956043956,1.7600232667999847
4.015384615384615,1.7614761197616873
4.035164835164835,1.7624927911513368
4.054945054945055,1.7630702312687618
4.0747252747252745,1.76320670777936
4.094505494505494,1.7629018099260585
4.114285714285715,1.7621564515393975
4.134065934065934,1.7609728728455927
4.153846153846154,1.759354641052142
4.173626373626373,1.7573066496699947
4.193406593406594,1.754835116509858
4.213186813186813,1.7519475802690576
4.232967032967033,1.7486528956028766
4.252747252747253,1.7449612265515382
4.2725274725274724,1.7408840381704693
4.292307692307692,1.7364340861870264
4.312087912087913,1.7316254044819286
4.331868131868132,1.7264732901681255
4.351648351648352,1.7209942860135823
4.371428571428571,1.7152061599285013
4.391208791208792,1.7091278812112956
4.410989010989011,1.7027795932222205
4.43076923076923,1.6961825821294587
4.450549450549451,1.6893592413499796
4.4703296703296695,1.6823330312879246
4.49010989010989,1.6751284339575396
4.50989010989011,1.667770902066622
4.52967032967033,1.6602868021320283
4.549450549450549,1.652703351201495
4.569230769230769,1.6450485467687086
4.589010989010989,1.6373510894917669
4.608791208791209,1.6296402983612204
4.628571428571428,1.621946018014424
4.648351648351649,1.614298517959496
4.6681318681318675,1.6067283835560842
4.687912087912088,1.5992663987027536
4.707692307692308,1.5919434203025231
4.7274725274725276,1.5847902447189088
4.747252747252747,1.5778374665945487
4.767032967032967,1.5711153305807612
4.786813186813187,1.5646535767174479
4.806593406593407,1.5584812804043466
4.826373626373626,1.552626688112425
4.846153846153847,1.5471170501919946
4.8659340659340655,1.541978452335148
4.885714285714286,1.5372356474368003
4.905494505494506,1.5329118897623788
4.9252747252747255,1.5290287734629002
4.945054945054945,1.525606077571228
4.964835164835165,1.5226616196598057
4.984615384615385,1.5202111203330706
5.004395604395604,1.518268080663496
5.024175824175824,1.5168436745557377
5.043956043956045,1.5159466578394614
5.0637362637362635,1.5155832956510773
5.083516483516483,1.5157573093729337
5.103296703296703,1.516469844065312
5.123076923076923,1.517719456960656
5.142857142857143,1.5195021272050264
5.162637362637362,1.5218112866406266
5.182417582417583,1.5246378710407538
5.2021978021978015,1.5279703908462272
5.221978021978022,1.5317950201241959
5.241758241758242,1.5360957021849007
5.2615384615384615,1.5408542700586803
5.281318681318681,1.54605057985859
5.301098901098901,1.5516626549371104
5.320879120879121,1.5576668386869688
5.340659340659341,1.564037953835445
5.36043956043956,1.5707494661314971
5.380219780219781,1.5777736504218314
5.3999999999999995,1.5850817572457856
5.41978021978022,1.5926441782431728
5.43956043956044,1.600430608854575
5.4593406593406595,1.6084102069922128
5.479120879120879,1.61655174656428
5.498901098901099,1.6248237649391701
5.518681318681319,1.6331947036333487
5.538461538461538,1.6416330416927518
5.558241758241758,1.65010742140925
5.578021978021979,1.6585867661686944
5.5978021978021975,1.6670403903633613
5.617582417582418,1.675438101419678
5.637362637362637,1.683750294090639
5.6571428571428575,1.6919480372438123
5.676923076923077,1.7000031534393047
5.696703296703297,1.7078882916410498
5.716483516483517,1.7155769934390608
5.736263736263735,1.7230437531827794
5.756043956043956,1.730264072437374
5.775824175824176,1.7372145091777056
5.795604395604395,1.7438727221300212
5.815384615384615,1.750217510661151
5.835164835164835,1.7562288505993338
5.854945054945055,1.7618879263523568
5.874725274725275,1.7671771596668349
5.894505494505494,1.772080235349427
5.914285714285715,1.776582124246031
5.934065934065933,1.7806691037501168
5.953846153846154,1.784328776085781
5.973626373626374,1.7875500845861825
5.993406593406593,1.7903233281627466
6.013186813186813,1.7926401741363847
6.032967032967033,1.7944936695779767
6.052747252747253,1.7958782512817053
6.072527472527473,1.796789754472428
6.092307692307692,1.7972254203253093
6.112087912087913,1.7971839023540743
6.131868131868131,1.7966652717020906
6.151648351648352,1.795671021348544
6.171428571428572,1.7942040692198513
6.191208791208791,1.7922687601738103
6.210989010989011,1.7898708668013108
6.230769230769231,1.787017588966339
6.2505494505494505,1.7837175519808486
6.270329670329671,1.7799808032853128
6.29010989010989,1.7758188074792662
6.309890109890111,1.7712444395181004
6.329670329670329,1.7662719758636414
6.349450549450549,1.760917083345227
6.36923076923077,1.7551968054569946
6.3890109890109885,1.7491295457843077
6.408791208791209,1.7427350482192348
6.428571428571428,1.7360343735915607
6.4483516483516485,1.7290498723085155
6.468131868131868,1.7218051525641451
6.487912087912088,1.7143250436488209
6.507692307692308,1.706635553861789
6.527472527472527,1.698763822506342
6.547252747252747,1.6907380654295183
6.567032967032967,1.6825875135581756
6.5868131868131865,1.6743423438825378
6.606593406593407,1.666033602349375
6.626373626373626,1.6576931181516794
6.6461538461538465,1.649353408943168
6.665934065934065,1.6410475765658126
6.685714285714286,1.6328091929597786
6.705494505494506,1.6246721760293823
6.725274725274725,1.616670655367677
6.745054945054945,1.608838827897142
6.764835164835165,1.6012108036648323
6.7846153846153845,1.5938204422360818
6.804395604395605,1.5867011803603899
6.824175824175824,1.5798858518313124
6.8439560439560445,1.5734065007255145
6.863736263736263,1.5672941894771835
6.883516483516484,1.5615788035142433
6.903296703296704,1.556288854442999
6.923076923076923,1.5514512840072487
6.942857142857143,1.5470912712539597
6.962637362637362,1.5432320454999102
6.9824175824175825,1.539894707799883
7.002197802197802,1.5370980636577738
7.021978021978022,1.534858469688904
7.041758241758242,1.533189696830266
7.061538461538461,1.5321028125026837
7.081318681318681,1.5316060838578556
7.101098901098901,1.53170490389902
7.1208791208791204,1.532401741857019
7.140659340659341,1.5336961187464984
7.16043956043956,1.5355846085370732
7.1802197802197805,1.5380608648682457
7.199999999999999,1.541115672735245
7.21978021978022,1.5447370240933271
7.23956043956044,1.5489102158886656
7.259340659340659,1.5536179686391016
7.279120879120879,1.5588405633708617
7.298901098901099,1.5645559944739864
7.318681318681318,1.5707401358766082
7.338461538461539,1.5773669178540526
7.358241758241758,1.5844085117817583
7.3780219780219785,1.5918355202037309
7.397802197802197,1.599617169712299
7.417582417582418,1.6077215043099788
7.437362637362638,1.6161155771386062
7.457142857142857,1.6247656387030758
7.476923076923077,1.6336373199762646
7.496703296703297,1.642695809036916
7.516483516483516,1.6519060201553228
7.536263736263736,1.6612327544941048
7.556043956043957,1.6706408518284521
7.575824175824176,1.6800953329060202
7.595604395604395,1.6895615322599777
7.615384615384615,1.6990052214563975
7.635164835164835,1.708392722900327
7.654945054945055,1.7176910144424904
7.674725274725275,1.72686782512335
7.694505494505494,1.7358917224636763
7.7142857142857135,1.7447321917638836
7.734065934065935,1.7533597079099632
7.753846153846154,1.7617458002043331
7.7736263736263735,1.7698631107477425
7.793406593406592,1.7776854468956225
7.813186813186814,1.7851878283010092
7.832967032967034,1.7923465290381853
7.852747252747252,1.7991391152781997
7.872527472527472,1.8055444789607062
7.892307692307693,1.8115428678773347
7.912087912087912,1.8171159125512233
7.931868131868132,1.822246650265569
7.951648351648351,1.8269195465629
7.971428571428572,1.8311205145050113
7.991208791208791,1.8348369319533044
8.010989010989011,1.8380576570991822
8.03076923076923,1.8407730424456472
8.05054945054945,1.8429749474131916
8.07032967032967,1.8446567497165443
8.09010989010989,1.845813355632604
8.10989010989011,1.8464412092549238
8.129670329670331,1.8465383008051732
8.149450549450549,1.8461041740479536
8.169230769230769,1.845139932830788
8.189010989010988,1.8436482467468784
8.20879120879121,1.8416333558933689
8.22857142857143,1.8391010746722374
8.248351648351647,1.836058794554552
8.268131868131867,1.8325154857009545
8.287912087912087,1.8284816973021751
8.307692307692308,1.823969556472269
8.327472527472528,1.8189927654944043
8.347252747252746,1.813566597184093
8.367032967032966,1.8077078880974589
8.386813186813187,1.8014350292727206
8.406593406593407,1.7947679541513788
8.426373626373627,1.7877281232820466
8.446153846153845,1.780338505364291
8.465934065934066,1.7726235541435356
8.485714285714286,1.7646091806209017
8.505494505494505,1.7563227199951803
8.525274725274725,1.747792892709297
8.545054945054945,1.7390497589317768
8.564835164835165,1.7301246657669116
8.584615384615384,1.7210501864579102
8.604395604395604,1.711860050827582
8.624175824175826,1.7025890661944156
8.643956043956043,1.6932730280109987
8.663736263736263,1.6839486195007536
8.683516483516483,1.674653299621496
8.703296703296704,1.6654251787635452
8.723076923076924,1.656302881701097
8.742857142857142,1.6473253974598296
8.762637362637362,1.6385319159454632
8.782417582417583,1.6299616513978807
8.802197802197803,1.621653652994187
8.821978021978023,1.6136466032201167
8.84175824175824,1.6059786049597233
8.86153846153846,1.5986869586109578
8.881318681318682,1.5918079309133661
8.901098901098901,1.5853765175604888
8.920879120879121,1.5794262020519427
8.940659340659339,1.573988713601168
8.96043956043956,1.56909378723867
8.98021978021978,1.5647689295175502
9.0,1.5610391934211811
9.01978021978022,1.5579269661750565
9.03956043956044,1.5554517736621487
9.05934065934066,1.55363010502388
9.079120879120879,1.5524752607920123
9.098901098901099,1.551997227541752
9.11868131868132,1.5522025815908564
9.138461538461538,1.5530944237066997
9.158241758241758,1.5546723461445544
9.178021978021977,1.5569324326485556
9.197802197802199,1.559867291331227
9.217582417582419,1.5634661196371589
9.237362637362637,1.5677147999202798
9.257142857142856,1.5725960235493168
9.276923076923078,1.5780894409252662
9.296703296703297,1.5841718343655047
9.316483516483517,1.5908173104929093
9.336263736263735,1.59799750857074
9.356043956043957,1.605681821142786
9.375824175824176,1.613837623368046
9.395604395604396,1.6224305075670042
9.415384615384616,1.6314245197091595
9.435164835164835,1.6407823948503555
9.454945054945055,1.650465788857063
9.474725274725275,1.660435504114218
9.494505494505495,1.670651707287924
9.514285714285714,1.6810741375889804
9.534065934065934,1.6916623043457262
9.553846153846154,1.7023756730351196
9.573626373626373,1.7131738392321425
9.593406593406593,1.7240166902146643
9.613186813186815,1.7348645542011298
9.632967032967032,1.745678337401121
9.652747252747252,1.7564196492250914
9.672527472527472,1.7670509161305097
9.692307692307693,1.7775354846811073
9.712087912087913,1.7878377144664366
9.731868131868131,1.7979230615742257
9.75164835164835,1.8077581533322582
9.771428571428572,1.8173108550423172
9.791208791208792,1.826550329420493
9.810989010989012,1.8354470894381516
9.83076923076923,1.8439730452292042
9.850549450549451,1.85210154569421
9.87032967032967,1.859807415392642
9.89010989010989,1.8670669872724015
9.90989010989011,1.8738581317424912
9.92967032967033,1.8801602825510448
9.94945054945055,1.8859544598880642
9.96923076923077,1.8912232910904345
9.989010989010989,1.895951029286551
10.008791208791209,1.9001235702796213
10.028571428571428,1.9037284679325042
10.048351648351648,1.9067549482822856
10.068131868131868,1.9091939225805667
10.08791208791209,1.9110379994244844
10.107692307692307,1.9122814961141292
10.127472527472527,1.9129204493441723
10.147252747252747,1.9129526253098352
10.167032967032966,1.912377529281193
10.186813186813188,1.91119641467284
10.206593406593406,1.909412291609576
10.226373626373626,1.907029934961223
10.246153846153845,1.904055891791459
10.265934065934067,1.900498488135496
10.285714285714286,1.8963678349899769
10.305494505494504,1.8916758333640291
10.325274725274724,1.8864361782037686
10.345054945054946,1.8806643609624287
10.364835164835165,1.874377670544704
10.384615384615385,1.867595192306492
10.404395604395603,1.860337804739783
10.424175824175824,1.8526281734164651
10.443956043956044,1.844490741705097
10.463736263736264,1.8359517177103943
10.483516483516484,1.8270390568175474
10.503296703296703,1.8177824391525337
10.523076923076923,1.8082132411968594
10.542857142857143,1.7983645007216407
10.562637362637362,1.7882708741335023
10.582417582417584,1.7779685852563927
10.602197802197802,1.7674953645111064
10.621978021978022,1.7568903774026683
10.641758241758241,1.7461941411886681
