Frequency (Hz),Amplitude
0.0,1.5042622619095911
0.019867549668874173,1.5035238159776023
0.039735099337748346,1.5013092024079053
0.059602649006622516,1.497620593179249
0.07947019867549669,1.4924616059236138
0.09933774834437085,1.4858373004302006
0.11920529801324503,1.4777541737571067
0.13907284768211922,1.4682201539566404
0.15894039735099338,1.4572445924220323
0.17880794701986755,1.4448382548654695
0.1986754966887417,1.4310133109387662
0.2185430463576159,1.415783322510545
0.23841059602649006,1.399163230615609
0.2582781456953642,1.381169341094665
0.27814569536423844,1.3618193089451254
0.2980132450331126,1.3411321214064684
0.31788079470198677,1.3191280798069798
0.33774834437086093,1.2958287802023116
0.3576158940397351,1.2712570928408844
0.3774834437086093,1.2454371404961777
0.3973509933774834,1.218394275712692
0.4172185430463576,1.1901550570201915
0.4370860927152318,1.1607472241813548
0.45695364238410596,1.1301996725508114
0.4768211920529801,1.0985424266412802
0.49668874172185434,1.0658066130153936
0.5165562913907285,1.032024432653179
0.5364238410596026,0.9972291329883058
0.5562913907284769,0.9614549798662061
0.5761589403973509,0.9247372297624614
0.5960264900662252,0.8871121027227679
0.6158940397350993,0.8486167566657504
0.6357615894039735,0.8092892639591395
0.6556291390728477,0.7691685915893806
0.6754966887417219,0.7282945868822893
0.695364238410596,0.6867079717483175
0.7152317880794702,0.6444503500871
0.7350993377483444,0.6015642357832319
0.7549668874172186,0.5580931135926971
0.7748344370860927,0.5140815540106256
0.7947019867549668,0.469575419785117
0.8145695364238411,0.424622234580322
0.8344370860927152,0.3792718532747997
0.8543046357615894,0.3335777287867501
0.8741721854304636,0.28759945158404304
0.8940397350993378,0.24140827871030693
0.9139072847682119,0.1951006298940732
0.9337748344370861,0.14883684526488372
0.9536423841059603,0.10298353073514302
0.9735099337748344,0.05890620075098291
0.9933774834437087,0.027824215427730586
1.0132450331125828,0.05029626601557339
1.033112582781457,0.09343676468652837
1.0529801324503312,0.13911433378747165
1.0728476821192052,0.18535355130005596
1.0927152317880795,0.23169328752691845
1.1125827814569538,0.27794834282681075
1.1324503311258278,0.3240134767874347
1.1523178807947019,0.3698136128230055
1.1721854304635762,0.41528723266482137
1.1920529801324504,0.460379771632948
1.2119205298013245,0.5050406485683404
1.2317880794701985,0.5492218067947099
1.2516556291390728,0.5928769504244418
1.271523178807947,0.6359611271575408
1.2913907284768211,0.6784304951443417
1.3112582781456954,0.720242192872248
1.3311258278145695,0.7613542692537677
1.3509933774834437,0.8017256501597055
1.370860927152318,0.8413161276557426
1.390728476821192,0.8800863636979378
1.410596026490066,0.9179979031780557
1.4304635761589404,0.9550131930598729
1.4503311258278146,0.9910956054719151
1.4701986754966887,1.026209463324272
1.4900662251655628,1.0603200674660704
1.5099337748344372,1.093393724693771
1.5298013245033113,1.1253977761161293
1.5496688741721854,1.1563006255147428
1.5695364238410596,1.1860717674309929
1.5894039735099337,1.2146818147747978
1.609271523178808,1.2421025257968457
1.6291390728476822,1.2683068302992972
1.6490066225165563,1.2932688549845617
1.6688741721854303,1.3169639478603574
1.6887417218543048,1.3393687016329745
1.7086092715231789,1.360460976031663
1.728476821192053,1.3802199190154432
1.7483443708609272,1.3986259868203814
1.7682119205298013,1.4156609628110233
1.7880794701986755,1.431307975104038
1.8079470198675496,1.445551512936225
1.8278145695364238,1.4583774417521795
1.847682119205298,1.469773016989998
1.8675496688741722,1.4797268965459298
1.8874172185430464,1.4882291519013653
1.9072847682119205,1.4952712778977018
1.9271523178807946,1.5008462011468087
1.9470198675496688,1.504948287066682
1.9668874172185429,1.507573345533919
1.9867549668874174,1.5087186351464434
2.0066225165562916,1.5083828660917664
2.0264900662251657,1.5065662016178936
2.0463576158940397,1.5032702581057815
2.066225165562914,1.4984981037441365
2.086092715231788,1.492254255809139
2.1059602649006623,1.4845446765536596
2.1258278145695364,1.4753767677124627
2.1456953642384105,1.464759363631886
2.165562913907285,1.4527027230348353
2.185430463576159,1.4392185194340403
2.205298013245033,1.4243198302091205
2.2251655629139075,1.408021124365759
2.2450331125827816,1.3903382489983138
2.2649006622516556,1.371288414480515
2.2847682119205297,1.3508901784131344
2.3046357615894038,1.3291634283617795
2.324503311258278,1.306129363423791
2.3443708609271523,1.2818104746695622
2.364238410596027,1.256230524511993
2.384105960264901,1.2294145250677935
2.403973509933775,1.201388715587346
2.423841059602649,1.1721805390463231
2.443708609271523,1.1418186180138903
2.463576158940397,1.1103327299408492
2.4834437086092715,1.0777537820493432
2.5033112582781456,1.044113786057552
2.52317880794702,1.0094458330444058
2.543046357615894,0.9737840688588975
2.562913907284768,0.9371636706199771
2.5827814569536423,0.8996208250560066
2.6026490066225163,0.8611927097300374
2.622516556291391,0.8219174786386341
2.642384105960265,0.7818342543426954
2.662251655629139,0.7409831298258407
2.6821192052980134,0.6994051849200829
2.7019867549668874,0.6571425248088785
2.7218543046357615,0.6142383525812289
2.741721854304636,0.5707370955101291
2.76158940397351,0.526684618498995
2.781456953642384,0.48212858379881374
2.801324503311258,0.4371190662437091
2.821192052980132,0.3917096368576625
2.8410596026490067,0.34595935638326747
2.8609271523178808,0.2999366671450992
2.8807947019867552,0.2537276152177162
2.9006622516556293,0.2074551560868736
2.9205298013245033,0.16133156769957643
2.9403973509933774,0.11583390967989655
2.9602649006622515,0.07251453310680793
2.9801324503311255,0.03981046393630991
3.0,0.04913108449240931
3.0198675496688745,0.08800279247325861
3.0397350993377485,0.1325075745193851
3.0596026490066226,0.17837899244658934
3.0794701986754967,0.22466276402156357
3.0993377483443707,0.2710171971044655
3.119205298013245,0.31727299948218474
3.1390728476821192,0.36332411962514266
3.1589403973509933,0.40909217741101056
3.1788079470198674,0.4545125635373424
3.198675496688742,0.49952826192082495
3.218543046357616,0.5440868317169407
3.23841059602649,0.5881388243382661
3.2582781456953644,0.6316369078677034
3.2781456953642385,0.6745353639828343
3.2980132450331126,0.7167897919663562
3.3178807947019866,0.7583569331474364
3.3377483443708607,0.7991945680738546
3.3576158940397347,0.8392614590176999
3.3774834437086096,0.8785173214862165
3.3973509933774837,0.9169228146848757
3.4172185430463577,0.9544395445616259
3.437086092715232,0.9910300752883083
3.456953642384106,1.0266579464190058
3.47682119205298,1.0612876938464044
3.4966887417218544,1.09488487325077
3.5165562913907285,1.1274160851171067
3.5364238410596025,1.158849000653909
3.556291390728477,1.189152388124106
3.576158940397351,1.218296139223058
3.596026490066225,1.2462512952262659
3.615894039735099,1.2729900726930519
3.6357615894039736,1.2984858885586594
3.6556291390728477,1.3227133844814924
3.6754966887417218,1.345648450338038
3.695364238410596,1.3672682467773598
3.7152317880794703,1.387551226762375
3.7350993377483444,1.4064771560367477
3.754966887417219,1.4240271324657467
3.774834437086093,1.4401836042068432
3.794701986754967,1.45493038667224
3.814569536423841,1.468252678250536
3.834437086092715,1.480137074759208
3.854304635761589,1.4905715826035617
3.8741721854304636,1.499545630620891
3.8940397350993377,1.5070500805919376
3.9139072847682117,1.5130772364043414
3.9337748344370858,1.5176208518553955
3.9536423841059607,1.5206761370838973
3.9735099337748347,1.5222397636233074
3.993377483443709,1.5223098680705502
4.013245033112583,1.5208860543673426
4.033112582781457,1.5179693946929547
4.052980132450331,1.5135624289698535
4.072847682119205,1.5076691629859622
4.0927152317880795,1.5002950651398121
4.112582781456953,1.4914470618175655
4.132450331125828,1.4811335314136567
4.152317880794702,1.4693642970100347
4.172185430463576,1.4561506177322587
4.19205298013245,1.4415051788047648
4.211920529801325,1.425442080331812
4.231788079470199,1.4079768248358184
4.251655629139073,1.389126303590739
4.271523178807947,1.3689087817950831
4.291390728476821,1.3473438826379351
4.311258278145695,1.3244525703215144
4.33112582781457,1.300257132116963
4.3509933774834435,1.2747811595460774
4.370860927152318,1.2480495288023319
4.390728476821192,1.220088380550946
4.410596026490066,1.1909250992819276
4.43046357615894,1.160588292435096
4.450331125827815,1.1291077695758056
4.470198675496689,1.0965145219804253
4.490066225165563,1.0628407030997098
4.509933774834438,1.0281196105186063
4.529801324503311,0.992385670240427
4.549668874172186,0.9556744244193124
4.569536423841059,0.9180225240897653
4.589403973509934,0.8794677290599117
4.6092715231788075,0.8400489180512533
4.629139072847682,0.7998061135488159
4.649006622516556,0.7587805279511901
4.66887417218543,0.7170146409537186
4.688741721854305,0.6745523234863321
4.708609271523179,0.631439032450629
4.728476821192054,0.5877221157286858
4.748344370860927,0.5434512938300625
4.768211920529802,0.49867943392079245
4.788079470198675,0.4534638267742068
4.80794701986755,0.4078683688455561
4.827814569536423,0.36196746347717773
4.847682119205298,0.31585340648734767
4.867549668874172,0.2696514199575918
4.887417218543046,0.22355323543143515
4.9072847682119205,0.17790179445651275
4.927152317880794,0.13344224178228006
4.947019867549669,0.09223768521437402
4.966887417218543,0.06158345859559176
4.986754966887418,0.060693180641989274
5.006622516556291,0.0904753151380876
5.026490066225166,0.1314738214879632
5.04635761589404,0.17592852265541292
5.066225165562914,0.2216590157058003
5.086092715231788,0.2678875422123462
5.105960264900662,0.3142596729366943
5.125827814569536,0.3605787185397888
5.14569536423841,0.4067168943728924
5.1655629139072845,0.4525803321840654
5.185430463576159,0.49809349665837377
5.205298013245033,0.5431915600711724
5.225165562913908,0.5878163872149855
5.245033112582782,0.6319142955191266
5.264900662251656,0.6754347472170603
5.28476821192053,0.718329558211719
5.304635761589404,0.7605524067655154
5.324503311258278,0.8020585230464327
5.344370860927152,0.84280449144133
5.364238410596027,0.8827481252049842
5.3841059602649,0.9218483886465498
5.403973509933775,0.9600653512012024
5.4238410596026485,0.9973601632505467
5.443708609271523,1.0336950469739263
5.463576158940397,1.0690332976831731
5.483443708609272,1.1033392925029244
5.503311258278146,1.1365785041918635
5.52317880794702,1.168717518529834
5.543046357615895,1.1997240541279852
5.562913907284768,1.2295669838200278
5.582781456953643,1.2582163570055884
5.602649006622516,1.2856434224693003
5.622516556291391,1.3118206513099275
5.642384105960264,1.3367217596955303
5.662251655629139,1.360321731220972
5.682119205298013,1.3825968386899237
5.701986754966887,1.403524665178196
5.7218543046357615,1.4230841242619223
5.741721854304636,1.4412554793150427
5.7615894039735105,1.4580203617969754
5.781456953642384,1.4733617884646364
5.801324503311259,1.4872641774534365
5.821192052980132,1.499713363180825
5.841059602649007,1.5106966100333006
5.860927152317881,1.5202026248038978
5.880794701986755,1.5282215678527216
5.900662251655629,1.5347450629677093
5.920529801324503,1.5397662059072645
5.940397350993377,1.5432795716100902
5.960264900662251,1.5452812200614798
5.980132450331126,1.5457687008087362
6.0,1.544741056121836
6.0198675496688745,1.5421988227989871
6.039735099337749,1.538144032620232
6.059602649006623,1.5325802114559222
6.079470198675497,1.525512377040805
6.099337748344371,1.5169470354287158
6.119205298013245,1.5068921761475018
6.139072847682119,1.4953572660790506
6.158940397350993,1.4823532420951557
6.178807947019867,1.4678925024868918
6.198675496688741,1.451988897233103
6.218543046357616,1.4346577171631607
6.23841059602649,1.4159156820804653
6.258278145695365,1.3957809279271267
6.2781456953642385,1.3742729930871325
6.298013245033113,1.3514128039465203
6.317880794701987,1.3272226598553771
6.337748344370861,1.3017262176700488
6.357615894039735,1.2749484760967364
6.377483443708609,1.246915760112622
6.397350993377484,1.2176557058128612
6.417218543046357,1.1871972461260811
6.437086092715232,1.155570597966826
6.456953642384105,1.12280725156212
6.47682119205298,1.0889399629182321
6.496688741721854,1.054002750708203
6.516556291390729,1.0180308992974627
6.5364238410596025,0.9810609702396326
6.556291390728477,0.9431308254518428
6.5761589403973515,0.904279666549142
6.596026490066225,0.8645480966868695
6.6158940397351,0.8239782140585545
6.635761589403973,0.7826137504674222
6.655629139072848,0.740500275042809
6.675496688741721,0.6976854937777559
6.695364238410596,0.6542196929008843
6.715231788079469,0.6101564032483037
6.735099337748344,0.5655534133906575
6.754966887417219,0.5204743502313852
6.774834437086093,0.4749912160513916
6.794701986754967,0.42918860461974595
6.814569536423841,0.3831710081630285
6.8344370860927155,0.33707613975741646
6.854304635761589,0.2911007581516473
6.874172185430464,0.2455545753772307
6.894039735099337,0.20098319257031522
6.913907284768212,0.15847784086825165
6.933774834437086,0.12052348875570505
6.95364238410596,0.09313358115065822
6.973509933774834,0.08710967950567686
6.993377483443709,0.10620235368343847
7.013245033112583,0.14049195698577344
7.033112582781457,0.18148862935165402
7.052980132450331,0.2254630482988502
7.072847682119205,0.2708508178534924
7.0927152317880795,0.31691547583700264
7.112582781456954,0.3632615941521632
7.132450331125828,0.40964980996396166
7.152317880794702,0.4559192592477834
7.172185430463576,0.5019518218412042
7.19205298013245,0.5476542582081808
7.211920529801324,0.592948668575366
7.231788079470198,0.6377671078544144
7.251655629139073,0.6820484041139425
7.271523178807947,0.7257362065834176
7.291390728476822,0.768777750315496
7.311258278145695,0.8111230545872572
7.33112582781457,0.8527243925243317
7.3509933774834435,0.8935359352230073
7.370860927152318,0.9335135109691991
7.390728476821192,0.9726144420433607
7.410596026490066,1.01079743482436
7.430463576158941,1.048022507109442
7.450331125827814,1.0842509417799995
7.470198675496689,1.1194452593278958
7.490066225165562,1.1535692039985321
7.509933774834438,1.1865877398187932
7.52980132450331,1.2184670538142595
7.549668874172186,1.2491745644417875
7.569536423841059,1.2786789337731512
7.589403973509934,1.3069500823300517
7.6092715231788075,1.3339592057350815
7.629139072847682,1.3596787925368317
7.649006622516557,1.384082642711081
7.66887417218543,1.407145886447538
7.6887417218543055,1.4288450029128608
7.708609271523178,1.4491578387434623
7.728476821192054,1.4680636260691462
7.748344370860927,1.4855429999068106
7.768211920529802,1.5015780147925295
7.788079470198675,1.5161521605444066
7.80794701986755,1.5292503770673633
7.827814569536423,1.5408590681269845
7.847682119205298,1.5509661140318733
7.8675496688741715,1.5595608831755698
7.887417218543046,1.5666342423979365
7.907284768211921,1.5721785661341063
7.927152317880795,1.5761877443266772
7.9470198675496695,1.5786571890829564
7.966887417218543,1.5795838400659745
7.986754966887418,1.5789661686132181
8.006622516556291,1.576804180583618
8.026490066225167,1.5730994179390234
8.046357615894038,1.5678549590725919
8.066225165562914,1.561075417903528
8.086092715231787,1.5527669417646266
8.105960264900663,1.5429372081173625
8.125827814569536,1.5315954201386104
8.14569536423841,1.5187523012334454
8.165562913907285,1.5044200885413739
8.185430463576159,1.4886125255179186
8.205298013245034,1.471344853691222
8.225165562913906,1.4526338037151731
8.245033112582782,1.4324975858666986
8.264900662251655,1.410955880167701
8.28476821192053,1.3880298263528235
8.304635761589404,1.3637420139555365
8.324503311258278,1.338116472849968
8.344370860927151,1.311178664669276
8.364238410596027,1.2829554756286574
8.3841059602649,1.253475211420822
8.403973509933774,1.22276759503528
8.42384105960265,1.1908637685959427
8.443708609271523,1.1577963006368606
8.463576158940398,1.1235992006755269
8.483443708609272,1.0883079435437089
8.503311258278146,1.051959506765457
8.52317880794702,1.0145924254317535
8.543046357615895,0.976246870664259
8.562913907284768,0.9369647601197401
8.582781456953642,0.8967899124258071
8.602649006622515,0.8557682625325751
8.62251655629139,0.8139481626437778
8.642384105960264,0.771380805188495
8.66225165562914,0.7281208227995244
8.682119205298013,0.6842271499576452
8.701986754966887,0.6397642798087269
8.721854304635762,0.5948041322550655
8.741721854304636,0.5494288933638178
8.76158940397351,0.5037354454903643
8.781456953642383,0.45784249224928114
8.801324503311259,0.41190242528921206
8.821192052980132,0.3661218931915148
8.841059602649008,0.3207990856935131
8.86092715231788,0.2763946536067854
8.880794701986755,0.23367301011354796
8.90066225165563,0.1939917867505265
8.920529801324504,0.15986851835606644
8.940397350993377,0.13577207766639432
8.960264900662251,0.12766117386244455
8.980132450331126,0.13843620988915392
9.0,0.1644163932637721
9.019867549668875,0.1996980514317583
9.039735099337747,0.240129435118423
9.059602649006623,0.2834073277304264
9.079470198675496,0.3282853664971212
9.099337748344372,0.3740551022721387
9.119205298013245,0.42028486526826686
9.139072847682119,0.46669206734964197
9.158940397350994,0.5130787111940116
9.178807947019868,0.5592972474287451
9.198675496688743,0.6052316128585294
9.218543046357615,0.6507862254612268
9.23841059602649,0.6958793424575206
9.258278145695364,0.7404389122128882
9.27814569536424,0.7843999057740848
9.298013245033111,0.8277025560573706
9.317880794701987,0.8702911706060789
9.33774834437086,0.9121133165282873
9.357615894039736,0.9531192527101316
9.37748344370861,0.993261529820017
9.397350993377483,1.0324947063310626
9.417218543046358,1.070775146118233
9.437086092715232,1.1080608742680411
9.456953642384107,1.1443114749725085
9.47682119205298,1.179488020189725
9.496688741721854,1.213553021009156
9.516556291390728,1.2464703958979382
9.536423841059603,1.2782054515666443
9.556291390728477,1.308724873297528
9.57615894039735,1.3379967223702662
9.596026490066224,1.3659904387939579
9.6158940397351,1.392676847975358
9.635761589403973,1.4180281702651811
9.655629139072847,1.4420180325580159
9.675496688741722,1.4646214812978933
9.695364238410596,1.4858149963765044
9.715231788079471,1.5055765055146657
9.735099337748345,1.523885398798533
9.754966887417218,1.540722543105173
9.774834437086092,1.556070296202452
9.794701986754967,1.5699125203480664
9.814569536423841,1.5822345952452848
9.834437086092716,1.5930234302391242
9.854304635761588,1.6022674756592767
9.874172185430464,1.609956733233949
9.894039735099337,1.6160827655154175
9.913907284768213,1.620638704271446
9.933774834437086,1.6236192578095672
9.95364238410596,1.6250207172124447
9.973509933774835,1.6248409614735682
9.993377483443709,1.6230794615329542
10.013245033112582,1.6197372832231554
10.033112582781456,1.6148170891469007
10.052980132450331,1.6083231395193107
10.072847682119205,1.600261292020373
10.09271523178808,1.590639000717529
10.112582781456952,1.5794653141345243
10.132450331125828,1.5667508725612367
10.152317880794701,1.5525079047214003
10.172185430463577,1.53675022394118
10.192052980132452,1.5194932239933294
10.211920529801324,1.5007538748298117
10.2317880794702,1.4805507184629827
10.251655629139073,1.4589038653136845
10.271523178807948,1.4358349914171356
10.29139072847682,1.4113673369689554
10.311258278145695,1.3855257068091569
10.331125827814569,1.358336473589559
10.350993377483444,1.3298275845599306
10.370860927152318,1.3000285731539096
10.390728476821192,1.2689705768774704
10.410596026490065,1.2366863634261585
10.43046357615894,1.2032103675206482
10.450331125827816,1.168578741706214
10.470198675496688,1.132829425386109
10.490066225165563,1.0960022377621086
10.509933774834437,1.0581390022977883
10.529801324503312,1.0192837130417771
10.549668874172186,0.9794827570081186
10.56953642384106,0.9387852123600685
10.589403973509933,0.8972432502349194
10.609271523178808,0.854912680027302
10.629139072847682,0.8118536959781142
10.649006622516556,0.7681319105302847
10.66887417218543,0.7238198030053761
