Time (s),Filtered Signal
0.0,-0.007489044349241149
0.033370165745856356,-0.17744685452215042
0.06674033149171271,-0.3173168687857191
0.10011049723756907,-0.39946353880510865
0.13348066298342542,-0.40249665067498364
0.16685082872928178,-0.31568710029738467
0.20022099447513814,-0.14325000941526164
0.2335911602209945,0.09331530598609163
0.26696132596685085,0.3566846105570918
0.30033149171270723,0.5999001580954038
0.33370165745856356,0.7765701130555384
0.3670718232044199,0.8525740908027962
0.4004419889502763,0.8156394280037177
0.43381215469613266,0.6792723379915334
0.467182320441989,0.47908133528915176
0.5005524861878453,0.26212604729538963
0.5339226519337017,0.07264409502142538
0.5672928176795581,-0.06081271122006839
0.6006629834254145,-0.13207758685745957
0.6340331491712707,-0.15551375413076793
0.6674033149171271,-0.15678599089946738
0.7007734806629835,-0.1605949572885796
0.7341436464088398,-0.18086719447835684
0.7675138121546962,-0.21739425683534616
0.8008839779005525,-0.25950421275996816
0.8342541436464089,-0.2938577661116219
0.8676243093922653,-0.3117771008290605
0.9009944751381216,-0.31245040588361694
0.934364640883978,-0.30116407239006043
0.9677348066298344,-0.28460985528584193
1.0011049723756906,-0.2666179651078162
1.0344751381215471,-0.2468152342732211
1.0678453038674034,-0.22247557951350053
1.1012154696132597,-0.19172338680045592
1.1345856353591162,-0.1555344833412354
1.1679558011049724,-0.1169682839051575
1.201325966850829,-0.07804267621870954
1.2346961325966852,-0.03639308114950072
1.2680662983425415,0.015687351842544925
1.301436464088398,0.08833398818891158
1.3348066298342542,0.1879530670145454
1.3681767955801105,0.31053291641795566
1.401546961325967,0.43810499517653057
1.4349171270718233,0.5412502228744092
1.4682872928176796,0.5880995418550599
1.501657458563536,0.557059330024664
1.5350276243093923,0.4479529974553639
1.5683977900552488,0.28586604206976607
1.601767955801105,0.11442720657579361
1.6351381215469614,-0.02008594856741974
1.6685082872928179,-0.08759341359606737
1.7018784530386741,-0.08737976180868999
1.7352486187845306,-0.04871830608589272
1.768618784530387,-0.01767792439410773
1.8019889502762432,-0.03565595343717724
1.8353591160220997,-0.1196440767645618
1.868729281767956,-0.25376376244797516
1.9020994475138122,-0.39620020145013923
1.9354696132596687,-0.49805770715978714
1.968839779005525,-0.5248858936385269
2.0022099447513813,-0.4707161657632169
2.0355801104972375,-0.3586906173851382
2.0689502762430942,-0.22922446438731672
2.1023204419889505,-0.12236662309346913
2.135690607734807,-0.062843513126383
2.169060773480663,-0.053798625209357326
2.2024309392265193,-0.08032998877039225
2.235801104972376,-0.11935109721910277
2.2691712707182323,-0.15018016889722877
2.3025414364640886,-0.16114177340259075
2.335911602209945,-0.15035135819128118
2.369281767955801,-0.12199227144276534
2.402651933701658,-0.08124011905328478
2.436022099447514,-0.03088343717792065
2.4693922651933704,0.028971977265632318
2.5027624309392267,0.0988224582000013
2.536132596685083,0.17732546191394535
2.5695027624309392,0.260375365811439
2.602872928176796,0.34223395302447535
2.636243093922652,0.4176870921694552
2.6696132596685085,0.4834746264501621
2.7029834254143648,0.5378306750130194
2.736353591160221,0.5784547863121823
2.7697237569060777,0.6005800402893664
2.803093922651934,0.5970466839169887
2.8364640883977903,0.5611594507174857
2.8698342541436466,0.49122837109645073
2.903204419889503,0.3942305256374367
2.936574585635359,0.2859825024272015
2.969944751381216,0.1867831610233111
3.003314917127072,0.11391242951293765
3.0366850828729284,0.07433129280849071
3.0700552486187846,0.061268137567057984
3.103425414364641,0.05675511140471235
3.1367955801104976,0.03928130774762226
3.170165745856354,-0.007015991038724295
3.20353591160221,-0.0862845786636824
3.2369060773480665,-0.1912794548733141
3.2702762430939227,-0.3099023202958922
3.3036464088397794,-0.4340392184598019
3.3370165745856357,-0.5649596681141913
3.370386740331492,-0.7110904979745223
3.4037569060773483,-0.8784246229326043
3.4371270718232045,-1.0587758419602618
3.4704972375690613,-1.2235076310445392
3.5038674033149175,-1.3284032044408403
3.537237569060774,-1.3295947843762066
3.57060773480663,-1.2038295177050315
3.6039779005524863,-0.9625888759129848
3.6373480662983426,-0.6513146182865381
3.6707182320441993,-0.3320594177771682
3.7040883977900556,-0.0569731331734628
3.737458563535912,0.1539058020706863
3.770828729281768,0.31815497576572815
3.8041988950276244,0.4759311464554235
3.837569060773481,0.6622821823874396
3.8709392265193374,0.8826173680407909
3.9043093922651937,1.1059083504660812
3.93767955801105,1.2798991259070753
3.9710497237569062,1.3592891419895419
4.0044198895027625,1.3298807905930607
4.037790055248619,1.2142589789953793
4.071160220994475,1.0561705844871216
4.104530386740332,0.8940257690691271
4.1379005524861885,0.7404369182497852
4.171270718232044,0.5804367845536584
4.204640883977901,0.3888772612766991
4.238011049723757,0.1553251804534088
4.271381215469614,-0.09982032219188432
4.30475138121547,-0.3286601131389625
4.338121546961326,-0.47730621565628367
4.371491712707183,-0.5135290095685793
4.404861878453039,-0.44513959222620586
4.438232044198895,-0.3191259700591846
4.471602209944752,-0.20203339287224784
4.504972375690608,-0.15155812625962103
4.538342541436465,-0.19303834110364104
4.5717127071823205,-0.31125165126245724
4.605082872928177,-0.460042030427026
4.638453038674034,-0.5840527403014701
4.67182320441989,-0.6420661081605838
4.7051933701657465,-0.6218581475499247
4.738563535911602,-0.5412291957793398
4.771933701657459,-0.43636082452467945
4.805303867403316,-0.34389321127105954
4.8386740331491715,-0.2850643154062519
4.872044198895028,-0.2584746108031957
4.905414364640884,-0.24368720081589654
4.938784530386741,-0.21302993670031883
4.972154696132597,-0.14572513173432822
5.005524861878453,-0.038054236112496545
5.03889502762431,0.09444339751369596
5.072265193370166,0.22301910299003094
5.105635359116023,0.3168947665360803
5.1390055248618784,0.35474894118260375
5.172375690607735,0.3321027584436096
5.205745856353592,0.2622388635391477
5.239116022099448,0.17090110568492528
5.272486187845304,0.08716446985647233
5.30585635359116,0.03388466979697367
5.339226519337017,0.020913862779214525
5.372596685082874,0.04309456281177649
5.4059668508287295,0.08339521221075709
5.439337016574586,0.11990719934078095
5.472707182320442,0.1341992807292615
5.506077348066299,0.11806805118215213
5.5394475138121555,0.07625207975649473
5.572817679558011,0.024136932516504096
5.606187845303868,-0.018584455669271718
5.639558011049724,-0.0356903075790137
5.672928176795581,-0.02046282250598811
5.706298342541437,0.022391137649792267
5.739668508287293,0.07942640422569847
5.77303867403315,0.13421587253586328
5.806408839779006,0.17342912969845511
5.839779005524862,0.19064400339998439
5.873149171270718,0.18666596653558443
5.906519337016575,0.16693700898038352
5.939889502762432,0.13791992883930165
5.9732596685082875,0.10451724529938859
6.006629834254144,0.06963309311573199
6.04,0.03552738592778099
6.073370165745857,0.005506428190042595
6.1067403314917135,-0.01563890741560623
6.140110497237569,-0.023156972373049898
6.173480662983426,-0.015175557511238107
6.206850828729282,0.004815194316281957
6.240220994475139,0.027586375964994345
6.273591160220995,0.040670859121973116
6.306961325966851,0.03297514028473209
6.340331491712708,-0.0005133066351991332
6.373701657458564,-0.056178442230328515
6.40707182320442,-0.1226952745375514
6.440441988950277,-0.1850859172504458
6.473812154696133,-0.23013508780408537
6.50718232044199,-0.2508694704452712
6.5405524861878455,-0.248388022251445
6.573922651933702,-0.23059480966157903
6.607292817679559,-0.20864407659334572
6.640662983425415,-0.19261822383787958
6.674033149171271,-0.18797147405765102
6.707403314917127,-0.1937833275303307
6.740773480662984,-0.20319583409761693
6.774143646408841,-0.20578449671008284
6.8075138121546965,-0.19112114362960841
6.840883977900553,-0.15246393462522898
6.874254143646409,-0.08942153210176453
6.907624309392266,-0.008666668905533128
6.9409944751381225,0.07766769241026336
6.974364640883978,0.1555071983188756
7.007734806629835,0.2131359179618484
7.041104972375691,0.24475434310633526
7.074475138121548,0.25195338785954324
7.107845303867403,0.24251441428014778
7.14121546961326,0.22699136531259098
7.174585635359117,0.21442158566365285
7.207955801104973,0.20885384443372768
7.241325966850829,0.20804017711914913
7.274696132596685,0.2047818620495691
7.308066298342542,0.19040543584294722
7.341436464088399,0.1590344586423645
7.3748066298342545,0.11096401457678978
7.408176795580111,0.053651036799279815
7.441546961325967,-0.00039708610025489564
7.474917127071824,-0.03836781114702184
7.5082872928176805,-0.05281426414225648
7.541657458563536,-0.04579445133553081
7.575027624309393,-0.02927057242855979
7.608397790055249,-0.020931671235798435
7.641767955801106,-0.03664296812667565
7.675138121546962,-0.08253305153423945
7.708508287292818,-0.15037466472119146
7.741878453038675,-0.21890696345251082
7.775248618784531,-0.2613316713938917
7.808618784530387,-0.2563501590848903
7.841988950276244,-0.19811136140509975
7.8753591160221,-0.10040695378528768
7.908729281767957,0.0073367673266186385
7.9420994475138125,0.09108324406140772
7.975469613259669,0.12565770135494952
8.008839779005525,0.10472711050283104
8.042209944751383,0.04283491186880575
8.075580110497238,-0.03126690658346098
8.108950276243094,-0.0867206519440632
8.14232044198895,-0.10253979726359548
8.175690607734808,-0.07440103244211695
8.209060773480664,-0.014015747174148293
8.24243093922652,0.057625055389614516
8.275801104972377,0.11937009204315424
8.309171270718233,0.15722289398433398
8.342541436464089,0.16720708001377635
8.375911602209946,0.15358243165681446
8.409281767955802,0.12432005158315848
8.442651933701658,0.08660312170339138
8.476022099447514,0.04451850306179813
8.509392265193371,-0.00045738149163700094
8.542762430939227,-0.04718929093285445
8.576132596685083,-0.09266865466760177
8.60950276243094,-0.13139081298111505
8.642872928176796,-0.1567364781138317
8.676243093922652,-0.16354629056732944
8.709613259668508,-0.15044319221187388
8.742983425414366,-0.12067719619548661
8.776353591160222,-0.08109504100450093
8.809723756906077,-0.03974466480893063
8.843093922651935,-0.0031521539663999475
8.87646408839779,0.02569600765151652
8.909834254143647,0.0480166756556895
8.943204419889504,0.0683807208637704
8.97657458563536,0.09259905873669429
9.009944751381216,0.1248939811464513
9.043314917127072,0.16515714541392948
9.07668508287293,0.20727965250453667
9.110055248618785,0.23949602105186765
9.143425414364641,0.24721237509055038
9.176795580110499,0.21787012196069935
9.210165745856354,0.14634056455438063
9.24353591160221,0.03870363370699781
9.276906077348068,-0.08749294224570435
9.310276243093924,-0.20720746676530355
9.34364640883978,-0.29513539902084746
9.377016574585635,-0.33378000500839067
9.410386740331493,-0.31940629932041364
9.443756906077349,-0.26353579316522413
9.477127071823205,-0.18917017707039985
9.510497237569062,-0.12281631924664943
9.543867403314918,-0.08496992884852811
9.577237569060774,-0.0824481518358331
9.610607734806631,-0.10552272722433492
9.643977900552487,-0.1312311321436626
9.677348066298343,-0.1320024620354572
9.710718232044199,-0.0866415511763127
9.744088397790057,0.010381125704851928
9.777458563535912,0.1449899007400993
9.810828729281768,0.2867687512389962
9.844198895027626,0.39868553762799835
9.877569060773482,0.4500214232384345
9.910939226519337,0.4277373436727356
9.944309392265193,0.34168404086502613
9.97767955801105,0.22113956564740175
10.011049723756907,0.1036006050548402
10.044419889502763,0.020224786389935454
10.07779005524862,-0.015873184967999172
10.111160220994476,-0.013287063630531254
10.144530386740332,0.0036089792484205073
10.17790055248619,0.007201213583298931
10.211270718232045,-0.020287549252478002
10.244640883977901,-0.07928076453251673
10.278011049723757,-0.15395779952017258
10.311381215469615,-0.220677446238411
10.34475138121547,-0.25901157802940555
10.378121546961326,-0.2599542517767873
10.411491712707184,-0.22792229033736314
10.44486187845304,-0.17663367595832913
10.478232044198895,-0.12188105644089754
10.511602209944753,-0.07517662161261768
10.544972375690609,-0.041026193810084016
10.578342541436465,-0.018166886196203366
10.61171270718232,-0.002953978923122851
10.645082872928178,0.007659422336488127
10.678453038674034,0.015233692773699153
10.71182320441989,0.02097935346772857
10.745193370165747,0.027406210095668137
10.778563535911603,0.038717145834345996
10.811933701657459,0.05919670797625114
10.845303867403315,0.09040001913342031
10.878674033149172,0.1289842527548539
10.912044198895028,0.16684144058195782
10.945414364640884,0.1938765670432362
10.978784530386742,0.2021435593783478
11.012154696132598,0.1891286143493155
11.045524861878453,0.15834886369897883
11.078895027624311,0.11691504852353203
11.112265193370167,0.07143212184460732
11.145635359116023,0.02458856975739817
11.179005524861878,-0.025546811152564748
11.212375690607736,-0.08298208653445575
11.245745856353592,-0.14932860683745136
11.279116022099448,-0.21995557562293216
11.312486187845305,-0.283257413157211
11.345856353591161,-0.32405243591235733
11.379226519337017,-0.32991714590616855
11.412596685082875,-0.2974181419386032
11.44596685082873,-0.23481403109044077
11.479337016574586,-0.15929922506281735
11.512707182320442,-0.08966009625857568
11.5460773480663,-0.03784798620408172
11.579447513812156,-0.0038614025719741563
11.612817679558011,0.02323240004330405
11.646187845303869,0.0585718232880531
11.679558011049725,0.11262247110602709
11.71292817679558,0.18483114131601988
11.746298342541436,0.26300841317472684
11.779668508287294,0.328467454094892
11.81303867403315,0.36398584989252336
11.846408839779006,0.36052700282539774
11.879779005524863,0.3197749907978474
11.91314917127072,0.25201032649654803
11.946519337016575,0.17117218187616498
11.979889502762433,0.08992341257611747
12.013259668508288,0.016886454300065322
12.046629834254144,-0.04341137508323611
12.08,-0.08890474978699615
12.113370165745858,-0.11834465452066825
12.146740331491714,-0.13085169957761716
12.18011049723757,-0.12674245017964986
12.213480662983427,-0.10867434155696852
12.246850828729283,-0.08188953991465787
12.280220994475139,-0.05298590924128703
12.313591160220996,-0.02776285170649326
12.346961325966852,-0.009508932759312555
12.380331491712708,0.0010066205629610677
12.413701657458564,0.003652999072875579
12.447071823204421,-0.0035921882700385185
12.480441988950277,-0.02576121040717601
12.513812154696133,-0.06902204219983167
12.54718232044199,-0.13595613119320502
12.580552486187846,-0.22021977625925318
12.613922651933702,-0.30398305854964797
12.64729281767956,-0.36082708006789754
12.680662983425416,-0.3642407262855793
12.714033149171271,-0.29869183670145844
12.747403314917127,-0.16823905201693318
12.780773480662985,0.0018693751295039045
12.81414364640884,0.17219938587605704
12.847513812154697,0.30232399471109894
12.880883977900554,0.3648295337266434
12.91425414364641,0.3543436260206735
12.947624309392266,0.28803796326803177
12.980994475138122,0.19775040104086664
13.01436464088398,0.11725087196775033
13.047734806629835,0.06985679403220657
13.081104972375691,0.06109482193584712
13.114475138121549,0.07881912473199851
13.147845303867404,0.10013328024508285
13.18121546961326,0.10182042564095363
13.214585635359118,0.06978417932761943
13.247955801104974,0.003732432641824812
13.28132596685083,-0.0843042038538502
13.314696132596685,-0.1761256857340627
13.348066298342543,-0.25468987841976254
13.381436464088399,-0.30904550734897035
13.414806629834255,-0.3351421350419624
13.448176795580112,-0.3333906836949267
13.481546961325968,-0.30559962052964634
13.514917127071824,-0.25375100265983797
13.548287292817681,-0.18119983181038277
13.581657458563537,-0.0946325410017454
13.615027624309393,-0.004156457093588576
13.648397790055249,0.0799433801329585
13.681767955801106,0.15256202457995063
13.715138121546962,0.2176438565723295
13.748508287292818,0.2867864177574983
13.781878453038676,0.37150832319489296
13.815248618784532,0.47240203023869337
13.848618784530387,0.5715587745805231
13.881988950276245,0.6342360695363529
13.9153591160221,0.6213038719510768
13.948729281767957,0.5077585856987045
13.982099447513813,0.2982369589496089
14.01546961325967,0.030903529520757988
14.048839779005526,-0.2335201509298148
14.082209944751382,-0.4333305033695767
14.11558011049724,-0.5283648189433121
14.148950276243095,-0.5134285078432597
14.182320441988951,-0.41721025127624894
14.215690607734807,-0.28819751502904556
14.249060773480664,-0.17469411584085678
14.28243093922652,-0.10777041950181472
14.315801104972376,-0.09355759552306511
14.349171270718234,-0.11644333002281064
14.38254143646409,-0.14997842925633464
14.415911602209945,-0.16970248961492496
14.449281767955803,-0.1623721311918791
14.482651933701659,-0.1285994992606044
14.516022099447515,-0.0792292884033568
14.54939226519337,-0.028361276927713203
14.582762430939228,0.01322755150595993
14.616132596685084,0.041488127449676476
14.64950276243094,0.05861588516860487
14.682872928176797,0.06993064884045708
14.716243093922653,0.08029652235710907
14.749613259668509,0.0918816985707264
14.782983425414367,0.10386562884552855
14.816353591160222,0.11353463888360538
14.849723756906078,0.11771325934043571
14.883093922651934,0.11375914320563288
14.916464088397792,0.10000542859986203
14.949834254143648,0.07601326702825209
14.983204419889503,0.042980468777286555
15.016574585635361,0.004235757228294965
15.049944751381217,-0.0346734267559312
15.083314917127073,-0.06683236902354532
15.116685082872928,-0.08584333051741545
15.150055248618786,-0.0881679704809224
15.183425414364642,-0.07488107354674786
15.216795580110498,-0.0518343321989585
15.250165745856355,-0.027824392409850296
15.283535911602211,-0.011248477782881976
15.316906077348067,-0.006513408298410218
15.350276243093925,-0.011768245618112457
15.38364640883978,-0.01915246099226718
15.417016574585636,-0.017755271830821425
15.450386740331492,0.0017564358870855478
15.48375690607735,0.042780180670367755
15.517127071823205,0.10067033173333949
15.550497237569061,0.16393400954409576
15.583867403314919,0.2182970178775029
15.617237569060775,0.25189332589347063
15.65060773480663,0.2593369874535079
15.683977900552488,0.2429741743513703
15.717348066298344,0.2108951829208963
15.7507182320442,0.17270598564859146
15.784088397790056,0.13500012918522983
15.817458563535913,0.09856481833356964
15.85082872928177,0.05858835876573403
15.884198895027625,0.007822448227674538
15.917569060773483,-0.0586927831769295
15.950939226519338,-0.13954973284968333
15.984309392265194,-0.22561431986317243
16.01767955801105,-0.30230377537157277
16.051049723756908,-0.3546739385139618
16.084419889502765,-0.3730142587934084
16.11779005524862,-0.3562950306921028
16.151160220994477,-0.3118674504263709
16.18453038674033,-0.251744571051878
16.21790055248619,-0.18750890061747477
16.251270718232046,-0.12643882010286336
16.2846408839779,-0.0705662320472605
16.318011049723758,-0.018653044079706076
16.351381215469615,0.030468642536275067
16.38475138121547,0.07527738117479904
16.418121546961327,0.11110336218296021
16.451491712707185,0.13196316409954711
16.48486187845304,0.1336369736014156
16.518232044198896,0.11642286450984303
16.551602209944754,0.08624911684877865
16.584972375690608,0.053572116167612
16.618342541436466,0.030375580638210883
16.651712707182323,0.02631895646817037
16.685082872928177,0.04543993150587145
16.718453038674035,0.08465570228884266
16.751823204419892,0.13463668441171536
16.785193370165747,0.18268823373334472
16.818563535911604,0.21650213759116355
16.851933701657458,0.22741402252443138
16.885303867403316,0.21219592658671696
16.918674033149173,0.17312978863891879
16.952044198895027,0.11671965612147313
16.985414364640885,0.05166424631103397
17.018784530386743,-0.013314670229171145
17.052154696132597,-0.07130497889785888
17.085524861878454,-0.11830349673010389
17.118895027624312,-0.15331609308591934
17.152265193370166,-0.17747035704098213
