Frequency (Hz),Amplitude
0.0,2.2450207717798105
0.019823788546255508,2.2464026173588647
0.039647577092511016,2.250537501555591
0.059471365638766524,2.2573936839688535
0.07929515418502203,2.2669189771027862
0.09911894273127755,2.2790417789934323
0.11894273127753305,2.293672448077624
0.13876651982378857,2.3107049570634928
0.15859030837004406,2.3300187541306925
0.17841409691629956,2.351480756777944
0.1982378854625551,2.374947405674505
0.2180616740088106,2.4002667121144845
0.2378854625550661,2.427280241983481
0.25770925110132165,2.4558249902898246
0.27753303964757714,2.485735112117992
0.29735682819383263,2.5168434873460743
0.31718061674008813,2.548983106897552
0.3370044052863437,2.581988277202461
0.3568281938325991,2.6156956466974632
0.37665198237885467,2.64994506357446
0.3964757709251102,2.6845802777084495
0.41629955947136565,2.71944950196766
0.4361233480176212,2.75440584918454
0.4559471365638767,2.7893076612074554
0.4757709251101322,2.824018745907254
0.49559471365638774,2.8584085369962127
0.5154185022026433,2.8923521902105467
0.5352422907488987,2.9257306279534334
0.5550660792951543,2.958430543000495
0.5748898678414097,2.9903443704112074
0.5947136563876653,3.0213702354164043
0.6145374449339208,3.0514118837977096
0.6343612334801763,3.080378600151492
0.6541850220264318,3.1081851184453644
0.6740088105726874,3.134751528423564
0.6938325991189428,3.1600031806930904
0.7136563876651982,3.1838705927123674
0.7334801762114539,3.206289357398314
0.7533039647577093,3.227200055651293
0.7731277533039648,3.2465481737612363
0.7929515418502204,3.2642840263875263
0.8127753303964759,3.2803626855932344
0.8325991189427313,3.2947439162492183
0.8524229074889869,3.3073921179985337
0.8722466960352424,3.3182762738796074
0.8920704845814978,3.3273699056415436
0.9118942731277534,3.3346510357415937
0.931718061674009,3.340102155988832
0.9515418502202644,3.343710202786571
0.9713656387665199,3.34546653892445
0.9911894273127755,3.345366941878543
1.0110132158590308,3.3434115985898685
1.0308370044052866,3.339605106708758
1.0506607929515421,3.333956482309968
1.0704845814977975,3.326479174101807
1.090308370044053,3.3171910841683494
1.1101321585903086,3.306114595295919
1.1299559471365639,3.293276604941268
1.1497797356828194,3.27870856589619
1.1696035242290752,3.262446533690183
1.1894273127753305,3.2445312207443835
1.209251101321586,3.2250080572445214
1.2290748898678416,3.203927258631261
1.248898678414097,3.1813438995102725
1.2687224669603525,3.157317993653504
1.288546255506608,3.1319145795910894
1.3083700440528636,3.1052038110721836
1.3281938325991192,3.077261051392234
1.3480176211453747,3.0481669702343486
1.36784140969163,3.018007641240933
1.3876651982378856,2.986874638006859
1.4074889867841411,2.954865125553959
1.4273127753303965,2.922081943596767
1.4471365638766522,2.888633677029531
1.4669603524229078,2.8546347080479113
1.4867841409691631,2.8202052431622464
1.5066079295154187,2.7854713070684176
1.5264317180616742,2.75056469393535
1.5462555066079295,2.7156228651767473
1.5660792951541853,2.680788781255856
1.5859030837004409,2.646210653604299
1.6057268722466962,2.612041601435078
1.6255506607929517,2.5784391972443763
1.6453744493392073,2.5455648843156586
1.6651982378854626,2.5135832497883994
1.6850220264317182,2.4826611380875523
1.7048458149779737,2.45296659199558
1.7246696035242293,2.424667612641743
1.7444933920704848,2.3979307353850063
1.7643171806167404,2.3729194260821163
1.7841409691629957,2.3497923115078327
1.8039647577092512,2.328701268469642
1.8237885462555068,2.3097894079178314
1.8436123348017623,2.293189002307979
1.863436123348018,2.2790194155907777
1.8832599118942732,2.267385104272992
1.9030837004405288,2.258373763759915
1.9229074889867843,2.2520546955275864
1.9427312775330399,2.2484774667852467
1.9625550660792954,2.24767092488415
1.982378854625551,2.2496426141458676
2.002202643171806,2.2543786240178476
2.0220264317180616,2.2618438760762722
2.041850220264317,2.271982835320946
2.061674008810573,2.2847206104736686
2.0814977973568287,2.299964390438835
2.1013215859030843,2.317605151106793
2.1211453744493394,2.3375195590600977
2.140969162995595,2.359571996605727
2.1607929515418505,2.383616635428359
2.180616740088106,2.4094994931173446
2.2004405286343616,2.437060416674333
2.220264317180617,2.466134948604359
2.2400881057268722,2.4965560431673532
2.2599118942731278,2.5281556118605457
2.2797356828193833,2.5607658875180666
2.299559471365639,2.5942206051228918
2.319383259911895,2.6283560043411995
2.3392070484581504,2.6630116639143573
2.3590308370044055,2.698031181520489
2.378854625550661,2.7332627147695074
2.3986784140969166,2.7685593998843085
2.418502202643172,2.803779664611607
2.4383259911894277,2.8387874512441904
2.4581497797356833,2.8734523645367567
2.4779735682819384,2.9076497579341267
2.497797356828194,2.9412607700425064
2.5176211453744495,2.9741723217623703
2.537444933920705,3.006277083038438
2.5572687224669606,3.0374734168139703
2.577092511013216,3.0676653065329713
2.5969162995594717,3.096762272424932
2.6167400881057272,3.1246792808383694
2.6365638766519828,3.1513366500545708
2.6563876651982383,3.176659955304951
2.676211453744494,3.2005799351207984
2.6960352422907494,3.2230324006524134
2.715859030837005,3.243958149191914
2.73568281938326,3.263302882808149
2.7555066079295156,3.2810171327426874
2.775330396475771,3.2970561900120545
2.7951541850220267,3.3113800425039126
2.8149779735682823,3.323953318736632
2.834801762114538,3.334745238365273
2.854625550660793,3.3437295694566838
2.874449339207049,3.350884592516968
2.8942731277533045,3.356193071232915
2.91409691629956,3.3596422298795545
2.9339207048458156,3.361223737347999
2.953744493392071,3.3609336977566797
2.9735682819383262,3.3587726476239848
2.993392070484582,3.354745559598498
3.0132158590308373,3.3488618527624445
3.033039647577093,3.3411354095437553
3.0528634361233484,3.331584599288917
3.072687224669604,3.320232308562265
3.092511013215859,3.3071059782438317
3.1123348017621146,3.2922376474961697
3.1321585903083706,3.2756640046569196
3.151982378854626,3.2574264450856005
3.1718061674008817,3.237571135945806
3.1916299559471373,3.2161490878333434
3.2114537444933924,3.193216233061293
3.231277533039648,3.1688335102778753
3.2511013215859035,3.143066954914977
3.270925110132159,3.1159877947355152
3.2907488986784146,3.0876725494566952
3.31057268722467,3.058203133061698
3.3303964757709252,3.0276669569636465
3.350220264317181,2.996157031637816
3.3700440528634363,2.9637720636794396
3.389867841409692,2.9306165444603933
3.4096916299559474,2.8968008256382567
3.4295154185022034,2.8624411757068713
3.4493392070484585,2.8276598105661526
3.469162995594714,2.792584889736629
3.4889867841409696,2.7573504683690384
3.508810572687225,2.7220963936374662
3.5286343612334807,2.686968132513787
3.5484581497797363,2.652116516388263
3.5682819383259914,2.61769738664772
3.588105726872247,2.5838711243074215
3.6079295154185025,2.550802046318251
3.627753303964758,2.5186576514758356
3.6475770925110136,2.4876077002137147
3.667400881057269,2.457823115251384
3.6872246696035247,2.429474694356307
3.7070484581497802,2.402731632575024
3.726872246696036,2.377759859291678
3.7466960352422913,2.3547202053113203
3.7665198237885464,2.3337664265428644
3.7863436123348024,2.3150431232021593
3.8061674008810575,2.298683605911755
3.8259911894273135,2.284807771524611
3.8458149779735686,2.2735200606540675
3.8656387665198246,2.264907574434841
3.8854625550660797,2.259038428811283
3.905286343612335,2.255960419865981
3.925110132158591,2.2557000631357127
3.9449339207048464,2.2582620539644456
3.964757709251102,2.263629175854457
3.9845814977973575,2.2717626612147948
4.004405286343612,2.2826029859447847
4.024229074889869,2.296071058057869
4.044052863436123,2.312069742927435
4.06387665198238,2.3304856550941806
4.083700440528634,2.351191139622254
4.103524229074891,2.374046364744145
4.123348017621146,2.3989014513940883
4.143171806167401,2.4255985731554794
4.162995594713657,2.4539739708592476
4.182819383259912,2.483859838250881
4.2026431718061685,2.5150860476039507
4.222466960352423,2.547481695939481
4.242290748898679,2.580876462940068
4.262114537444934,2.615101780329948
4.28193832599119,2.6499918192794536
4.301762114537445,2.685384307327143
4.321585903083701,2.7211211895678993
4.3414096916299565,2.757049150679991
4.361233480176212,2.7930200150371833
4.381057268722468,2.828891041950363
4.400881057268723,2.8645251322573015
4.420704845814979,2.8997909612452726
4.440528634361234,2.9345630514229164
4.46035242290749,2.9687217970900233
4.4801762114537445,3.002153451084686
4.500000000000001,3.034750082585471
4.5198237885462555,3.0664095134538836
4.539647577092512,3.0970352393453062
4.559471365638767,3.126536340703342
4.579295154185023,3.1548273877851494
4.599118942731278,3.1818283430355834
4.618942731277533,3.2074644634279137
4.63876651982379,3.2316662048035596
4.658590308370044,3.2543691297612956
4.678414096916301,3.2755138202538183
4.6982378854625555,3.2950457957333747
4.718061674008811,3.3129154374382175
4.737885462555067,3.3290779192161257
4.757709251101322,3.3434931451320353
4.777533039647578,3.3561256939956396
4.797356828193833,3.366944770865027
4.817180616740089,3.3759241655278593
4.837004405286344,3.3830422179281174
4.856828193832599,3.3882817904887266
4.876651982378855,3.3916302472763533
4.896475770925111,3.393079439960021
4.9162995594713665,3.3926257005284866
4.936123348017622,3.390269840749339
4.955947136563877,3.3860171583744387
4.975770925110133,3.3798774501191002
4.995594713656388,3.37186503146477
5.015418502202644,3.3619987633550394
5.035242290748899,3.3503020858705903
5.055066079295155,3.3368030589780444
5.07488986784141,3.321534410447855
5.094713656387666,3.3045335910251463
5.114537444933921,3.285842836910048
5.134361233480177,3.265509239558398
5.154185022026432,3.243584822742442
5.174008810572688,3.2201266267110586
5.193832599118943,3.195196799151164
5.213656387665199,3.1688626924698227
5.2334801762114544,3.1411969666795185
5.25330396475771,3.112277696868258
5.2731277533039655,3.0821884838572964
5.292951541850221,3.0510185661811926
5.312775330396477,3.0188629309521566
5.332599118942731,2.985822420478632
5.352422907488988,2.952003830682501
5.372246696035242,2.9175199963877043
5.392070484581499,2.882489857424316
5.4118942731277535,2.847038498204788
5.43171806167401,2.8112971519859578
5.451541850220265,2.7754031594522073
5.47136563876652,2.7394998695771298
5.491189427312777,2.703736469006279
5.511013215859031,2.6682677245428557
5.530837004405288,2.633253621842759
5.550660792951542,2.5988588823070713
5.570484581497798,2.565252339616679
5.5903083700440535,2.5326061576474883
5.610132158590309,2.5010948729291775
5.6299559471365646,2.47089424767685
5.64977973568282,2.4421799240237285
5.669603524229076,2.4151258766433172
5.689427312775331,2.38990266957858
5.709251101321586,2.366675533713144
5.729074889867842,2.345602293592623
5.748898678414098,2.3268311856013115
5.768722466960353,2.3104986228682174
5.788546255506609,2.29672697448732
5.808370044052864,2.2856224362716193
5.82819383259912,2.2772730758849096
5.848017621145375,2.2717471355664367
5.867841409691631,2.2690916699683346
5.887665198237886,2.269331584679474
5.907488986784142,2.2724691233823
5.927312775330397,2.278483829603177
5.9471365638766525,2.2873329846096278
5.966960352422908,2.2989524984686605
5.986784140969164,2.31325820891831
6.00660792951542,2.330147524506474
6.026431718061675,2.3495013358152366
6.04625550660793,2.3711861121662046
6.066079295154186,2.395056100887667
6.085903083700441,2.4209555512655725
6.105726872246697,2.44872089449328
6.125550660792952,2.4781828228606724
6.145374449339208,2.509168224658315
6.1651982378854635,2.5415019445636045
6.185022026431718,2.5750083516447266
6.204845814977975,2.609512707896952
6.224669603524229,2.6448423390547027
6.244493392070486,2.680827616194227
6.264317180616741,2.7173027614451573
6.284140969162996,2.7541064941805327
6.303964757709252,2.7910825356389295
6.323788546255507,2.8280799903557017
6.3436123348017635,2.864953622339375
6.363436123348018,2.901564042887157
6.3832599118942746,2.937777825511585
6.403083700440529,2.973467561826488
6.422907488986785,3.0085118705459433
6.44273127753304,3.0427953700834385
6.462555066079296,3.07620862366202
6.482378854625551,3.1086480644006977
6.502202643171807,3.1400159065479047
6.5220264317180625,3.170220047896001
6.541850220264318,3.19917396742908
6.561674008810574,3.226796621420722
6.581497797356829,3.253012340497092
6.601321585903085,3.2777507295984307
6.62114537444934,3.3009465722958997
6.640969162995596,3.3225397405344954
6.6607929515418505,3.3424751105655646
6.680616740088107,3.3607024855901764
6.700440528634362,3.377176525447589
6.720264317180618,3.3918566835425907
6.740088105726873,3.404707151101531
6.759911894273129,3.415696808774874
6.779735682819384,3.424799185556819
6.799559471365639,3.431992424964906
6.819383259911895,3.4372592584119657
6.83920704845815,3.4405869857038076
6.859030837004407,3.4419674626073293
6.8788546255506615,3.441397095452178
6.898678414096917,3.438876842752206
6.918502202643173,3.434412223859524
6.938325991189428,3.428013334691544
6.958149779735684,3.4196948705984105
6.977973568281939,3.4094761564631546
6.997797356828195,3.397381184147124
7.01762114537445,3.3834386574071926
7.037444933920705,3.3676820444160174
7.0572687224669615,3.350149638009367
7.077092511013216,3.3308846237617775
7.096916299559473,3.3099351559484504
7.116740088105728,3.287354441384668
7.136563876651983,3.263200831033706
7.156387665198239,3.237537919138311
7.176211453744494,3.21043464944579
7.19603524229075,3.1819654278562752
7.215859030837005,3.1522102405138033
7.235682819383261,3.121254775968948
7.255506607929516,3.0891905495542753
7.275330396475772,3.056115027514216
7.295154185022027,3.0221317477025753
7.314977973568283,2.9873504327870615
7.334801762114538,2.951887090864895
7.354625550660794,2.9158640971863945
7.374449339207049,2.879410249295592
7.394273127753305,2.8426607863340716
7.4140969162995605,2.8057573615319624
7.433920704845816,2.768847955065688
7.453744493392072,2.732086712559974
7.473568281938327,2.6956336926487072
7.493392070484583,2.6596545053251974
7.513215859030838,2.6243198214951264
7.533039647577093,2.589804733434416
7.552863436123348,2.5562879460388364
7.572687224669605,2.52395078016466
7.59251101321586,2.4929759723486162
7.612334801762115,2.4635462600977767
7.6321585903083715,2.4358427490220014
7.651982378854627,2.4100430674782043
7.671806167400882,2.3863193260320155
7.691629955947137,2.364835912556894
7.711453744493394,2.3457471684814806
7.731277533039649,2.329195006495427
7.751101321585904,2.315306543541189
7.7709251101321595,2.3041918335516485
7.790748898678416,2.2959417905165806
7.81057268722467,2.29062639267647
7.830396475770926,2.2882932520502592
7.850220264317182,2.288966619931686
7.870044052863436,2.292646879132503
7.889867841409693,2.2993105491597183
7.909691629955948,2.3089108034260537
7.929515418502204,2.3213784706146074
7.9493392070484585,2.336623468041842
7.969162995594715,2.354536595471222
7.9889867841409705,2.374991604801711
8.008810572687224,2.397847455005803
8.02863436123348,2.4229506623801718
8.048458149779737,2.450137662646375
8.068281938325994,2.479237112278671
8.088105726872246,2.5100720700149024
8.107929515418503,2.5424620142430574
8.12775330396476,2.576224666490398
8.147577092511014,2.6111776045427644
8.167400881057269,2.64713966012115
8.187224669603525,2.683932105206351
8.207048458149782,2.721379637976265
8.226872246696036,2.7593111840501487
8.246696035242293,2.797560531591006
8.266519823788547,2.835966820137304
8.286343612334802,2.874374903163564
8.306167400881058,2.9126356036312964
8.325991189427315,2.95060588047071
8.345814977973568,2.9881489222628517
8.365638766519824,3.0251341825530056
8.38546255506608,3.0614373693545973
8.405286343612337,3.0969403995923974
8.42511013215859,3.1315313275455274
8.444933920704846,3.1651042548200827
8.464757709251103,3.197559228023781
8.484581497797357,3.22880212913437
8.504405286343614,3.2587445625418314
8.524229074889869,3.287303741890752
8.544052863436125,3.3144023791378276
8.56387665198238,3.3399685776542096
8.583700440528636,3.3639357307267828
8.60352422907489,3.386242426430979
8.623348017621145,3.4068323595466556
8.643171806167402,3.4256542509535652
8.662995594713658,3.4426617747649995
8.682819383259913,3.457813493325387
8.702643171806168,3.47107280010308
8.722466960352424,3.4824078704457233
8.74229074889868,3.4917916201261914
8.762114537444935,3.4992016715882444
8.78193832599119,3.5046203277970407
8.801762114537446,3.508034553608855
8.821585903083701,3.50943596459224
8.841409691629957,3.508820823258161
8.861233480176212,3.5061900426868586
8.881057268722468,3.5015491975718387
8.900881057268723,3.4949085427361175
8.92070484581498,3.4862830392091797
8.940528634361234,3.475692387984909
8.960352422907489,3.463161071607761
8.980176211453745,3.44871840375542
9.000000000000002,3.4323985869980524
9.019823788546258,3.4142407789138782
9.039647577092511,3.3942891667254975
9.059471365638768,3.3725930505848565
9.079295154185024,3.349206935574001
9.099118942731279,3.324190632395158
9.118942731277533,3.2976093665912587
9.13876651982379,3.2695338959559512
9.158590308370046,3.2400406355514577
9.1784140969163,3.2092117894383976
9.198237885462555,3.1771354878217624
9.218061674008812,3.14390592781298
9.237885462555067,3.109623515383249
9.257709251101323,3.074395005316884
9.27753303964758,3.038333635047158
9.297356828193834,3.001559247150977
9.317180616740089,2.9641983939766754
9.337004405286345,2.926384416371237
9.356828193832602,2.88825748675774
9.376651982378855,2.8499646049045295
9.396475770925111,2.811659532659621
9.416299559471367,2.7735026517602726
9.436123348017622,2.7356607266709134
9.455947136563877,2.698306552400181
9.475770925110133,2.6616184656057618
9.49559471365639,2.6257796962776823
9.515418502202644,2.590977537225333
9.5352422907489,2.5574023098590204
9.555066079295155,2.52524610776404
9.57488986784141,2.494701304714801
9.594713656387666,2.465958821402979
9.614537444933923,2.4392061554471964
9.634361233480178,2.414625192166291
9.654185022026432,2.3923898287613268
9.674008810572689,2.3726634611883743
9.693832599118945,2.355596399906084
9.713656387665198,2.3413232962477273
9.733480176211454,2.329960673527392
9.75330396475771,2.321604664233669
9.773127753303967,2.3163290551337266
9.792951541850222,2.3141837347310457
9.812775330396477,2.3151936220772225
9.832599118942733,2.3193581332507347
9.852422907488988,2.3266512137173527
9.872246696035244,2.3370219339210854
9.892070484581499,2.3503956148868363
9.911894273127754,2.3666754233652303
9.93171806167401,2.3857443546204684
9.951541850220266,2.4074675069966047
9.971365638766521,2.4316945465034667
9.991189427312776,2.458262261442508
10.011013215859032,2.4869971153358073
10.030837004405289,2.517717719405828
10.050660792951543,2.5502371616644255
10.070484581497798,2.5843651464897888
10.090308370044054,2.619909914874091
10.11013215859031,2.6566799301980817
10.129955947136565,2.694485326741032
10.14977973568282,2.733139127864114
10.169603524229077,2.772458247917093
10.189427312775331,2.812264296633239
10.209251101321588,2.8523842074419803
10.229074889867842,2.8926507121457767
10.248898678414099,2.93290268417731
10.268722466960353,2.972985371542039
10.28854625550661,3.012750538871261
10.308370044052865,3.0520565360133145
10.32819383259912,3.0907683084665765
10.348017621145376,3.1287573628453016
10.367841409691632,3.16590169856223
10.387665198237887,3.202085715065875
10.407488986784141,3.237200102318668
10.427312775330398,3.2711417207522993
10.447136563876654,3.30381347568916
10.466960352422909,3.3351241901596755
10.486784140969164,3.3649884791604423
10.50660792951542,3.393326627667193
10.526431718061675,3.4200644741209065
10.546255506607931,3.4451333006267397
10.566079295154186,3.4684697307250385
10.585903083700442,3.4900156352971448
10.605726872246697,3.509718046941215
10.625550660792953,3.527529082983148
10.645374449339208,3.543405877164449
10.665198237885463,3.5573105199638326
10.685022026431719,3.569210007455098
10.704845814977975,3.5790761985741533
10.724669603524232,3.5868857806584957
