Time (s),Filtered Signal
0.0,-0.022140480758213548
0.03337008452774715,-0.1219207738696647
0.0667401690554943,-0.20743757292990428
0.10011025358324147,-0.27259655788561016
0.1334803381109886,-0.321310509804753
0.16685042263873576,-0.3632253945185845
0.20022050716648293,-0.40585240600917677
0.23359059169423008,-0.4485669430251229
0.2669606762219772,-0.4825748560462435
0.30033076074972437,-0.49677407416441205
0.3337008452774715,-0.4852864012581287
0.36707092980521866,-0.4511209212515568
0.40044101433296586,-0.402939415284442
0.433811098860713,-0.3467151411891996
0.46718118338846015,-0.2781227061875751
0.5005512679162073,-0.18200726525321645
0.5339213524439544,-0.041535293360426814
0.5672914369717016,0.1465131001426891
0.6006615214994487,0.3588710458748547
0.6340316060271959,0.5445306004805183
0.667401690554943,0.639481212339048
0.7007717750826902,0.5934850832802865
0.7341418596104373,0.3973328347922164
0.7675119441381845,0.09652472901561983
0.8008820286659317,-0.21798567867876895
0.8342521131936789,-0.4410567025623467
0.867622197721426,-0.49459158662082536
0.9009922822491732,-0.36049871932113214
0.9343623667769203,-0.08957558366300791
0.9677324513046675,0.21890739354546204
1.0011025358324146,0.45831076788470027
1.0344726203601617,0.5577097768235441
1.0678427048879089,0.5072668829232383
1.101212789415656,0.35500454647541335
1.1345828739434032,0.1781737110854943
1.1679529584711503,0.04455542028179129
1.2013230429988975,-0.01683549791636398
1.2346931275266446,-0.021891566711260625
1.2680632120543918,-0.013061163516069913
1.301433296582139,-0.027887707247753284
1.334803381109886,-0.07243266953035514
1.3681734656376332,-0.11477584563039107
1.4015435501653803,-0.1029890355195139
1.4349136346931275,0.001375804037695379
1.4682837192208746,0.19232471518262184
1.5016538037486218,0.4089735814979742
1.535023888276369,0.5540223895767363
1.568393972804116,0.5349412655245228
1.6017640573318634,0.3093141127646233
1.6351341418596106,-0.08778642986154292
1.6685042263873577,-0.5491016972643801
1.7018743109151049,-0.9328653408982336
1.735244395442852,-1.1173026679153266
1.7686144799705992,-1.0483946546898708
1.8019845644983463,-0.760367679953024
1.8353546490260935,-0.36066155684848056
1.8687247335538406,0.013393284762391182
1.9020948180815878,0.24742801062999403
1.935464902609335,0.29079235155122835
1.968834987137082,0.16987289457961574
2.002205071664829,-0.02932531630294126
2.0355751561925763,-0.20015215046523638
2.0689452407203235,-0.2587439064786257
2.1023153252480706,-0.17431245858491992
2.1356854097758178,0.024649936625945924
2.169055494303565,0.26852401201658416
2.202425578831312,0.4793466932162764
2.235795663359059,0.6032825134734381
2.2691657478868064,0.6292229927608958
2.3025358324145535,0.5868438538058174
2.3359059169423007,0.526623690173087
2.369276001470048,0.49192248450669585
2.402646085997795,0.49622809848768107
2.436016170525542,0.5159720088239594
2.4693862550532892,0.5020418055424364
2.5027563395810364,0.40442027417392995
2.5361264241087835,0.19826096016034023
2.5694965086365307,-0.10081726924153438
2.602866593164278,-0.4390622279076972
2.636236677692025,-0.7429083835291033
2.669606762219772,-0.9444555729309498
2.7029768467475193,-1.002912086956935
2.7363469312752664,-0.9140296081849087
2.7697170158030135,-0.7061469594881181
2.8030871003307607,-0.4276236508464113
2.836457184858508,-0.13296012933859416
2.869827269386255,0.12711291459886148
2.903197353914002,0.3109266365877157
2.9365674384417493,0.38966126118083916
2.9699375229694964,0.3528688816898325
3.0033076074972436,0.21537923984136464
3.0366776920249907,0.020756805142670125
3.070047776552738,-0.16498747066043748
3.103417861080485,-0.27203423936619653
3.136787945608232,-0.2529705760888287
3.1701580301359793,-0.10527107423328713
3.203528114663727,0.12222099184905064
3.236898199191474,0.3448021917240283
3.270268283719221,0.4747623628581443
3.3036383682469683,0.4577589814321793
3.3370084527747155,0.29634403855862224
3.3703785373024626,0.04982181345670066
3.4037486218302098,-0.18964283847822136
3.437118706357957,-0.3341632523946566
3.470488790885704,-0.3344926333143224
3.503858875413451,-0.19735914380822273
3.5372289599411983,0.020540353091354394
3.5705990444689455,0.23787415878585774
3.6039691289966926,0.381287571587831
3.63733921352444,0.4110462022156633
3.670709298052187,0.32987439325361745
3.704079382579934,0.17373977394819953
3.7374494671076812,-0.008337510237641203
3.7708195516354284,-0.17441651262679697
3.8041896361631755,-0.30066989859077775
3.8375597206909227,-0.38053536845977864
3.87092980521867,-0.41589618234141684
3.904299889746417,-0.40769974403086984
3.937669974274164,-0.3522305573624779
3.9710400588019112,-0.2446596378622307
4.004410143329658,-0.08658120384441377
4.0377802278574055,0.10804547782240073
4.071150312385153,0.3127613093768349
4.1045203969129,0.49475378659980024
4.137890481440647,0.6241987846952174
4.171260565968394,0.6823640218508721
4.204630650496141,0.6652695836427324
4.238000735023888,0.5823201856548348
4.2713708195516356,0.45163959316861857
4.304740904079383,0.2947298991657423
4.33811098860713,0.13244929586659077
4.371481073134877,-0.01716157414173585
4.404851157662624,-0.14002864180091001
4.438221242190371,-0.22747836283823314
4.471591326718118,-0.2785872321998796
4.504961411245866,-0.30257917541915746
4.538331495773613,-0.3190591219535133
4.57170158030136,-0.3538540370937883
4.605071664829107,-0.43009651109869385
4.638441749356854,-0.5572013149615932
4.671811833884601,-0.7227230625228778
4.7051819184123485,-0.8919486464932967
4.738552002940096,-1.0170235360843236
4.771922087467843,-1.052803764919896
4.80529217199559,-0.9729179634032609
4.838662256523337,-0.7788676934183203
4.872032341051084,-0.49804791977587165
4.905402425578831,-0.17202725303682848
4.9387725101065785,0.15854776551614935
4.972142594634326,0.46447666174654834
5.005512679162073,0.7291538845608662
5.03888276368982,0.9417335975351288
5.072252848217567,1.0890089040287516
5.105622932745314,1.1535090584615246
5.138993017273061,1.1209292811750047
5.1723631018008085,0.9931940582134876
5.205733186328556,0.7985574189353
5.239103270856303,0.5903063112687313
5.27247335538405,0.43104482397208116
5.305843439911797,0.36748155070630634
5.339213524439544,0.4069592701913662
5.372583608967291,0.5080779082613145
5.4059536934950385,0.5924672556395363
5.439323778022786,0.5750716252228733
5.472693862550533,0.4007654436457641
5.50606394707828,0.0707326502100523
5.539434031606027,-0.3543484734477657
5.572804116133774,-0.7767990415711218
5.606174200661521,-1.100210461373599
5.6395442851892685,-1.2657489552903796
5.672914369717016,-1.2698709156378134
5.706284454244763,-1.1565313293559594
5.73965453877251,-0.9899941280572176
5.773024623300257,-0.823514123895096
5.806394707828004,-0.6796165367013862
5.839764792355751,-0.5497958264378766
5.873134876883499,-0.410283437696562
5.906504961411246,-0.2426154769040381
5.939875045938993,-0.047064030059072406
5.97324513046674,0.1570251611146512
6.006615214994487,0.34164783928708586
6.039985299522234,0.48342494581096673
6.073355384049981,0.571847667244554
6.106725468577729,0.6092023728729425
6.140095553105476,0.6046374835317387
6.173465637633223,0.5679566150829763
6.20683572216097,0.5075802655677781
6.240205806688717,0.43296311863425596
6.273575891216464,0.3577200765204381
6.3069459757442115,0.2987480911405898
6.340316060271959,0.2695831427040615
6.373686144799706,0.27119152238570987
6.407056229327454,0.2867742344939345
6.440426313855201,0.286082237198899
6.473796398382948,0.23924068332908308
6.507166482910695,0.1334803111836164
6.540536567438442,-0.01698284563226944
6.5739066519661895,-0.17477527399050186
6.607276736493937,-0.2961038271424175
6.640646821021684,-0.35181107300144987
6.674016905549431,-0.3412170701685266
6.707386990077178,-0.2911986983133534
6.740757074604925,-0.2414753367851361
6.774127159132672,-0.22476263072765523
6.8074972436604195,-0.2526034378835693
6.840867328188167,-0.3133855969282431
6.874237412715914,-0.38158911645332266
6.907607497243661,-0.4315269395215736
6.940977581771408,-0.4478225900291279
6.974347666299155,-0.4282802341433279
7.007717750826902,-0.37982987879345875
7.0410878353546495,-0.3117584388634235
7.074457919882397,-0.23084269769317828
7.107828004410144,-0.14066575413591087
7.141198088937891,-0.04411719271379344
7.174568173465638,0.05406888444764634
7.207938257993385,0.14762593317119266
7.241308342521132,0.23236476838319767
7.27467842704888,0.3105429249570486
7.308048511576627,0.39204974088923994
7.341418596104374,0.48987973258263867
7.374788680632121,0.6110123041603024
7.408158765159868,0.7474662318159808
7.441528849687615,0.8734386576690593
7.4748989342153624,0.9519239387889424
7.50826901874311,0.9491427367456508
7.541639103270857,0.8503273280366046
7.575009187798604,0.6687962393611558
7.608379272326351,0.44299095873785127
7.641749356854098,0.2219557169219465
7.675119441381845,0.04558176546472558
7.7084895259095925,-0.07127475852543923
7.74185961043734,-0.14342201737511878
7.775229694965087,-0.2066891551945524
7.808599779492834,-0.3002604864343806
7.841969864020581,-0.44830514746071765
7.875339948548328,-0.649188527391636
7.908710033076075,-0.8766446278898586
7.9420801176038225,-1.0915768669668187
7.97545020213157,-1.2583567428154272
8.008820286659317,-1.3576751823224624
8.042190371187063,-1.3898769749741497
8.075560455714811,-1.3675031148619816
8.108930540242557,-1.3014332512269349
8.142300624770305,-1.188810204584035
8.175670709298052,-1.0105647263856616
8.2090407938258,-0.7414890396458894
8.242410878353546,-0.3686612791429272
8.275780962881294,0.091529381113477
8.30915104740904,0.5881044152008587
8.342521131936788,1.0471227850443225
8.375891216464534,1.396738177272828
8.409261300992283,1.5945661693225133
8.442631385520029,1.6438556756757798
8.476001470047777,1.589624495308537
8.509371554575523,1.4957069870356714
8.542741639103271,1.4136031976201178
8.57611172363102,1.3586350221655088
8.609481808158765,1.3053756620815171
8.642851892686513,1.2043055444987505
8.67622197721426,1.0105868577247927
8.709592061742008,0.7098120975867181
8.742962146269754,0.32774545088938595
8.776332230797502,-0.08004491548040193
8.809702315325248,-0.4522593997994628
8.843072399852996,-0.7467317486050691
8.876442484380743,-0.9537324150842924
8.90981256890849,-1.0921337909054878
8.943182653436237,-1.191933983628494
8.976552737963985,-1.2732871122427445
9.009922822491731,-1.3332840694460761
9.04329290701948,-1.347090809474628
9.076662991547225,-1.2823259193953165
9.110033076074973,-1.118777501453207
9.14340316060272,-0.8631119257090628
9.176773245130468,-0.5511631930946252
9.210143329658214,-0.2369013281718941
9.243513414185962,0.02635704628738428
9.276883498713708,0.20382246401380572
9.310253583241456,0.2888952786883853
9.343623667769203,0.301774023111937
9.37699375229695,0.278989079947087
9.410363836824697,0.25884697313788146
9.443733921352445,0.26829649553984736
9.477104005880191,0.3153749586246189
9.51047409040794,0.38911464508913063
9.543844174935685,0.4662769892538423
9.577214259463434,0.5220092899953991
9.61058434399118,0.5400680163402416
9.643954428518928,0.5183360044525162
9.677324513046674,0.4673551027498932
9.710694597574422,0.40295490867649564
9.744064682102168,0.3372065982038177
9.777434766629916,0.2729804570251798
9.810804851157663,0.20537455642623084
9.84417493568541,0.12907318336017365
9.877545020213157,0.04672918101864998
9.910915104740905,-0.02766745814814558
9.944285189268651,-0.07377147167641097
9.9776552737964,-0.07642446450436183
10.011025358324146,-0.037479158107911324
10.044395442851894,0.019390962012065322
10.07776552737964,0.05494762095607255
10.111135611907388,0.030001268036092446
10.144505696435134,-0.07639933823709542
10.177875780962882,-0.2546519024093555
10.211245865490628,-0.46412283634566526
10.244615950018376,-0.6452425506426025
10.277986034546123,-0.7395338733555775
10.31135611907387,-0.7097759676974472
10.344726203601617,-0.5527001997056802
10.378096288129365,-0.29980312789769376
10.411466372657111,-0.006558218893905117
10.44483645718486,0.2654253580815403
10.478206541712606,0.46654837661139986
10.511576626240354,0.5714983318562753
10.5449467107681,0.5823406271418469
10.578316795295848,0.5228167213275027
10.611686879823594,0.4271780081495647
10.645056964351342,0.32803279989886697
10.678427048879088,0.24703594541484766
10.711797133406836,0.19057006748994174
10.745167217934583,0.15075696796287558
10.77853730246233,0.11071765693204014
10.811907386990077,0.052067995608839304
10.845277471517825,-0.03780816744684351
10.878647556045571,-0.16100108063112575
10.91201764057332,-0.3082193653042537
10.945387725101066,-0.46172725599232955
10.978757809628814,-0.6004351298387879
11.01212789415656,-0.7047199312583172
11.045497978684308,-0.7590763635707778
11.078868063212054,-0.7523823298331084
11.112238147739802,-0.6773936957838151
11.145608232267548,-0.5317020449692528
11.178978316795297,-0.32106762411005224
11.212348401323043,-0.0634438337717968
11.24571848585079,0.20998586472146735
11.279088570378537,0.45994854161413007
11.312458654906285,0.6502168477597375
11.345828739434031,0.760090837022194
11.37919882396178,0.7911807896728348
11.412568908489526,0.7635106635061986
11.445938993017274,0.702042061878909
11.47930907754502,0.6212059978771753
11.512679162072768,0.5173104413234706
11.546049246600514,0.37450213524243514
11.579419331128262,0.18142239139518923
11.612789415656009,-0.051754615733312866
11.646159500183757,-0.2874464744621389
11.679529584711503,-0.4713023583019618
11.71289966923925,-0.5547807048075571
11.746269753766997,-0.5176444285921096
11.779639838294745,-0.378082040883944
11.813009922822491,-0.1851926029102503
11.84638000735024,0.0015379434558761005
11.879750091877986,0.13448546908388162
11.913120176405734,0.19099245950087895
11.94649026093348,0.17315519822519534
11.979860345461228,0.09836623073858353
12.013230429988974,-0.010925860657262311
12.046600514516722,-0.13171970855686765
12.079970599044469,-0.23899836822513515
12.113340683572217,-0.3038243285719768
12.146710768099963,-0.2974236182663132
12.180080852627711,-0.20299229218447298
12.213450937155457,-0.02991522239363132
12.246821021683205,0.17925145146010396
12.280191106210951,0.3568374577196936
12.3135611907387,0.43334348758741015
12.346931275266446,0.36695722289009525
12.380301359794194,0.16508842159748785
12.41367144432194,-0.11398294032500858
12.447041528849688,-0.3821116307159387
12.480411613377434,-0.5564282186565062
12.513781697905182,-0.5927347587610075
12.547151782432929,-0.5018041923051404
12.580521866960677,-0.3413541158717772
12.613891951488423,-0.18791329756027467
12.647262036016171,-0.10183863559470402
12.680632120543917,-0.10122715905829859
12.714002205071665,-0.15573855359833597
12.747372289599411,-0.20211231829902934
12.78074237412716,-0.17381717410031872
12.814112458654908,-0.031705430212978926
12.847482543182654,0.21733173257513824
12.880852627710402,0.5213374144858917
12.914222712238148,0.8031679400102408
12.947592796765896,0.9905168816786732
12.980962881293642,1.0429388509533148
13.01433296582139,0.9641319552221677
13.047703050349137,0.7946127599233519
13.081073134876885,0.5891762338797628
13.114443219404631,0.3906343445819707
13.147813303932379,0.21269434872677756
13.181183388460125,0.03984855310614534
13.214553472987873,-0.15657447365742405
13.24792355751562,-0.39508342534013857
13.281293642043368,-0.665707284305551
13.314663726571114,-0.926181108735608
13.348033811098862,-1.1147403810503398
13.381403895626608,-1.1735372404229356
13.414773980154356,-1.0719629006289715
13.448144064682102,-0.8198346525804551
13.48151414920985,-0.46558319410353044
13.514884233737597,-0.0812864490975078
13.548254318265345,0.25855857190415166
13.581624402793091,0.49616051745503686
13.614994487320839,0.6012889069963409
13.648364571848585,0.5721710306827816
13.681734656376333,0.4292850878243484
13.71510474090408,0.20733194087634688
13.748474825431828,-0.05021378124607654
13.781844909959574,-0.2932062871144473
13.815214994487322,-0.4668960231828214
13.848585079015068,-0.5188645601917629
13.881955163542816,-0.4131409998234201
13.915325248070562,-0.14803008495720138
13.94869533259831,0.23127014289779554
13.982065417126057,0.6351911150612147
14.015435501653805,0.951992163702651
14.048805586181551,1.0843313098493004
14.082175670709299,0.9858974515813769
14.115545755237045,0.6812716541435699
14.148915839764793,0.25857239432541085
14.18228592429254,-0.16300769909431384
14.215656008820288,-0.4766039596276514
14.249026093348034,-0.6229523446498503
14.282396177875782,-0.603323680470357
14.315766262403528,-0.4674978655926256
14.349136346931276,-0.2858451451019101
14.382506431459023,-0.12028192902265779
14.41587651598677,-0.006472737057817592
14.449246600514517,0.04827919293632679
14.482616685042265,0.05537402137410804
14.515986769570011,0.03184515066072027
14.54935685409776,-0.008633510889928864
14.582726938625505,-0.057610589089970264
14.616097023153253,-0.10838363442822835
14.649467107681,-0.15165166232833727
14.682837192208748,-0.1743934617130279
14.716207276736494,-0.16348382939526826
14.749577361264242,-0.11241027771667918
14.782947445791988,-0.027343715013728717
14.816317530319736,0.07132096832040939
14.849687614847483,0.15397529678529748
14.88305769937523,0.19231403478080136
14.916427783902977,0.17137990325755267
14.949797868430725,0.0977544226438456
14.983167952958471,-0.00047927247285331904
15.01653803748622,-0.08310249303296695
15.049908122013965,-0.1133068818097812
15.083278206541713,-0.07301419222995484
15.11664829106946,0.02895529617862526
15.150018375597208,0.15997712319649993
15.183388460124954,0.2769779034226628
15.216758544652702,0.3440226265175292
15.250128629180448,0.3458249026073007
15.283498713708196,0.2907987540241674
15.316868798235943,0.20263745848421638
15.35023888276369,0.10542719904310947
15.383608967291437,0.010694739146200585
15.416979051819185,-0.08633961666697759
15.450349136346931,-0.19911731199475685
15.48371922087468,-0.3349282401841907
15.517089305402425,-0.4815904383666719
15.550459389930174,-0.6043419806425021
15.58382947445792,-0.6569020259396876
15.617199558985668,-0.6030039456725765
15.650569643513414,-0.4379532648898567
15.683939728041162,-0.19795686581716698
15.717309812568908,0.049974529795428636
15.750679897096656,0.23477086114570075
15.784049981624403,0.3123426753818285
15.81742006615215,0.2851726113816566
15.850790150679897,0.20000315894658768
15.884160235207645,0.12448107253239282
15.917530319735391,0.11459834295259351
15.95090040426314,0.1892395665567054
15.984270488790886,0.3238396561077172
16.017640573318634,0.4648536721929816
16.05101065784638,0.556325421850839
16.084380742374126,0.5647540645585155
16.117750826901876,0.4907706990192177
16.151120911429622,0.3638208128692579
16.18449099595737,0.22457787449860098
16.217861080485115,0.10490196917959747
16.251231165012864,0.014913893082488949
16.28460124954061,-0.0578319235574829
16.317971334068357,-0.13822123375208203
16.351341418596103,-0.24836010112886983
16.384711503123853,-0.39460455545627826
16.4180815876516,-0.5622836815345248
16.451451672179346,-0.7195841235340502
16.484821756707092,-0.8280561233858403
16.51819184123484,-0.8549673497436543
16.551561925762588,-0.7829883440232026
16.584932010290334,-0.6147940823895105
16.61830209481808,-0.37259845111798684
16.65167217934583,-0.09402185018937206
16.685042263873576,0.1743887081562863
16.718412348401323,0.38551904468301484
16.75178243292907,0.5018546417625377
16.78515251745682,0.5064622343605639
16.818522601984565,0.4117785465847602
16.85189268651231,0.26151724362526235
16.885262771040058,0.12157819886389638
16.918632855567807,0.0596920905141136
16.952002940095554,0.11952910913205803
16.9853730246233,0.29989211658662235
17.018743109151046,0.5497992655879731
17.052113193678796,0.784343019579803
17.085483278206542,0.9164796670760208
17.11885336273429,0.8914230254322759
17.15222344726204,0.7080387499930955
17.185593531789785,0.41733407821128066
17.21896361631753,0.09912992362628191
17.252333700845277,-0.17150554774112106
17.285703785373027,-0.35213892595584767
17.319073869900773,-0.4432387085861776
