Frequency (Hz),Amplitude
0.0,0.11262447773620732
0.019823788546255508,0.2193075636025015
0.039647577092511016,0.39267071913052304
0.059471365638766524,0.5749329822180822
0.07929515418502203,0.7592568145859176
0.09911894273127755,0.9439206235316427
0.11894273127753305,1.1282061601344295
0.13876651982378857,1.311696959149461
0.15859030837004406,1.4940930214848045
0.17841409691629956,1.67514753168896
0.1982378854625551,1.854641279145312
0.2180616740088106,2.032371020576162
0.2378854625550661,2.208143712310782
0.25770925110132165,2.381773470159924
0.27753303964757714,2.5530798990244707
0.29735682819383263,2.721887154718277
0.31718061674008813,2.8880234177559934
0.3370044052863437,3.051320608913112
0.3568281938325991,3.211614251685112
0.37665198237885467,3.368743426536794
0.3964757709251102,3.522550783758497
0.41629955947136565,3.672882594300732
0.4361233480176212,3.819588825391526
0.4559471365638767,3.9625232322727335
0.4757709251101322,4.101543460228068
0.49559471365638774,4.236511152895245
0.5154185022026433,4.3672920640456185
0.5352422907488987,4.493756170811347
0.5550660792951543,4.615777786882252
0.5748898678414097,4.733235674569835
0.5947136563876653,4.846013154900167
0.6145374449339208,4.953998215086465
0.6343612334801763,5.0570836128690395
0.6541850220264318,5.155166977311885
0.6740088105726874,5.248150905720418
0.6938325991189428,5.335943056402653
0.7136563876651982,5.418456237040437
0.7334801762114539,5.495608488472445
0.7533039647577093,5.5673231637183624
0.7731277533039648,5.633529002096562
0.7929515418502204,5.694160198306239
0.8127753303964759,5.749156466361314
0.8325991189427313,5.798463098276728
0.8524229074889869,5.842031017420072
0.8722466960352424,5.879816826452289
0.8920704845814978,5.911782849790958
0.9118942731277534,5.937897170538715
0.931718061674009,5.958133661827959
0.9515418502202644,5.972472012541044
0.9713656387665199,5.980897747372546
0.9911894273127755,5.983402241208469
1.0110132158590308,5.979982727803374
1.0308370044052866,5.970642302744863
1.0506607929515421,5.955389920700728
1.0704845814977975,5.934240386952277
1.090308370044053,5.907214343223343
1.1101321585903086,5.874338247822701
1.1299559471365639,5.8356443501239195
1.1497797356828194,5.791170659414837
1.1696035242290752,5.7409609081561035
1.1894273127753305,5.685064509696523
1.209251101321586,5.623536510500958
1.2290748898678416,5.5564375369561425
1.248898678414097,5.483833736828833
1.2687224669603525,5.405796715461869
1.288546255506608,5.32240346680539
1.3083700440528636,5.233736299394192
1.3281938325991192,5.139882757397634
1.3480176211453747,5.040935536887544
1.36784140969163,4.9369923974913625
1.3876651982378856,4.828156069625822
1.4074889867841411,4.714534157540481
1.4273127753303965,4.596239038444355
1.4471365638766522,4.473387758045747
1.4669603524229078,4.3461019229101225
1.4867841409691631,4.214507590141061
1.5066079295154187,4.078735155025372
1.5264317180616742,3.9389192374714903
1.5462555066079295,3.79519856833384
1.5660792951541853,3.647715877091165
1.5859030837004409,3.4966177828907727
1.6057268722466962,3.3420546917725136
1.6255506607929517,3.1841807040904193
1.6453744493392073,3.0231535379959054
1.6651982378854626,2.8591344777391248
1.6850220264317182,2.692288360189607
1.7048458149779737,2.52278362063886
1.7246696035242293,2.3507924319746993
1.7444933920704848,2.1764909942347015
1.7643171806167404,2.0000600734656406
1.7841409691629957,1.8216859690009697
1.8039647577092512,1.6415622498736302
1.8237885462555068,1.4598929475042508
1.8436123348017623,1.2768986916005465
1.863436123348018,1.09282929889118
1.8832599118942732,0.9079920635016292
1.9030837004405288,0.7228239316324634
1.9229074889867843,0.5381126574068327
1.9427312775330399,0.35589844510037705
1.9625550660792954,0.18556594497054463
1.982378854625551,0.11516775673525997
2.002202643171806,0.25150465616665524
2.0220264317180616,0.4292205579961155
2.041850220264317,0.6129701369912373
2.061674008810573,0.7981374618278699
2.0814977973568287,0.9834071078379935
2.1013215859030843,1.1681800452463984
2.1211453744493394,1.352085481564861
2.140969162995595,1.5348440976787643
2.1607929515418505,1.7162195496212298
2.180616740088106,1.8959983509043248
2.2004405286343616,2.0739805513254166
2.220264317180617,2.249975059586609
2.2400881057268722,2.4237971600865666
2.2599118942731278,2.5952671463526724
2.2797356828193833,2.7642095578889894
2.299559471365639,2.9304527595349423
2.319383259911895,3.0938287232724746
2.3392070484581504,3.254172933722236
2.3590308370044055,3.4113243712298202
2.378854625550661,3.565125544594019
2.3986784140969166,3.715422555955627
2.418502202643172,3.862065186599319
2.4383259911894277,4.004906996243291
2.4581497797356833,4.143805430796076
2.4779735682819384,4.2786219351084505
2.497797356828194,4.409222068267327
2.5176211453744495,4.535475619662144
2.537444933920705,4.657256724520963
2.5572687224669606,4.774443977938449
2.577092511013216,4.886920546647062
2.5969162995594717,4.994574277947157
2.6167400881057272,5.097297805331929
2.6365638766519828,5.194988650431565
2.6563876651982383,5.287549320967881
2.676211453744494,5.3748874044615444
2.6960352422907494,5.4569156574737345
2.715859030837005,5.533552090194983
2.73568281938326,5.604720046219758
2.7555066079295156,5.67034827736513
2.775330396475771,5.730371013410064
2.7951541850220267,5.784728026645656
2.8149779735682823,5.833364691140214
2.834801762114538,5.876232036633874
2.854625550660793,5.913286796987808
2.874449339207049,5.944491453122499
2.8942731277533045,5.969814270388204
2.91409691629956,5.989229330318591
2.9339207048458156,6.002716556726998
2.953744493392071,6.010261736111442
2.9735682819383262,6.01185653234246
2.993392070484582,6.007498495614509
3.0132158590308373,5.997191065648874
3.033039647577093,5.980943569142992
3.0528634361233484,5.9587712114676465
3.072687224669604,5.930695062621038
3.092511013215859,5.8967420374548976
3.1123348017621146,5.8569448701956
3.1321585903083706,5.81134208328976
3.151982378854626,5.759977950611649
3.1718061674008817,5.702902455077115
3.1916299559471373,5.640171240716718
3.2114537444933924,5.5718455592691685
3.231277533039648,5.4979922113653865
3.2511013215859035,5.418683482382815
3.270925110132159,5.333997073061005
3.2907488986784146,5.244016024981195
3.31057268722467,5.148828641026687
3.3303964757709252,5.0485284009572196
3.350220264317181,4.943213872249764
3.3700440528634363,4.83298861638204
3.389867841409692,4.717961090764303
3.4096916299559474,4.598244546562446
3.4295154185022034,4.473956922703536
3.4493392070484585,4.345220736417901
3.469162995594714,4.212162970757227
3.4889867841409696,4.074914959642089
3.508810572687225,3.9336122711520187
3.5286343612334807,3.7883945899937093
3.5484581497797363,3.6394056004014788
3.5682819383259914,3.486792871186487
3.588105726872247,3.3307077453349705
3.6079295154185025,3.171305237586669
3.627753303964758,3.008743945011388
3.6475770925110136,2.8431859781003195
3.667400881057269,2.6747969239222673
3.6872246696035247,2.503745859589596
3.7070484581497802,2.330205445740741
3.726872246696036,2.1543521500718033
3.7466960352422913,1.9763666884691309
3.7665198237885464,1.7964348438348259
3.7863436123348024,1.614748970749376
3.8061674008810575,1.4315108163352086
3.8259911894273135,1.246937045571619
3.8458149779735686,1.0612708214816098
3.8656387665198246,0.8748085312005287
3.8854625550660797,0.6879705007645702
3.905286343612335,0.5015299383708937
3.925110132158591,0.31764026062597694
3.9449339207048464,0.14842563179866305
3.964757709251102,0.1236550276322117
3.9845814977973575,0.28415665454233396
4.004405286343612,0.4670934235203076
4.024229074889869,0.6535152554819312
4.044052863436123,0.8406411481914768
4.06387665198238,1.027568494686498
4.083700440528634,1.2138366136055523
4.103524229074891,1.3991327413833141
4.123348017621146,1.583205535167522
4.143171806167401,1.7658334011065322
4.162995594713657,1.9468110704266084
4.182819383259912,2.125943294543059
4.2026431718061685,2.3030416617408696
4.222466960352423,2.477922911263517
4.242290748898679,2.650408018711134
4.262114537444934,2.820321702276089
4.28193832599119,2.9874921696447507
4.301762114537445,3.151751007909864
4.321585903083701,3.312933161115459
4.3414096916299565,3.470876962773402
4.361233480176212,3.6254242034110242
4.381057268722468,3.776420220592664
4.400881057268723,3.923714003281973
4.420704845814979,4.0671583051382925
4.440528634361234,4.2066097630646695
4.46035242290749,4.341929018440285
4.4801762114537445,4.472980839206926
4.500000000000001,4.599634241475818
4.5198237885462555,4.721762609661817
4.539647577092512,4.839243814389556
4.559471365638767,4.951960327585345
4.579295154185023,5.059799334290053
4.599118942731278,5.162652840817831
4.618942731277533,5.260417778951621
4.63876651982379,5.35299610591754
4.658590308370044,5.44029489991842
4.678414096916301,5.522226451037828
4.6982378854625555,5.59870834735034
4.718061674008811,5.669663556093475
4.737885462555067,5.735020499774108
4.757709251101322,5.794713127095376
4.777533039647578,5.8486809786034675
4.797356828193833,5.89686924696381
4.817180616740089,5.9392288317862985
4.837004405286344,5.975716388928512
4.856828193832599,6.006294374213565
4.876651982378855,6.0309310815079735
4.896475770925111,6.04960067511182
4.9162995594713665,6.062283216421125
4.936123348017622,6.06896468482914
4.955947136563877,6.069636992840491
4.975770925110133,6.064297995378575
4.995594713656388,6.052951493273289
5.015418502202644,6.035607230923037
5.035242290748899,6.012280888131396
5.055066079295155,5.9829940661253955
5.07488986784141,5.947774267768952
5.094713656387666,5.906654871991822
5.114537444933921,5.859675102461005
5.134361233480177,5.806879990528241
5.154185022026432,5.748320332494744
5.174008810572688,5.6840526412407115
5.193832599118943,5.6141390922753605
5.213656387665199,5.538647464270618
5.2334801762114544,5.457651074150005
5.25330396475771,5.371228706813305
5.2731277533039655,5.279464539587135
5.292951541850221,5.182448061502758
5.312775330396477,5.080273987514527
5.332599118942731,4.973042167787113
5.352422907488988,4.860857492196409
5.372246696035242,4.7438297902102615
5.392070484581499,4.622073726340656
5.4118942731277535,4.4957086913922275
5.43171806167401,4.364858689774787
5.451541850220265,4.229652223203979
5.47136563876652,4.09022217119125
5.491189427312777,3.946705668829429
5.511013215859031,3.7992439825283615
5.530837004405288,3.6479823845660597
5.550660792951542,3.4930700276277302
5.570484581497798,3.3346598209600864
5.5903083700440535,3.1729083104564286
5.610132158590309,3.00797556605133
5.6299559471365646,2.840025081485958
5.64977973568282,2.6692236942362366
5.669603524229076,2.4957415379572683
5.689427312775331,2.3197520476650895
5.709251101321586,2.1414320519463517
5.729074889867842,1.9609620127140288
5.748898678414098,1.778526524322808
5.768722466960353,1.594315289993421
5.788546255506609,1.4085250283505404
5.808370044052864,1.221363326731292
5.82819383259912,1.0330569564546501
5.848017621145375,0.8438717043827205
5.867841409691631,0.6541671751504838
5.887665198237886,0.4645864738164279
5.907488986784142,0.2770211131820265
5.927312775330397,0.1060667992054646
5.9471365638766525,0.14033231785455538
5.966960352422908,0.3195330821353223
5.986784140969164,0.5081474444445474
6.00660792951542,0.6981959197044839
6.026431718061675,0.8882847221264327
6.04625550660793,1.0778687010170458
6.066079295154186,1.2666172242109097
6.085903083700441,1.45427494105144
6.105726872246697,1.6406190238686316
6.125550660792952,1.8254430823806627
6.145374449339208,2.008550240810942
6.1651982378854635,2.189749874137637
6.185022026431718,2.3688559777949303
6.204845814977975,2.5456863319482803
6.224669603524229,2.7200620794853347
6.244493392070486,2.8918075315159353
6.264317180616741,3.060750103598911
6.284140969162996,3.2267203297279714
6.303964757709252,3.3895519237723035
6.323788546255507,3.549081870348183
6.3436123348017635,3.705150534023104
6.363436123348018,3.857601779801494
6.3832599118942746,4.006283100279264
6.403083700440529,4.15104574636658
6.422907488986785,4.29174485943848
6.44273127753304,4.428239603397839
6.462555066079296,4.560393295549766
6.482378854625551,4.688073535467997
6.502202643171807,4.811152331227502
6.5220264317180625,4.929506222514248
6.541850220264318,5.04301640022033
6.561674008810574,5.15156882220444
6.581497797356829,5.25505432494983
6.601321585903085,5.353368730892508
6.62114537444934,5.446412951222961
6.640969162995596,5.534093083989214
6.6607929515418505,5.616320507348783
6.680616740088107,5.693011967833008
6.700440528634362,5.764089663501472
6.720264317180618,5.82948132187546
6.740088105726873,5.889120272550267
6.759911894273129,5.942945514395477
6.779735682819384,5.9909017772608655
6.799559471365639,6.032939578113512
6.819383259911895,6.069015271539771
6.83920704845815,6.099091094552208
6.859030837004407,6.123135205649485
6.8788546255506615,6.1411217180830935
6.898678414096917,6.153030727292212
6.918502202643173,6.158848332473923
6.938325991189428,6.158566652263056
6.958149779735684,6.152183834501439
6.977973568281939,6.139704060083596
6.997797356828195,6.121137540871665
7.01762114537445,6.096500511678667
7.037444933920705,6.065815216325461
7.0572687224669615,6.029109887783273
7.077092511013216,5.986418722419399
7.096916299559473,5.937781848370272
7.116740088105728,5.8832452880725805
7.136563876651983,5.8228609149884525
7.156387665198239,5.756686404568574
7.176211453744494,5.684785179501813
7.19603524229075,5.607226349308098
7.215859030837005,5.524084644336597
7.235682819383261,5.435440344239006
7.255506607929516,5.341379200994508
7.275330396475772,5.241992356570524
7.295154185022027,5.137376255311469
7.314977973568283,5.027632551156512
7.334801762114538,4.912868009796796
7.354625550660794,4.793194405893952
7.374449339207049,4.668728415494545
7.394273127753305,4.539591503790222
7.4140969162995605,4.405909808393348
7.433920704845816,4.267814018321403
7.453744493392072,4.1254392489160026
7.473568281938327,3.978924912965018
7.493392070484583,3.828414588355544
7.513215859030838,3.674055882668643
7.533039647577093,3.5160002952475002
7.552863436123348,3.3544030774480147
7.572687224669605,3.1894230920501494
7.59251101321586,3.0212226732236664
7.612334801762115,2.8499674891027382
7.6321585903083715,2.675826410099851
7.651982378854627,2.4989713878999638
7.671806167400882,2.319577353218238
7.691629955947137,2.1378221460773337
7.711453744493394,1.953886503039792
7.731277533039649,1.7679541469767137
7.751101321585904,1.5802120693468005
7.7709251101321595,1.3908511949504325
7.790748898678416,1.200067864560168
7.81057268722467,1.0080672419665422
7.830396475770926,0.8150718642994286
7.850220264317182,0.6213466181354115
7.870044052863436,0.42729248249746743
7.889867841409693,0.23400787107300894
7.909691629955948,0.056665913797758455
7.929515418502204,0.16801306922067177
7.9493392070484585,0.3602838018095313
7.969162995594715,0.554642827502633
7.9889867841409705,0.7490584797603411
8.008810572687224,0.9430120875840146
8.02863436123348,1.1362082809245757
8.048458149779737,1.3284125894450245
8.068281938325994,1.5194132995002685
8.088105726872246,1.7090093129503359
8.107929515418503,1.897005521920832
8.12775330396476,2.083210846490717
8.147577092511014,2.267437360099162
8.167400881057269,2.4494999086650764
8.187224669603525,2.6292159726697193
8.207048458149782,2.806405656546708
8.226872246696036,2.980891748056503
8.246696035242293,3.1524998174777874
8.266519823788547,3.321058339902982
8.286343612334802,3.486398830952178
8.306167400881058,3.6483559900601295
8.325991189427315,3.8067678476730786
8.345814977973568,3.9614759139770257
8.365638766519824,4.112325327557575
8.38546255506608,4.259165002878667
8.405286343612337,4.401847775778309
8.42511013215859,4.540230546383936
8.444933920704846,4.67417441898703
8.464757709251103,4.8035448385107395
8.484581497797357,4.928211723270194
8.504405286343614,5.0480495937726415
8.524229074889869,5.162937697339671
8.544052863436125,5.272760128359855
8.56387665198238,5.377405944000778
8.583700440528636,5.476769275225729
8.60352422907489,5.570749432973726
8.623348017621145,5.6592510093728725
8.643171806167402,5.7421839738669584
8.662995594713658,5.819463764143945
8.682819383259913,5.891011371762939
8.702643171806168,5.9567534223840095
8.722466960352424,6.016622250511721
8.74229074889868,6.070555968670619
8.762114537444935,6.118498530937091
8.78193832599119,6.16039979075839
8.801762114537446,6.196215552996178
8.821585903083701,6.225907620138038
8.841409691629957,6.249443832626419
8.861233480176212,6.266798103260915
8.881057268722468,6.277950445635656
8.900881057268723,6.282886996579825
8.92070484581498,6.2816000325754
8.940528634361234,6.274087980132243
8.960352422907489,6.260355420106702
8.980176211453745,6.240413085956283
9.000000000000002,6.214277855928401
9.019823788546258,6.18197273918808
9.039647577092511,6.14352685589464
9.059471365638768,6.0989754112441865
9.079295154185024,6.048359663500275
9.099118942731279,5.9917268860411514
9.118942731277533,5.92913032345808
9.13876651982379,5.860629141745076
9.158590308370046,5.786288372626079
9.1784140969163,5.70617885207175
9.198237885462555,5.62037715306352
9.218061674008812,5.528965512668434
9.237885462555067,5.432031753493946
9.257709251101323,5.329669199597335
9.27753303964758,5.2219765869300385
9.297356828193834,5.10905796840264
9.317180616740089,4.99102261366148
9.337004405286345,4.867984903673462
9.356828193832602,4.740064220220409
9.376651982378855,4.607384830409976
9.396475770925111,4.470075766314795
9.416299559471367,4.328270699856634
9.436123348017622,4.182107813057528
9.455947136563877,4.0317296637843345
9.475770925110133,3.8772830471185658
9.49559471365639,3.718918852487866
9.515418502202644,3.5567919167011075
9.5352422907489,3.39106087303406
9.555066079295155,3.221887996519117
9.57488986784141,3.0494390455991613
9.594713656387666,2.8738831003148726
9.614537444933923,2.6953923972065663
9.634361233480178,2.514142161129587
9.654185022026432,2.330310434210713
9.674008810572689,2.1440779022220897
9.693832599118945,1.955627718739757
9.713656387665198,1.765145327632328
9.733480176211454,1.5728182848022407
9.75330396475771,1.3788360809636957
9.773127753303967,1.183389969401255
9.792951541850222,0.9866728087323677
9.812775330396477,0.7888789506084152
9.832599118942733,0.5902042828503153
9.852422907488988,0.3908469900544558
9.872246696035244,0.1910143028676423
9.892070484581499,0.009947631553153712
9.911894273127754,0.20944146992460103
9.93171806167401,0.4095565885836921
9.951541850220266,0.6093801603607204
9.971365638766521,0.8087057651620646
9.991189427312776,1.00733408314999
10.011013215859032,1.2050675430813265
10.030837004405289,1.4017096936506088
10.050660792951543,1.5970651882461462
10.070484581497798,1.790939907732838
10.090308370044054,1.9831411242925914
10.11013215859031,2.1734776794455044
10.129955947136565,2.3617601670996113
10.14977973568282,2.547801117974969
10.169603524229077,2.731415183723642
10.189427312775331,2.912419319862636
10.209251101321588,3.0906329669867927
10.229074889867842,3.265878229895394
10.248898678414099,3.4379800543507493
10.268722466960353,3.60676640123286
10.28854625550661,3.7720684178811403
10.308370044052865,3.9337206064300143
10.32819383259912,4.091560988956966
10.348017621145376,4.245431269268955
10.367841409691632,4.395176991160014
10.387665198237887,4.540647692977823
10.407488986784141,4.681697058342195
10.427312775330398,4.818183062862795
10.447136563876654,4.949968116707988
10.466960352422909,5.076919202881023
10.486784140969164,5.198908011064394
10.50660792951542,5.315811066897453
10.526431718061675,5.4275098565570605
10.546255506607931,5.5338909465158315
10.566079295154186,5.634846098357089
10.585903083700442,5.730272378530579
10.605726872246697,5.820072262938058
10.625550660792953,5.904153736242838
10.645374449339208,5.982430385802546
10.665198237885463,6.05482149012967
10.685022026431719,6.121252101789829
10.704845814977975,6.181653124653049
10.724669603524232,6.235961385419057
10.744493392070485,6.284119699343112
10.764317180616741,6.326076930094398
