Time (s),Filtered Signal
0.0,-0.049134763820998004
0.03337008452774715,0.4805922703673517
0.0667401690554943,0.8794255340205616
0.10011025358324147,1.0564907388693046
0.1334803381109886,0.985749204118339
0.16685042263873576,0.7076991168946593
0.20022050716648293,0.3093322239829149
0.23359059169423008,-0.1078115074988566
0.2669606762219772,-0.4584083656566212
0.30033076074972437,-0.6924596534175179
0.3337008452774715,-0.7986509064178449
0.36707092980521866,-0.7946868782935105
0.40044101433296586,-0.7117677766456209
0.433811098860713,-0.5811230989240617
0.46718118338846015,-0.42784928692494145
0.5005512679162073,-0.27265228045482676
0.5339213524439544,-0.1375710158853355
0.5672914369717016,-0.04945332714903999
0.6006615214994487,-0.036169000686906816
0.6340316060271959,-0.11500354038918102
0.667401690554943,-0.27829164690307534
0.7007717750826902,-0.4849424590327553
0.7341418596104373,-0.6654678519830539
0.7675119441381845,-0.7421773620106173
0.8008820286659317,-0.6580532555442394
0.8342521131936789,-0.40192996806896664
0.867622197721426,-0.0176462381121949
0.9009922822491732,0.4086112121661477
0.9343623667769203,0.7785613029034766
0.9677324513046675,1.0171004368279912
1.0011025358324146,1.0975309063168244
1.0344726203601617,1.0462747228792044
1.0678427048879089,0.9259198143430559
1.101212789415656,0.8050243434321013
1.1345828739434032,0.7286192884150469
1.1679529584711503,0.7024795090758396
1.2013230429988975,0.6974541394540988
1.2346931275266446,0.6704525037876524
1.2680632120543918,0.5904954437438299
1.301433296582139,0.4556942103147204
1.334803381109886,0.2919129482341378
1.3681734656376332,0.13420382358745367
1.4015435501653803,0.0024015958459859296
1.4349136346931275,-0.11368777445240746
1.4682837192208746,-0.24929353666265794
1.5016538037486218,-0.4415395555625992
1.535023888276369,-0.7012433374463509
1.568393972804116,-0.9966060349496815
1.6017640573318634,-1.2595339471624738
1.6351341418596106,-1.4127250892915588
1.6685042263873577,-1.404048539948342
1.7018743109151049,-1.2306527623250976
1.735244395442852,-0.9406437504108501
1.7686144799705992,-0.6118097195016152
1.8019845644983463,-0.3183785182114082
1.8353546490260935,-0.10223540154105216
1.8687247335538406,0.038113474086954195
1.9020948180815878,0.13723441260126665
1.935464902609335,0.2383942852575079
1.968834987137082,0.36873863227611176
2.002205071664829,0.5264298665455638
2.0355751561925763,0.6846242431875728
2.0689452407203235,0.8078475687773404
2.1023153252480706,0.8703914146926023
2.1356854097758178,0.8667001150173209
2.169055494303565,0.8095385396410403
2.202425578831312,0.7191981371391764
2.235795663359059,0.6116636846584157
2.2691657478868064,0.49306356325820666
2.3025358324145535,0.3627130192830787
2.3359059169423007,0.2210946373184356
2.369276001470048,0.07603429075611308
2.402646085997795,-0.058045578125069094
2.436016170525542,-0.16779663920962914
2.4693862550532892,-0.2503343997164662
2.5027563395810364,-0.3172845308236331
2.5361264241087835,-0.3892759366233214
2.5694965086365307,-0.4826726165224222
2.602866593164278,-0.5958736707507255
2.636236677692025,-0.7040072398975787
2.669606762219772,-0.7669332781009931
2.7029768467475193,-0.7480143455752583
2.7363469312752664,-0.6343523782013625
2.7697170158030135,-0.4473082754603314
2.8030871003307607,-0.23661477287036473
2.836457184858508,-0.05995943349536554
2.869827269386255,0.04225254124012996
2.903197353914002,0.0645446295211319
2.9365674384417493,0.0378311292595261
2.9699375229694964,0.014180762368583153
3.0033076074972436,0.04235236580927029
3.0366776920249907,0.14554016146168852
3.070047776552738,0.3111516095810213
3.103417861080485,0.49648306447426593
3.136787945608232,0.6469450970219525
3.1701580301359793,0.7183257341499526
3.203528114663727,0.6935038803248347
3.236898199191474,0.5870900016960744
3.270268283719221,0.4370013407155494
3.3036383682469683,0.28750275094424294
3.3370084527747155,0.17152806996559802
3.3703785373024626,0.09988800004377542
3.4037486218302098,0.06140693078918898
3.437118706357957,0.032711523594251245
3.470488790885704,-0.00812182180078428
3.503858875413451,-0.07123016920335731
3.5372289599411983,-0.15261959669698907
3.5705990444689455,-0.23963485361900183
3.6039691289966926,-0.3197366120381596
3.63733921352444,-0.38678555718144686
3.670709298052187,-0.44130837710586923
3.704079382579934,-0.4854060131924017
3.7374494671076812,-0.5163803706663966
3.7708195516354284,-0.5238088924921844
3.8041896361631755,-0.492505063765466
3.8375597206909227,-0.41013089245603834
3.87092980521867,-0.27539601928781743
3.904299889746417,-0.10231950493299577
3.937669974274164,0.08198194092737476
3.9710400588019112,0.24529880648655916
4.004410143329658,0.3606871079766297
4.0377802278574055,0.4147192110842062
4.071150312385153,0.41025681261665253
4.1045203969129,0.36299734354904817
4.137890481440647,0.2939441972542856
4.171260565968394,0.22171240907836987
4.204630650496141,0.15826753209215133
4.238000735023888,0.10940869175769186
4.2713708195516356,0.07831373362408385
4.304740904079383,0.06859814725955894
4.33811098860713,0.0838600519978068
4.371481073134877,0.1233500016000794
4.404851157662624,0.1765321992387848
4.438221242190371,0.22084552646784922
4.471591326718118,0.22583772569146962
4.504961411245866,0.16354554657670364
4.538331495773613,0.02128744066554723
4.57170158030136,-0.1890638059521482
4.605071664829107,-0.4305033285764699
4.638441749356854,-0.6506732717792443
4.671811833884601,-0.7988566778562055
4.7051819184123485,-0.8432278433014827
4.738552002940096,-0.7806739793694413
4.771922087467843,-0.6346518521108452
4.80529217199559,-0.4423231166293914
4.838662256523337,-0.23768374241653298
4.872032341051084,-0.03944625670651854
4.905402425578831,0.15032754533002596
4.9387725101065785,0.33701065268032243
4.972142594634326,0.5198622239509865
5.005512679162073,0.682886002146103
5.03888276368982,0.7962947891284611
5.072252848217567,0.8286763267640735
5.105622932745314,0.7637499805589956
5.138993017273061,0.612727257581026
5.1723631018008085,0.41522302033641934
5.205733186328556,0.227214422224299
5.239103270856303,0.1007055553702375
5.27247335538405,0.06354494877740746
5.305843439911797,0.10783646861104965
5.339213524439544,0.1920210037584615
5.372583608967291,0.256532162899856
5.4059536934950385,0.2477065691932828
5.439323778022786,0.1409553387612415
5.472693862550533,-0.04654549786653796
5.50606394707828,-0.2603391074522153
5.539434031606027,-0.43050333377526756
5.572804116133774,-0.5029983363813847
5.606174200661521,-0.46691138038054564
5.6395442851892685,-0.36377123586809934
5.672914369717016,-0.2719344305922067
5.706284454244763,-0.27066516434297083
5.73965453877251,-0.3995228678286024
5.773024623300257,-0.6329741629681468
5.806394707828004,-0.8845101815747205
5.839764792355751,-1.040862111755258
5.873134876883499,-1.0117360239440145
5.906504961411246,-0.771801403956513
5.939875045938993,-0.37446020510029077
5.97324513046674,0.06973972648232525
6.006615214994487,0.439924017964833
6.039985299522234,0.6545321777862653
6.073355384049981,0.7004280902615786
6.106725468577729,0.6289296938379637
6.140095553105476,0.5229707878656163
6.173465637633223,0.4535960698668886
6.20683572216097,0.4481723640001394
6.240205806688717,0.48529856801651133
6.273575891216464,0.5165945026135057
6.3069459757442115,0.501223343406047
6.340316060271959,0.4327161415391686
6.373686144799706,0.3427599701517308
6.407056229327454,0.28028686658791535
6.440426313855201,0.2787829808596276
6.473796398382948,0.3317938748595837
6.507166482910695,0.39186888944611037
6.540536567438442,0.39433665720956435
6.5739066519661895,0.2925590939960897
6.607276736493937,0.08450155004632498
6.640646821021684,-0.18442639361743698
6.674016905549431,-0.4435178782990531
6.707386990077178,-0.6310565227492984
6.740757074604925,-0.721693395963292
6.774127159132672,-0.7327354082256347
6.8074972436604195,-0.7076802604736554
6.840867328188167,-0.6879066834649824
6.874237412715914,-0.6890315548030866
6.907607497243661,-0.6945079148142689
6.940977581771408,-0.6684672658310998
6.974347666299155,-0.578929706014562
7.007717750826902,-0.41738122577400716
7.0410878353546495,-0.20387852475228743
7.074457919882397,0.023982700342948887
7.107828004410144,0.23038536061847847
7.141198088937891,0.3968710968451301
7.174568173465638,0.5255366189232856
7.207938257993385,0.6295506722087216
7.241308342521132,0.7184792534843731
7.27467842704888,0.7883330603195132
7.308048511576627,0.8223074607163466
7.341418596104374,0.8009643541301511
7.374788680632121,0.7149278538634672
7.408158765159868,0.5723202874284884
7.441528849687615,0.3970198723880104
7.4748989342153624,0.219398481960807
7.50826901874311,0.0649854190503438
7.541639103270857,-0.05330365508017506
7.575009187798604,-0.1365090946726645
7.608379272326351,-0.19528661290955138
7.641749356854098,-0.24301380187163757
7.675119441381845,-0.28977378704074663
7.7084895259095925,-0.3393320443180044
7.74185961043734,-0.38944217623167804
7.775229694965087,-0.4345346339388107
7.808599779492834,-0.46934676997577823
7.841969864020581,-0.49207356351598946
7.875339948548328,-0.5058322774157388
7.908710033076075,-0.5176229534110145
7.9420801176038225,-0.5347142409364198
7.97545020213157,-0.5595047617039974
8.008820286659317,-0.5850229994260591
8.042190371187063,-0.5936712000348456
8.075560455714811,-0.5610128051410052
8.108930540242557,-0.464297136562468
8.142300624770305,-0.29277696179823537
8.175670709298052,-0.05513488543087075
8.2090407938258,0.2201564539838862
8.242410878353546,0.49269259332787885
8.275780962881294,0.7231779594063422
8.30915104740904,0.8856632177150162
8.342521131936788,0.9732435984078406
8.375891216464534,0.9950183555959113
8.409261300992283,0.9669014835294596
8.442631385520029,0.9020213525076876
8.476001470047777,0.8060864949058371
8.509371554575523,0.6795951735598098
8.542741639103271,0.5244282272062594
8.57611172363102,0.3498740646727038
8.609481808158765,0.17385473349464195
8.642851892686513,0.018335982382521005
8.67622197721426,-0.09857325079751923
8.709592061742008,-0.1696501099972297
8.742962146269754,-0.20145257815382367
8.776332230797502,-0.21232391820736157
8.809702315325248,-0.22697414533281302
8.843072399852996,-0.2697585979938038
8.876442484380743,-0.35805697605557
8.90981256890849,-0.49638538852973463
8.943182653436237,-0.6721455702705231
8.976552737963985,-0.8549722295398154
9.009922822491731,-1.0019878040183707
9.04329290701948,-1.0695492589923148
9.076662991547225,-1.0285149706407326
9.110033076074973,-0.876778041386775
9.14340316060272,-0.6424384138592705
9.176773245130468,-0.37465213810200276
9.210143329658214,-0.12536420498023657
9.243513414185962,0.0697175012452918
9.276883498713708,0.20171326662330766
9.310253583241456,0.28585999865207534
9.343623667769203,0.3478067736860682
9.37699375229695,0.40710696626948345
9.410363836824697,0.46721360158831005
9.443733921352445,0.517000448921849
9.477104005880191,0.5417657761421909
9.51047409040794,0.5361197056526903
9.543844174935685,0.510407095929131
9.577214259463434,0.48663625058671467
9.61058434399118,0.486427598732522
9.643954428518928,0.5182346586573326
9.677324513046674,0.5713341017417413
9.710694597574422,0.6199815098341853
9.744064682102168,0.6353267827262989
9.777434766629916,0.5985533300109529
9.810804851157663,0.5083699779795565
9.84417493568541,0.37928478474117994
9.877545020213157,0.2319959524208644
9.910915104740905,0.08120767310374974
9.944285189268651,-0.07253101305003301
9.9776552737964,-0.24217565573965324
10.011025358324146,-0.4440763852113741
10.044395442851894,-0.6826368799571159
10.07776552737964,-0.937507885610467
10.111135611907388,-1.1613008180886562
10.144505696435134,-1.2918125906586972
10.177875780962882,-1.2757055740184395
10.211245865490628,-1.0937633363549366
10.244615950018376,-0.7751980403648829
10.277986034546123,-0.39227082576718564
10.31135611907387,-0.035477374000451735
10.344726203601617,0.220685997827035
10.378096288129365,0.34606977635145764
10.411466372657111,0.36422184410825703
10.44483645718486,0.3383582928286517
10.478206541712606,0.3404701662752626
10.511576626240354,0.4177578804445608
10.5449467107681,0.5713964700538691
10.578316795295848,0.756450216708979
10.611686879823594,0.9018556566798938
10.645056964351342,0.94064454307593
10.678427048879088,0.8369285697478163
10.711797133406836,0.5988163931976814
10.745167217934583,0.2735479275683863
10.77853730246233,-0.0709830977656471
10.811907386990077,-0.3691506650733119
10.845277471517825,-0.5756027540400023
10.878647556045571,-0.6729873996007347
10.91201764057332,-0.6695655655258429
10.945387725101066,-0.5908564755836022
10.978757809628814,-0.47016296519159684
11.01212789415656,-0.3408016969878036
11.045497978684308,-0.23029849776683262
11.078868063212054,-0.15575896936801603
11.112238147739802,-0.12049216459893808
11.145608232267548,-0.11339422992040822
11.178978316795297,-0.11278308844706168
11.212348401323043,-0.09462214906058238
11.24571848585079,-0.04238072276972902
11.279088570378537,0.045894177472822824
11.312458654906285,0.15689044705213417
11.345828739434031,0.2681134552081743
11.37919882396178,0.3573709576338745
11.412568908489526,0.4104513699920533
11.445938993017274,0.42322078641420663
11.47930907754502,0.3982303304453849
11.512679162072768,0.33960306434292065
11.546049246600514,0.25085795554368573
11.579419331128262,0.13771690174106027
11.612789415656009,0.013595189133968833
11.646159500183757,-0.09747812265439369
11.679529584711503,-0.164949884368552
11.71289966923925,-0.16284343622366293
11.746269753766997,-0.08263911907424637
11.779639838294745,0.05957790561072837
11.813009922822491,0.22658450404453168
11.84638000735024,0.3728835551187031
11.879750091877986,0.4601980668052889
11.913120176405734,0.46760920510380793
11.94649026093348,0.39227159920728333
11.979860345461228,0.24291846069062184
12.013230429988974,0.03260810724936917
12.046600514516722,-0.2235116055407166
12.079970599044469,-0.5045252540713855
12.113340683572217,-0.7786187178339015
12.146710768099963,-1.0028254200449727
12.180080852627711,-1.131072258806486
12.213450937155457,-1.128423235167095
12.246821021683205,-0.9850777664121476
12.280191106210951,-0.7231719587983194
12.3135611907387,-0.39270009293839403
12.346931275266446,-0.05772251067468235
12.380301359794194,0.2221015426497499
12.41367144432194,0.4081604144595374
12.447041528849688,0.4921919143589645
12.480411613377434,0.4953362346271694
12.513781697905182,0.4574368553302275
12.547151782432929,0.42046531527604314
12.580521866960677,0.4122986346408637
12.613891951488423,0.4372391339452281
12.647262036016171,0.4770244476183837
12.680632120543917,0.5014373145958274
12.714002205071665,0.4832273213028255
12.747372289599411,0.41034422841898427
12.78074237412716,0.29042609149533144
12.814112458654908,0.1468082891009154
12.847482543182654,0.009346024529691827
12.880852627710402,-0.09514532124362099
12.914222712238148,-0.14936656055663214
12.947592796765896,-0.1481422240432351
12.980962881293642,-0.09835132194651405
13.01433296582139,-0.01755200452576423
13.047703050349137,0.06850928172650118
13.081073134876885,0.13042207873960804
13.114443219404631,0.14234666891526307
13.147813303932379,0.09085592331381286
13.181183388460125,-0.017951188084960795
13.214553472987873,-0.1573426966939976
13.24792355751562,-0.2874932969276982
13.281293642043368,-0.3702571709698017
13.314663726571114,-0.3852166909912836
13.348033811098862,-0.3388843904957898
13.381403895626608,-0.26121733987306517
13.414773980154356,-0.18990539408820098
13.448144064682102,-0.14998697452523319
13.48151414920985,-0.13988284418045407
13.514884233737597,-0.13226383522453045
13.548254318265345,-0.09030053071066836
13.581624402793091,0.00888359678414819
13.614994487320839,0.1562528296971827
13.648364571848585,0.3087149979387346
13.681734656376333,0.40511617584983356
13.71510474090408,0.39342273225531627
13.748474825431828,0.256400076453578
13.781844909959574,0.023602059561778965
13.815214994487322,-0.23629823605172956
13.848585079015068,-0.4400236002273047
13.881955163542816,-0.5209297575973989
13.915325248070562,-0.45408495555183026
13.94869533259831,-0.2650677047805286
13.982065417126057,-0.019258974209830033
14.015435501653805,0.20352695368990356
14.048805586181551,0.3383556400629993
14.082175670709299,0.3564851913253309
14.115545755237045,0.27070525077288776
14.148915839764793,0.12416075299872109
14.18228592429254,-0.03049248843550518
14.215656008820288,-0.15110136687328388
14.249026093348034,-0.2166062700730353
14.282396177875782,-0.2257782269995681
14.315766262403528,-0.1882997240185022
14.349136346931276,-0.11557568783758994
14.382506431459023,-0.016908815200155265
14.41587651598677,0.09825856695608791
14.449246600514517,0.21584531349797703
14.482616685042265,0.3154254930920243
14.515986769570011,0.3740254299654775
14.54935685409776,0.374229810368356
14.582726938625505,0.31254993053039737
14.616097023153253,0.20366289850882405
14.649467107681,0.07803382587412049
14.682837192208748,-0.026729324173020076
14.716207276736494,-0.07798076253811324
14.749577361264242,-0.05945013176089595
14.782947445791988,0.022185329033316558
14.816317530319736,0.1383479436250405
14.849687614847483,0.24745766706422115
14.88305769937523,0.3088807952604059
14.916427783902977,0.29684811322866506
14.949797868430725,0.20896839828417485
14.983167952958471,0.06605585242865311
15.01653803748622,-0.09639529176764891
15.049908122013965,-0.2413263878453052
15.083278206541713,-0.342391228785486
15.11664829106946,-0.39069057870969276
15.150018375597208,-0.39389453626855436
15.183388460124954,-0.3690310256061511
15.216758544652702,-0.33290328392526725
15.250128629180448,-0.2949686971044887
15.283498713708196,-0.25604368185143794
15.316868798235943,-0.2129222280076383
15.35023888276369,-0.16554806429797217
15.383608967291437,-0.12179810563258131
15.416979051819185,-0.09635505185191962
15.450349136346931,-0.10384136084211967
15.48371922087468,-0.15004150877126352
15.517089305402425,-0.2262859902127978
15.550459389930174,-0.3101654707932439
15.58382947445792,-0.37207141197921983
15.617199558985668,-0.38407785387657806
15.650569643513414,-0.3271636430565246
15.683939728041162,-0.19467560871913425
15.717309812568908,0.007408816421915696
15.750679897096656,0.26140653568999167
15.784049981624403,0.5386373962185391
15.81742006615215,0.8004447544580658
15.850790150679897,1.0016240569494412
15.884160235207645,1.0981459585160187
15.917530319735391,1.0588702646845143
15.95090040426314,0.8779253262689112
15.984270488790886,0.5824304907980525
16.017640573318634,0.2307551347228207
16.05101065784638,-0.1002796444606315
16.084380742374126,-0.33629300037529564
16.117750826901876,-0.427655868868599
16.151120911429622,-0.36548099452231514
16.18449099595737,-0.1855534676428039
16.217861080485115,0.04147784831489693
16.251231165012864,0.2308924325856246
16.28460124954061,0.30951978769411653
16.317971334068357,0.23843453674016013
16.351341418596103,0.025464780109741025
16.384711503123853,-0.2770669766033107
16.4180815876516,-0.5893906160141997
16.451451672179346,-0.8308170168215852
16.484821756707092,-0.9463399263474227
16.51819184123484,-0.9231526748458764
16.551561925762588,-0.7905230873037357
16.584932010290334,-0.6033502276492052
16.61830209481808,-0.4169241739029487
16.65167217934583,-0.26444009199666074
16.685042263873576,-0.14748230474774887
16.718412348401323,-0.043347634743140934
16.75178243292907,0.07534180732439177
16.78515251745682,0.21957498218879565
16.818522601984565,0.3730827843309234
16.85189268651231,0.4979870922725163
16.885262771040058,0.5544300759679649
16.918632855567807,0.5238550633421484
16.952002940095554,0.4231223979743457
16.9853730246233,0.3009955242904576
17.018743109151046,0.2176247345950804
17.052113193678796,0.21675936333515095
17.085483278206542,0.30464090629432117
17.11885336273429,0.44645329310040377
17.15222344726204,0.5822939615537029
17.185593531789785,0.6545614438026025
17.21896361631753,0.6328489567208584
17.252333700845277,0.5240302924437757
17.285703785373027,0.363291285571602
17.319073869900773,0.191931422818704
17.35244395442852,0.03441230049705221
