Frequency (Hz),Amplitude
0.0,1.9378661233812995
0.04,1.9431975598028262
0.08,1.9590839529477178
0.12,1.985210242244494
0.16,2.0210786498847404
0.19999999999999998,2.066044474256435
0.24,2.1193574828948583
0.27999999999999997,2.1802032855135005
0.32,2.247740368394717
0.36,2.321130263460925
0.39999999999999997,2.399560012859978
0.44,2.4822573299522497
0.48,2.56849956743278
0.52,2.6576178677934
0.5599999999999999,2.7489978382050118
0.6,2.842077901400089
0.64,2.936346228564775
0.6799999999999999,3.0313369208191236
0.72,3.126625901800027
0.76,3.221826823945184
0.7999999999999999,3.316587173113221
0.84,3.4105846733077
0.88,3.5035240375857035
0.9199999999999999,3.595134075495064
0.96,3.6851651456959447
1.0,3.7733869302814944
1.04,3.8595865014412802
1.0799999999999998,3.9435666492087535
1.1199999999999999,4.025144439527348
1.1600000000000001,4.104149973715962
1.2,4.180425322937211
1.24,4.253823614048465
1.28,4.324208245991069
1.3199999999999998,4.391452218503606
1.3599999999999999,4.455437557356238
1.4,4.516054822466464
1.44,4.573202687167903
1.48,4.62678757857586
1.52,4.676723370445595
1.5599999999999998,4.72293112117472
1.5999999999999999,4.765338850683715
1.64,4.803881350840903
1.68,4.838500024901249
1.72,4.869142752121563
1.76,4.8957637743141245
1.7999999999999998,4.918323601622234
1.8399999999999999,4.936788935256884
1.88,4.951132605335455
1.92,4.96133352232091
1.9599999999999997,4.967376640882115
2.0,4.969252935290411
2.0399999999999996,4.966959385741594
2.08,4.960498975252234
2.12,4.949880697031148
2.1599999999999997,4.935119572476302
2.2,4.916236680200614
2.2399999999999998,4.893259196752572
2.28,4.866220449975722
2.3200000000000003,4.835159986251281
2.36,4.800123653197608
2.4,4.761163699767367
2.44,4.718338896096328
2.48,4.671714675928005
2.5199999999999996,4.621363304976681
2.56,4.5673640792119725
2.6,4.50980355776596
2.6399999999999997,4.448775835996741
2.68,4.3843828652098455
2.7199999999999998,4.31673482666304
2.76,4.245950568784233
2.8,4.172158118041062
2.84,4.095495275637538
2.88,4.016110314198
2.92,3.9341627908424677
2.96,3.849824495554779
2.9999999999999996,3.763280556461561
3.04,3.674730726493225
3.08,3.584390878728934
3.1199999999999997,3.4924947402564657
3.16,3.3992958961430815
3.1999999999999997,3.305070095380274
3.2399999999999998,3.2101178882997417
3.28,3.1147676182586306
3.32,3.019378776872116
3.36,2.924345708204581
3.4,2.8301016082960726
3.44,2.737122705924633
3.4799999999999995,2.6459324209949235
3.52,2.5571051702792706
3.5599999999999996,2.471269319802911
3.5999999999999996,2.3891085679387527
3.64,2.3113607948402173
3.6799999999999997,2.238813166619155
3.7199999999999998,2.1722921058681846
3.76,2.1126467458872216
3.7999999999999994,2.0607248226446298
3.84,2.017340773059766
3.88,1.9832371662941877
3.9199999999999995,1.9590423702989777
3.96,1.9452291463893785
4.0,1.9420800271455514
4.04,1.9496652113138475
4.079999999999999,1.96783699809909
4.12,1.9962418104772706
4.16,2.0343475388997665
4.199999999999999,2.0814813595385053
4.24,2.1368720698484838
4.28,2.1996914102292306
4.319999999999999,2.269090322110059
4.36,2.344227940680211
4.4,2.4242927676159693
4.4399999999999995,2.508516622529612
4.4799999999999995,2.596182591113742
4.5200000000000005,2.6866283812930596
4.56,2.779246420311342
4.6,2.873481812345322
4.640000000000001,2.968829023357165
4.68,3.0648279220987606
4.72,3.161059607859794
4.76,3.257142302508766
4.8,3.3527274728606065
4.84,3.4474962719167612
4.88,3.541156336016719
4.92,3.63343894229509
4.96,3.724096511352659
5.0,3.8129004294292304
5.039999999999999,3.89963915951505
5.08,3.984116609598231
5.12,4.066150727155961
5.159999999999999,4.145572291092731
5.2,4.222223874990641
5.24,4.295958958380805
5.279999999999999,4.366641165543257
5.319999999999999,4.43414361396868
5.36,4.49834835700734
5.3999999999999995,4.559145907366261
5.4399999999999995,4.616434829997124
5.48,4.670121394558802
5.52,4.7201192790619215
5.56,4.766349317531799
5.6,4.808739285584957
5.64,4.847223718725821
5.68,4.881743758955299
5.72,4.9122470259603706
5.76,4.9386875097404195
5.8,4.961025482036311
5.84,4.9792274243750025
5.879999999999999,4.99326597093688
5.92,5.003119864804972
5.96,5.008773926473032
5.999999999999999,5.010219033781379
6.04,5.007452112721694
6.08,5.000476138811838
6.119999999999999,4.989300148994481
6.16,4.9739392642655815
6.2,4.954414723495637
6.239999999999999,4.930753929174854
6.279999999999999,4.902990506098662
6.32,4.8711643743197
6.359999999999999,4.835321838033594
6.3999999999999995,4.795515692447329
6.44,4.75180535111009
6.4799999999999995,4.704256996678075
6.52,4.652943758649549
6.56,4.597945922258683
6.6,4.539351173472857
6.64,4.477254885917286
6.68,4.411760456573691
6.72,4.3429796982907165
6.76,4.2710332985274215
6.8,4.19605135535485
6.84,4.118174003589568
6.88,4.037552146049198
6.92,3.95434830731571
6.959999999999999,3.868737630062436
7.0,3.780909036908434
7.04,3.6910665838202386
7.08,3.5994310341131532
7.119999999999999,3.5062416848073696
7.16,3.4117584789633137
7.199999999999999,3.316264437848674
7.239999999999999,3.22006844412996
7.28,3.123508399857422
7.32,3.0269547680783258
7.359999999999999,2.9308144805720664
7.3999999999999995,2.8355351511258173
7.4399999999999995,2.741609467044918
7.4799999999999995,2.649579532898879
7.52,2.560040801073526
7.5600000000000005,2.4736450367148666
7.599999999999999,2.391101530014362
7.64,2.3131755012005284
7.68,2.240682384163733
7.719999999999999,2.174476503846885
7.76,2.1154327079599367
7.800000000000001,2.0644199388849307
7.839999999999999,2.022266689163739
7.88,1.989719820236972
7.92,1.9674001579364762
7.959999999999999,1.9557601223265506
8.0,1.955049682943975
8.040000000000001,1.9652964841695246
8.08,1.9863038454788378
8.12,2.017667006487801
8.159999999999998,2.0588045299368725
8.2,2.1089993306172348
8.24,2.167443004195042
8.28,2.2332779058097345
8.32,2.305633165311961
8.36,2.3836527856728673
8.399999999999999,2.4665156078606274
8.44,2.553448000009752
8.48,2.643730651166741
8.52,2.7367009596710012
8.56,2.8317523692880227
8.6,2.928331758679156
8.639999999999999,3.025935721120437
8.68,3.1241063295041966
8.72,3.2224267855849256
8.76,3.3205172043562454
8.8,3.4180306785135417
8.84,3.514649695613554
8.879999999999999,3.610082933326899
8.92,3.7040624289037702
8.959999999999999,3.7963411020260223
9.0,3.886690601453799
9.040000000000001,3.9748994423486437
9.079999999999998,4.060771400842508
9.12,4.144124133969344
9.16,4.224787995600808
9.2,4.302605021973233
9.24,4.377428063419879
9.280000000000001,4.4491200418347265
9.32,4.5175533160876045
9.36,4.58260914003923
9.399999999999999,4.644177199957389
9.44,4.702155220021061
9.48,4.756448626237547
9.52,4.806970260513406
9.559999999999999,4.853640137839164
9.6,4.896385240596083
9.639999999999999,4.935139344894207
9.68,4.969842874626204
9.72,5.000442779590146
9.76,5.026892434613211
9.8,5.049151557112082
9.84,5.067186140967249
9.879999999999999,5.080968404978894
9.92,5.090476754520959
9.959999999999999,5.095695755326445
10.0,5.096616118628354
10.04,5.093234697154083
10.079999999999998,5.08555449173313
10.12,5.0735846685346155
10.16,5.057340587208663
10.2,5.036843840469945
10.24,5.0121223059392035
10.280000000000001,4.983210211355685
10.319999999999999,4.950148214597756
10.36,4.912983500308297
10.4,4.871769895324984
10.44,4.826568005573745
10.48,4.777445377608075
10.52,4.724476688581764
10.559999999999999,4.6677439691433085
10.6,4.607336864555552
10.639999999999999,4.5433529402947155
10.68,4.475898039492967
10.72,4.405086700884609
10.76,4.331042647427038
10.799999999999999,4.25389935752467
10.84,4.173800732817076
10.879999999999999,4.0909018788285865
10.92,4.005370017432242
10.96,3.9173855530548596
11.0,3.8271433178057856
11.04,3.7348540241570265
11.08,3.640745957249889
11.12,3.545066942019876
11.16,3.448086622556333
11.2,3.350099091543142
11.24,3.2514259048533636
11.28,3.152419508260569
11.319999999999999,3.0534670866396962
11.36,2.9549948164747977
11.4,2.8574724538113645
11.44,2.7614181139639227
11.48,2.6674029866602207
11.52,2.576055570755269
11.559999999999999,2.4880647985488746
11.6,2.4041811517957656
11.64,2.3252145686343337
11.68,2.252027654048547
11.72,2.18552253476194
11.759999999999998,2.12661979625379
11.799999999999999,2.0762284961548363
11.84,2.0352074299810066
11.879999999999999,2.004319652135609
11.92,1.984184459524761
11.96,1.975233001425135
11.999999999999998,1.9776745363608916
12.04,1.991479419465972
12.08,2.0163821007589493
12.12,2.0519035126362652
12.16,2.097388540131706
12.200000000000001,2.1520520038292785
12.239999999999998,2.215026250706162
12.28,2.2854047332336997
12.32,2.362278067590267
12.36,2.444761190066888
12.4,2.5320118628761334
12.44,2.6232417530090992
12.479999999999999,2.717721700913746
12.52,2.8147827920723865
12.559999999999999,2.913814626560587
12.6,3.014261885238413
12.64,3.115619998318396
12.68,3.217430471973863
12.719999999999999,3.319276233370354
12.76,3.420777211410055
12.799999999999999,3.521586270848647
12.84,3.621385551218554
12.88,3.7198832200560794
12.92,3.8168106249128857
12.959999999999999,3.911919814973817
12.999999999999998,4.004981396802401
13.04,4.095782687014356
13.08,4.1841261256669116
13.12,4.269827916621592
13.16,4.352716864309668
13.2,4.432633379722812
13.239999999999998,4.509428631784567
13.28,4.582963823376902
13.32,4.653109574126457
13.36,4.7197453945724215
13.4,4.782759238546325
13.44,4.842047122512775
13.479999999999999,4.897512802276898
13.52,4.949067498888536
13.559999999999999,4.996629666794932
13.6,5.040124798340587
13.64,5.079485259610524
13.68,5.114650153384145
13.719999999999999,5.14556520563077
13.76,5.172182672552569
13.799999999999999,5.194461265680537
13.84,5.212366092967771
13.88,5.225868614212789
13.919999999999998,5.234946609493871
13.959999999999999,5.239584159612294
14.0,5.239771637835553
14.04,5.235505712508578
14.08,5.226789360367998
14.120000000000001,5.21363189065841
14.16,5.196048980416397
14.2,5.17406272156431
14.239999999999998,5.147701680748309
14.28,5.117000973171152
14.32,5.082002352017347
14.36,5.042754315456233
14.399999999999999,4.999312233646564
14.44,4.9517384986669395
14.479999999999999,4.900102700872718
14.52,4.84448183584843
14.56,4.784960546903152
14.6,4.721631408966576
14.64,4.654595260810653
14.68,4.583961593774072
14.719999999999999,4.509849006637261
14.76,4.432385738020061
14.799999999999999,4.351710289691643
14.84,4.267972156532524
14.879999999999999,4.181332681608867
14.919999999999998,4.091966057937947
14.959999999999999,4.000060502049993
15.0,3.9058196283576976
15.04,3.8094640575399894
15.079999999999998,3.711233296433869
15.120000000000001,3.6113879309403245
15.159999999999998,3.51021217655221
15.199999999999998,3.408016832259354
15.24,3.305142681120851
15.28,3.2019643721642965
15.319999999999999,3.098894799663191
15.36,2.9963899617393075
15.399999999999999,2.894954222964175
15.439999999999998,2.7951458150785435
15.48,2.697582273806251
15.52,2.6029453150065534
15.559999999999999,2.511984390268458
15.600000000000001,2.4255178317257697
15.639999999999999,2.3444301240143064
15.679999999999998,2.2696634969588456
15.72,2.202201848317462
15.76,2.1430451856216366
15.799999999999999,2.0931735658377755
15.84,2.0535011036938355
15.879999999999999,2.0248229837888623
15.919999999999998,2.0077611117273646
15.96,2.0027161849846045
16.0,2.009834467111497
16.04,2.0289956924262764
16.080000000000002,2.059824540263745
16.12,2.1017232687363503
16.16,2.153919113137676
16.200000000000003,2.215518198709343
16.24,2.2855582138350936
16.279999999999998,2.3630542207112577
16.319999999999997,2.447034663064278
16.36,2.536566980064555
16.4,2.630773819572785
16.439999999999998,2.7288416322666063
16.48,2.8300236115458137
16.52,2.9336387658712684
16.56,3.03906857220921
16.6,3.145752292882541
16.64,3.2531817119694915
16.68,3.360895787096169
16.72,3.4684755194937753
16.759999999999998,3.575539210001503
16.799999999999997,3.6817381785498613
16.84,3.78675296745717
16.88,3.8902900146453856
16.919999999999998,3.99207876405534
16.96,4.091869171658711
17.0,4.189429562746211
17.04,4.284544797084574
17.080000000000002,4.377014701429695
17.12,4.466652732716796
17.16,4.553284839385252
17.2,4.636748492365539
17.24,4.7168918610586
17.279999999999998,4.7935731130793
17.32,4.866659819585384
17.36,4.936028450677384
17.4,5.001563947659565
17.44,5.0631593609325325
17.48,5.120715543982569
17.52,5.174140895379127
17.56,5.223351141924869
17.6,5.268269157154136
17.64,5.308824810273668
17.68,5.3449548414082155
17.72,5.3766027596744514
17.759999999999998,5.403718761177534
17.799999999999997,5.426259664521629
17.84,5.444188861861566
17.88,5.457476283909978
17.919999999999998,5.46609837766232
17.96,5.470038095920473
18.0,5.469284897991956
18.04,5.46383476122397
18.080000000000002,5.453690203306038
18.12,5.438860315549186
18.159999999999997,5.419360807629831
18.2,5.395214064580071
18.24,5.366449217120351
18.279999999999998,5.333102226773395
18.32,5.295215987579597
18.36,5.252840446663398
18.4,5.206032746390173
18.44,5.154857391417571
18.48,5.099386444600522
18.52,5.039699756474952
18.560000000000002,4.975885233944348
18.6,4.908039154853188
18.64,4.836266536383645
18.679999999999996,4.760681566694746
18.72,4.681408110979548
18.759999999999998,4.598580305195832
18.799999999999997,4.512343253184915
18.84,4.4228538457914786
18.88,4.330281723996251
18.919999999999998,4.234810412028966
18.96,4.136638650981457
19.0,4.03598196859412
19.04,3.933074526580136
19.080000000000002,3.8281712928993983
19.119999999999997,3.721550592416572
19.159999999999997,3.6135170946698936
19.2,3.5044053008206695
19.24,3.3945835912370437
19.279999999999998,3.2844588873893232
19.32,3.1744819618664444
19.36,3.0651533910162114
19.4,2.9570300754433103
19.44,2.8507321400653374
19.48,2.746949849625451
19.52,2.6464499176210405
19.560000000000002,2.5500802302241525
19.6,2.458771550904346
19.639999999999997,2.3735342511684756
19.68,2.2954476296750554
19.72,2.2256391368290176
19.759999999999998,2.16525112693028
19.8,2.115393985730086
19.84,2.077086889773022
19.88,2.0511909131317334
19.919999999999998,2.0383429039345233
19.96,2.038901043435102
20.0,2.052912706707041
20.04,2.0801114811982946
20.08,2.11994391116509
20.119999999999997,2.1716200438151754
20.159999999999997,2.2341775904542436
20.2,2.30654867870932
20.24,2.3876202938965587
20.279999999999998,2.4762830970749525
20.32,2.5714668449171083
20.36,2.6721632127795574
20.4,2.7774382172830463
20.44,2.886436865959636
20.48,2.99838249160636
20.52,3.112572780295322
20.560000000000002,3.2283739902110384
20.599999999999998,3.34521439762791
20.639999999999997,3.4625776396665633
20.68,3.5799963544796367
20.72,3.697046333973537
20.759999999999998,3.8133412828566624
20.8,3.9285282026781294
20.84,4.042283375975118
20.88,4.154308902795112
20.92,4.264329732025141
20.96,4.37209112794724
21.0,4.477356514847419
21.04,4.579905647179354
21.08,4.679533058402681
21.119999999999997,4.776046747403175
21.159999999999997,4.869267066928788
21.2,4.9590257835272675
21.24,5.045165282962534
21.279999999999998,5.127537899008402
21.32,5.206005346899293
21.36,5.280438245608666
21.4,5.350715715583927
21.44,5.416725040649088
21.48,5.47836138454744
21.52,5.535527554084639
21.56,5.588133802090818
21.599999999999998,5.636097664485763
21.639999999999997,5.6793438266358445
21.68,5.717804014962274
21.72,5.751416910420346
21.759999999999998,5.780128081038451
21.8,5.803889931200061
21.84,5.822661665785892
21.88,5.836409267679288
21.92,5.845105487486128
21.96,5.848729844640403
22.0,5.847268639366908
22.04,5.840714975260587
22.08,5.829068792525939
22.119999999999997,5.812336912206341
22.16,5.790533092030212
22.2,5.763678094816111
22.24,5.731799770720896
22.28,5.6949331549936355
22.32,5.653120583323797
22.36,5.606411827358203
22.4,5.554864253522324
22.44,5.498543008935317
22.48,5.437521238976343
22.519999999999996,5.371880341967622
22.56,5.301710267518737
22.599999999999998,5.227109866363773
22.639999999999997,5.148187301064429
22.68,5.06506052880165
22.72,4.977857869702661
22.759999999999998,4.8867186768268365
22.8,4.791794127155789
22.84,4.693248156807117
22.88,4.591258568338957
22.92,4.486018343565383
22.96,4.377737201894337
23.0,4.266643451948058
23.04,4.15298619320031
23.08,4.037037934529456
23.119999999999997,3.91909770770297
23.16,3.7994947652750986
23.2,3.6785929629690606
23.24,3.5567959340681377
23.28,3.4345531637335545
23.32,3.3123670579859605
23.36,3.1908010649196155
23.400000000000002,3.0704888285704723
23.44,2.9521442152954966
23.479999999999997,2.836571816334767
23.519999999999996,2.7246771583719545
23.56,2.617475305170043
23.599999999999998,2.5160957837712687
23.639999999999997,2.4217808497499234
23.68,2.3358731681487646
23.72,2.2597883801788914
23.759999999999998,2.194968351452642
23.8,2.14281292430623
23.84,2.1045923061820897
23.88,2.081348552282968
23.92,2.0738011842171264
23.96,2.0822756872446715
23.999999999999996,2.1066714278896437
24.04,2.1464768691165186
24.08,2.2008279316101933
24.119999999999997,2.2685951830928883
24.16,2.348481243009016
24.2,2.43911187922702
24.24,2.5391102459333785
24.28,2.6471502804703397
24.32,2.7619902262622786
24.36,2.882489918912804
24.400000000000002,3.0076162547192244
24.439999999999998,3.136440901265784
24.479999999999997,3.2681334637951074
24.52,3.4019524050249843
24.56,3.5372352302879437
24.599999999999998,3.673388854983377
24.64,3.8098806572063513
24.68,3.946230448575436
24.72,4.0820034309574975
24.759999999999998,4.216804112330503
24.8,4.350271106187004
24.84,4.482072718045942
24.88,4.611903218130951
24.92,4.739479703654432
24.959999999999997,4.864539462857748
24.999999999999996,4.986837763308437
25.04,5.106145997436603
25.08,5.222250128118198
25.119999999999997,5.334949385927521
25.16,5.444055177374414
25.2,5.549390170037377
25.24,5.6507875260913725
25.28,5.748090260425144
25.32,5.841150703469021
25.36,5.929830052126408
25.4,6.0139979949244085
25.439999999999998,6.0935323997625375
25.479999999999997,6.168319054521263
25.52,6.2382514523596235
25.56,6.30323061483878
25.599999999999998,6.363164947101559
25.64,6.417970120254757
25.68,6.467568976872474
25.72,6.511891456191084
25.76,6.550874536120742
25.8,6.58446218967241
25.84,6.6126053538084175
25.880000000000003,6.63526190908005
25.919999999999998,6.6523966687290566
25.959999999999997,6.663981376209376
25.999999999999996,6.669994710338983
26.04,6.670422297526073
26.08,6.665256730735197
26.119999999999997,6.6544975950729075
26.16,6.6381515000845255
26.2,6.6162321190691475
26.24,6.588760235944443
26.28,6.555763800432086
26.32,6.517277992595122
26.36,6.4733452980473345
26.4,6.424015595480111
26.439999999999998,6.369346258523754
26.479999999999997,6.309402274389258
26.52,6.24425638223656
26.56,6.173989234802619
26.599999999999998,6.098689587517142
26.64,6.018454520159372
26.68,5.9333896970953655
26.72,5.843609673317729
26.76,5.749238254932427
26.8,5.6504089244541325
26.84,5.547265343348125
26.88,5.439961946772668
26.919999999999998,5.328664648528403
26.959999999999997,5.213551677926047
27.0,5.094814574778638
27.04,4.9726593741697735
27.08,4.84730801922474
27.119999999999997,4.719000048011695
27.16,4.587994610114903
27.2,4.4545728795047985
27.24,4.319040943133179
27.28,4.181733259046312
27.32,4.043016793171605
27.36,3.90329595900645
27.4,3.7630184966878324
27.439999999999998,3.622682432742346
27.479999999999997,3.482844251266201
27.52,3.34412836823865
27.56,3.2072379123173853
27.599999999999998,3.0729666463213383
27.64,2.9422115689522412
27.68,2.815985258399164
27.72,2.695426295806239
27.76,2.5818050957176757
27.8,2.476521209216477
27.839999999999996,2.381086867953814
27.88,2.297090725751895
27.919999999999998,2.2261363419327047
27.959999999999997,2.1697530946791272
28.0,2.1292837016756483
28.04,2.1057616728208504
28.08,2.099800718671065
28.12,2.111521426777825
28.16,2.140534489519374
28.2,2.1859852238352273
28.240000000000002,2.2466473215855833
28.28,2.3210425368998693
28.32,2.407561413089214
28.359999999999996,2.5045665304854805
28.4,2.6104692458473022
28.439999999999998,2.7237791181048663
28.479999999999997,2.843130192433503
28.52,2.967290171319671
28.56,3.0951583118071837
