Time (s),Filtered Signal
0.0,0.009625038936552822
0.03337028824833703,-0.3683489618043933
0.06674057649667406,-0.6430969822471398
0.10011086474501109,-0.729539563505516
0.13348115299334812,-0.5805576931423667
0.16685144124168516,-0.20363828209772405
0.20022172949002218,0.3327969153063381
0.2335920177383592,0.9111549652787931
0.26696230598669624,1.3962432014120056
0.3003325942350333,1.6783644374465094
0.3337028824833703,1.7113439369400332
0.3670731707317073,1.5279990782458932
0.40044345898004435,1.224137081385728
0.4338137472283814,0.9167168615635007
0.4671840354767184,0.6947620985483062
0.5005543237250555,0.5856238951737204
0.5339246119733925,0.5516785267304244
0.5672949002217295,0.5173768391157356
0.6006651884700666,0.41180719960208867
0.6340354767184035,0.2052226666640613
0.6674057649667406,-0.07762807912660143
0.7007760532150776,-0.3719170877499618
0.7341463414634146,-0.6055491274543606
0.7675166297117517,-0.7328994800472717
0.8008869179600887,-0.753205689070598
0.8342572062084257,-0.7063378859777268
0.8676274944567628,-0.6502184051002704
0.9009977827050998,-0.6323703460237372
0.9343680709534368,-0.669411482987655
0.9677383592017739,-0.7429909481088687
1.001108647450111,-0.8120492109107188
1.0344789356984478,-0.8338373294335508
1.067849223946785,-0.7831576396517059
1.101219512195122,-0.6615159812973598
1.134589800443459,-0.4935256498314855
1.167960088691796,-0.3139294167972626
1.2013303769401331,-0.1522911753520265
1.23470066518847,-0.02248542279890201
1.268070953436807,0.07896192953379103
1.3014412416851442,0.166131635296493
1.3348115299334813,0.252825793175389
1.3681818181818182,0.343289706766964
1.4015521064301553,0.42899417659544103
1.4349223946784924,0.4926441010307855
1.4682926829268292,0.516959394495259
1.5016629711751663,0.4935463375661135
1.5350332594235034,0.4273297312161748
1.5684035476718403,0.33437284562591507
1.6017738359201774,0.23427850362067787
1.6351441241685145,0.14112647645213805
1.6685144124168514,0.057750221521873334
1.7018847006651885,-0.023371427502419606
1.7352549889135256,-0.1126394886364565
1.7686252771618625,-0.21291598102270792
1.8019955654101996,-0.31189323019723364
1.8353658536585367,-0.38225039990222565
1.8687361419068735,-0.39102318973388417
1.9021064301552106,-0.31475474134550124
1.9354767184035477,-0.1533736361787471
1.9688470066518848,0.06447568010783562
2.002217294900222,0.2882715302182235
2.035587583148559,0.4624284646533154
2.0689578713968957,0.5459782032174508
2.102328159645233,0.5266414957626226
2.13569844789357,0.42360935008935446
2.1690687361419068,0.27861441998437453
2.202439024390244,0.13977467251235304
2.235809312638581,0.04500994832319791
2.269179600886918,0.01102216337456332
2.302549889135255,0.03089448627024434
2.335920177383592,0.07992685315689449
2.369290465631929,0.12669224054994907
2.4026607538802662,0.14505442208439973
2.436031042128603,0.1230311259276925
2.46940133037694,0.06566772655470152
2.5027716186252773,-0.008811815320898132
2.536141906873614,-0.07786596752630302
2.569512195121951,-0.1247856691716793
2.6028824833702884,-0.14574971345781076
2.6362527716186253,-0.1506457142984553
2.6696230598669626,-0.1573298772400617
2.7029933481152995,-0.18211630159129233
2.7363636363636363,-0.23112904638619677
2.7697339246119737,-0.29673162321065855
2.8031042128603105,-0.36076116312524614
2.8364745011086474,-0.40298861650512946
2.8698447893569847,-0.41071147294723215
2.9032150776053216,-0.38482269701423066
2.9365853658536585,-0.3393133300062797
2.969955654101996,-0.29421992212825704
3.0033259423503327,-0.26516844875512285
3.0366962305986696,-0.2544705048067481
3.070066518847007,-0.24829106533753462
3.1034368070953438,-0.221786904965615
3.1368070953436806,-0.150405242776779
3.170177383592018,-0.022448006736278087
3.203547671840355,0.15290990471615074
3.2369179600886917,0.34614247151949307
3.270288248337029,0.5166499412351419
3.303658536585366,0.6270521554380685
3.337028824833703,0.6565214420090616
3.37039911308204,0.6076821720740884
3.403769401330377,0.5045022514071973
3.437139689578714,0.38243911529555547
3.470509977827051,0.27512259477127643
3.503880266075388,0.20286543342028995
3.537250554323725,0.167118471949945
3.5706208425720622,0.15237908686810747
3.603991130820399,0.13419185663292307
3.637361419068736,0.08981102965799562
3.6707317073170733,0.007441396614160961
3.70410199556541,-0.10918398256962525
3.737472283813747,-0.24219736917035034
3.7708425720620844,-0.36598771329477287
3.8042128603104213,-0.4558396369891515
3.8375831485587586,-0.49546058434910867
3.8709534368070955,-0.4807897770184919
3.9043237250554323,-0.419217941754155
3.9376940133037697,-0.3252650184899605
3.9710643015521065,-0.21502423549016644
4.004434589800444,-0.10180542252041669
4.037804878048781,0.005532080260482284
4.071175166297118,0.10155450156814667
4.1045454545454545,0.18185944563617976
4.137915742793791,0.24119169407847849
4.171286031042128,0.27348360035560165
4.204656319290466,0.2739971251542962
4.238026607538803,0.2424044253571555
4.27139689578714,0.184948197718974
4.304767184035477,0.11416377794129987
4.3381374722838135,0.045832934990628904
4.371507760532151,-0.005767329845656275
4.404878048780488,-0.03237546060426188
4.438248337028825,-0.03411596032456318
4.471618625277162,-0.018749424908753386
4.504988913525499,0.0018403808140080294
4.538359201773836,0.01642106304920863
4.571729490022173,0.018487841410531853
4.60509977827051,0.008065827512136888
4.638470066518847,-0.009332977264700679
4.671840354767184,-0.026005010531634315
4.705210643015521,-0.036138137757889204
4.738580931263858,-0.03890578761043539
4.771951219512196,-0.039117096218328685
4.8053215077605325,-0.044877203637258396
4.838691796008869,-0.06302991356196563
4.872062084257206,-0.09444466804816751
4.905432372505543,-0.1317713060178214
4.93880266075388,-0.1614985128776101
4.972172949002218,-0.17003592040509774
5.005543237250555,-0.15105462867034689
5.0389135254988915,-0.10998462291480185
5.072283813747228,-0.06251208293382661
5.105654101995565,-0.027001158825162342
5.139024390243902,-0.014408374195095218
5.17239467849224,-0.021265466610105914
5.205764966740577,-0.030208187431482666
5.239135254988914,-0.018626063969051792
5.2725055432372505,0.028627617302019046
5.305875831485587,0.10920248908829269
5.339246119733925,0.20165340632770803
5.372616407982262,0.2737781409456263
5.405986696230599,0.2971243328813206
5.439356984478936,0.26051025018476504
5.472727272727273,0.17575490851136494
5.5060975609756095,0.07273181654622672
5.539467849223947,-0.013732985099975253
5.572838137472284,-0.058548945362837904
5.606208425720621,-0.05547573905491144
5.639578713968958,-0.016643061023861046
5.672949002217295,0.03637818923928256
5.706319290465632,0.08438658978986655
5.7396895787139695,0.11840751484387951
5.773059866962306,0.13937786596618237
5.806430155210643,0.15052757838304684
5.83980044345898,0.1479996744911351
5.873170731707317,0.11670754436512423
5.906541019955654,0.03561735561403453
5.939911308203992,-0.10900168313891498
5.9732815964523285,-0.3091129944957393
6.006651884700665,-0.5278385955268228
6.040022172949002,-0.705577576958424
6.073392461197339,-0.7789903731848857
6.106762749445676,-0.7060737115496014
6.140133037694014,-0.48682025878467083
6.173503325942351,-0.1696577036105052
6.2068736141906875,0.16109133062580788
6.240243902439024,0.41380666810012
6.273614190687361,0.523894019592234
6.306984478935698,0.47969516555597136
6.340354767184036,0.32803970562538043
6.373725055432373,0.1555930729196101
6.40709534368071,0.05292294410529067
6.4404656319290465,0.07648539706035988
6.473835920177383,0.22517629966842695
6.507206208425721,0.44171393357476985
6.540576496674058,0.637936235804984
6.573946784922395,0.7324879565513494
6.607317073170732,0.6842450243062481
6.640687361419069,0.507279565822522
6.674057649667406,0.2617668907023052
6.707427937915743,0.025899277657951414
6.74079822616408,-0.1381628610424962
6.774168514412417,-0.20934693234697474
6.807538802660754,-0.213408402501962
6.840909090909091,-0.20783021792353096
6.874279379157428,-0.25328561836480185
6.9076496674057655,-0.38437717327701787
6.941019955654102,-0.5921402361662332
6.974390243902439,-0.8255017949266409
7.007760532150776,-1.0108744925718243
7.041130820399113,-1.0815654030365034
7.07450110864745,-1.0046401524515571
7.107871396895788,-0.793972607129754
7.1412416851441245,-0.5041161945156852
7.174611973392461,-0.2079688586708306
7.207982261640798,0.031693253600215375
7.241352549889135,0.18421454045029745
7.274722838137472,0.25736418318657905
7.30809312638581,0.28640760723555003
7.341463414634147,0.31257714199651776
7.3748337028824835,0.3621046603089801
7.40820399113082,0.435715595168543
7.441574279379157,0.5124119430224962
7.474944567627494,0.5639653401364388
7.508314855875832,0.5717029530166122
7.541685144124169,0.537061711702506
7.575055432372506,0.48143964489569296
7.6084257206208425,0.43644496733272165
7.641796008869179,0.42977305305092833
7.675166297117517,0.4729980858662996
7.708536585365854,0.5558174449243308
7.741906873614191,0.6482474099127614
7.775277161862528,0.7095021824779004
7.808647450110865,0.700556550029427
7.842017738359202,0.5966455940136631
7.875388026607539,0.39594466005707324
7.908758314855876,0.12147601684560315
7.942128603104213,-0.18483242204163086
7.97549889135255,-0.4742529077436791
8.008869179600888,-0.705252932216625
8.042239467849225,-0.8541271811139997
8.075609756097561,-0.9184685198365602
8.108980044345898,-0.9129994757437736
8.142350332594235,-0.8607261833595576
8.175720620842572,-0.7840721273544724
8.209090909090909,-0.6997611714584001
8.242461197339246,-0.6184274182783166
8.275831485587583,-0.546988594476657
8.30920177383592,-0.490493637380162
8.342572062084257,-0.4511644213329411
8.375942350332595,-0.42495958510818643
8.409312638580932,-0.39847093526990507
8.442682926829269,-0.3496587938088895
8.476053215077606,-0.2542324602770099
8.509423503325943,-0.09620181369487117
8.54279379157428,0.12190476301815485
8.576164079822616,0.3745868185795762
8.609534368070953,0.6181235151868303
8.64290465631929,0.8038529791163583
8.676274944567627,0.895084379440996
8.709645232815964,0.8806078504387781
8.743015521064303,0.7788600565816621
8.77638580931264,0.6306984235281173
8.809756097560976,0.4836759752998934
8.843126385809313,0.3744345340148762
8.87649667405765,0.3165957716243374
8.909866962305987,0.2989047653174272
8.943237250554324,0.2935877915613182
8.97660753880266,0.27030798597932737
9.009977827050998,0.2090637619836065
9.043348115299334,0.10678413514306163
9.076718403547671,-0.02384528686664403
9.110088691796008,-0.16099314264517703
9.143458980044347,-0.2816567210169829
9.176829268292684,-0.36775917532219926
9.21019955654102,-0.409347360242579
9.243569844789358,-0.4056236046298168
9.276940133037694,-0.3647435942258529
9.310310421286031,-0.3023493260362046
9.343680709534368,-0.23806733289723997
9.377050997782705,-0.18977346847069296
9.410421286031042,-0.1671016083393723
9.443791574279379,-0.16710757494044373
9.477161862527716,-0.17482141049742345
9.510532150776053,-0.16935769288297728
9.543902439024391,-0.13337223855917907
9.577272727272728,-0.06163957371453489
9.610643015521065,0.03539389940641613
9.644013303769402,0.13499280527593585
9.677383592017739,0.2110830160252959
9.710753880266076,0.24472085297657994
9.744124168514412,0.23129077530418615
9.77749445676275,0.18121218667168876
9.810864745011086,0.11407469741018601
9.844235033259423,0.04931407377159615
9.87760532150776,-0.0018004269200919915
9.910975609756099,-0.0388770178560714
9.944345898004435,-0.06874443796247803
9.977716186252772,-0.09795506061074229
10.01108647450111,-0.1262599440274261
10.044456762749446,-0.14542896409354059
10.077827050997783,-0.1446737600293555
10.11119733924612,-0.11976728139596567
10.144567627494457,-0.08014506828545061
10.177937915742794,-0.04865991622863077
10.21130820399113,-0.05238108015311867
10.244678492239467,-0.10805536420320715
10.278048780487804,-0.20965254216883536
10.311419068736143,-0.32538971273148753
10.34478935698448,-0.40736683620394143
10.378159645232817,-0.41049312044279673
10.411529933481154,-0.3122149749377086
10.44490022172949,-0.12361059438737942
10.478270509977827,0.11363928222969183
10.511640798226164,0.3430925471807715
10.545011086474501,0.5148095369088079
10.578381374722838,0.6024201631145824
10.611751662971175,0.6089674558532441
10.645121951219512,0.5603109172775246
10.67849223946785,0.4907167850206389
10.711862527716187,0.42818020287109326
10.745232815964524,0.3858553790395306
10.778603104212861,0.36183847060819796
10.811973392461198,0.34505020616177484
10.845343680709535,0.32257248006332556
10.878713968957872,0.28444191673521696
10.912084257206208,0.22462522822917041
10.945454545454545,0.13966251950461187
10.978824833702882,0.02757185146757634
11.012195121951219,-0.11130100597946192
11.045565410199556,-0.2717683451636007
11.078935698447895,-0.441474748394436
11.112305986696231,-0.6008391429050433
11.145676274944568,-0.7262439213188897
11.179046563192905,-0.7958011830007832
11.212416851441242,-0.7957498307875366
11.245787139689579,-0.725166814866573
11.279157427937916,-0.5972135998358595
11.312527716186253,-0.43626607905448583
11.34589800443459,-0.2716180220104372
11.379268292682926,-0.12965239161376937
11.412638580931263,-0.027053248584155257
11.4460088691796,0.03259252414296818
11.479379157427939,0.057693308655301805
11.512749445676276,0.06379738055004973
11.546119733924613,0.06734583228145924
11.57949002217295,0.08086812578663195
11.612860310421286,0.11141707122378201
11.646230598669623,0.16199702001292232
11.67960088691796,0.23388556513954162
11.712971175166297,0.3272872507151876
11.746341463414634,0.43909757882523637
11.77971175166297,0.5589466215288611
11.813082039911308,0.6666049607602818
11.846452328159646,0.7338994542304764
11.879822616407983,0.7321847754637492
11.91319290465632,0.6431681052736421
11.946563192904657,0.468334737250475
11.979933481152994,0.23201163650800755
12.01330376940133,-0.024335628658567143
12.046674057649668,-0.25482423273917365
12.080044345898004,-0.4236321560879315
12.113414634146341,-0.5150970957302442
12.146784922394678,-0.5355544797563138
12.180155210643015,-0.5070579610259649
12.213525498891352,-0.4566278364180099
12.24689578713969,-0.40592167131951323
12.280266075388028,-0.3650279093559178
12.313636363636364,-0.3316238623451734
12.347006651884701,-0.29453623770644294
12.380376940133038,-0.2396653555755468
12.413747228381375,-0.1562055544557971
12.447117516629712,-0.041526007960698996
12.480487804878049,0.09647352376466495
12.513858093126386,0.24024537660590226
12.547228381374723,0.3667093996512711
12.58059866962306,0.4536028780456931
12.613968957871396,0.486143393521438
12.647339246119735,0.46172515207118103
12.680709534368072,0.3908665549398674
12.714079822616409,0.2938675098870007
12.747450110864746,0.1941687440614177
12.780820399113082,0.1106522564034153
12.81419068736142,0.0515978169245857
12.847560975609756,0.012505694599874911
12.880931263858093,-0.021332886214809763
12.91430155210643,-0.06831703709892341
12.947671840354767,-0.1423083471395001
12.981042128603104,-0.24564534701041765
13.014412416851442,-0.36609423502786587
13.04778270509978,-0.47922310440375687
13.081152993348116,-0.5558088623966689
13.114523281596453,-0.5718890646031045
13.14789356984479,-0.517730987440527
13.181263858093127,-0.4020473257317374
13.214634146341464,-0.2495029458135259
13.2480044345898,-0.09236597113872665
13.281374722838137,0.040231510236065214
13.314745011086474,0.13092420876156044
13.348115299334811,0.1773072896415207
13.381485587583148,0.18912214292791119
13.414855875831487,0.1816474593222633
13.448226164079824,0.1687965694699527
13.48159645232816,0.15873609333206992
13.514966740576497,0.15299248928263873
13.548337028824834,0.14836692879838437
13.581707317073171,0.14036107154725208
13.615077605321508,0.12699826664512745
13.648447893569845,0.11208377064882429
13.681818181818182,0.10662768362117302
13.715188470066519,0.12682627006272096
13.748558758314855,0.18767215737901347
13.781929046563192,0.293432707808192
13.815299334811531,0.42904185158788577
13.848669623059868,0.5579186454569981
13.882039911308205,0.6300873771170834
13.915410199556542,0.5997063035847677
13.948780487804878,0.44547381956894794
13.982150776053215,0.1843083009230084
14.015521064301552,-0.1294038762448868
14.048891352549889,-0.42027919799136876
14.082261640798226,-0.6177993821586555
14.115631929046563,-0.6806385553457169
14.1490022172949,-0.6093910905054759
14.182372505543238,-0.44322470963708527
14.215742793791575,-0.24311044664035736
14.249113082039912,-0.06943088151305588
14.282483370288249,0.03701099924115493
14.315853658536586,0.0640948149836577
14.349223946784923,0.02576647781367072
14.38259423503326,-0.04939930858703192
14.415964523281596,-0.13247076212961867
14.449334811529933,-0.2048415188226352
14.48270509977827,-0.2611972707650216
14.516075388026607,-0.3046762016785227
14.549445676274944,-0.3380532440715975
14.582815964523283,-0.3566299911028406
14.61618625277162,-0.3472862220568753
14.649556541019956,-0.2944571146620218
14.682926829268293,-0.1896699382906264
14.71629711751663,-0.039064059063113776
14.749667405764967,0.13566906119880578
14.783037694013304,0.3038412746511618
14.81640798226164,0.43661163375348405
14.849778270509978,0.5167165062084588
14.883148558758315,0.5425771008576178
14.916518847006651,0.5255373146282538
14.949889135254988,0.4825758207153979
14.983259423503327,0.4287088256867395
15.016629711751664,0.3725950992620084
15.05,0.3163147368308227
15.083370288248338,0.25770739969793827
15.116740576496674,0.19268648305189012
15.150110864745011,0.11604056006576416
15.183481152993348,0.021349408131014512
15.216851441241685,-0.09798504767113837
15.250221729490022,-0.24514084871612687
15.283592017738359,-0.4144325433245128
15.316962305986696,-0.586973262827167
15.350332594235034,-0.7309772634234245
15.383702882483371,-0.808546978019815
15.417073170731708,-0.787659015794387
15.450443458980045,-0.6551720973885929
15.483813747228382,-0.42548963141890667
15.517184035476719,-0.14057256583010178
15.550554323725056,0.14007992999822072
15.583924611973393,0.35708827862583503
15.61729490022173,0.4707595926836242
15.650665188470066,0.4752592501957759
15.684035476718403,0.40121550997841854
15.71740576496674,0.3044835807636331
15.750776053215079,0.24428544529588414
15.784146341463416,0.25884042929928325
15.817516629711752,0.34856008917985576
15.85088691796009,0.4745414919307989
15.884257206208426,0.5739771182928803
15.917627494456763,0.5866659220524868
15.9509977827051,0.48147596760922623
15.984368070953437,0.2711117832628423
16.017738359201775,0.00844862535475535
16.05110864745011,-0.23409325262473601
16.08447893569845,-0.3930424615987942
16.117849223946784,-0.4378348509698835
16.151219512195123,-0.3803488712851127
16.184589800443458,-0.26698842420112057
16.217960088691797,-0.15793201379776076
16.251330376940132,-0.10303516890035738
16.28470066518847,-0.12417258538426283
16.31807095343681,-0.21008109787979562
16.351441241685144,-0.3241657031896326
16.384811529933483,-0.4207446635427028
16.418181818181818,-0.46262230562602935
16.451552106430157,-0.4333132190104865
16.48492239467849,-0.34017095933682717
16.51829268292683,-0.20870676450923997
16.551662971175165,-0.07177164940486543
16.585033259423504,0.04138671966239238
16.61840354767184,0.11228033132507607
16.651773835920178,0.13529644333601942
16.685144124168513,0.11606314384060205
16.71851441241685,0.0683522816016002
16.75188470066519,0.011002688459610608
16.785254988913525,-0.03519890662133295
16.818625277161864,-0.05150951000286093
16.8519955654102,-0.02616769031533874
16.885365853658538,0.04127713561661761
16.918736141906873,0.1387645139145782
16.95210643015521,0.24532252437329494
16.985476718403547,0.3386879577877865
17.018847006651885,0.40362960995119573
17.05221729490022,0.43678311979150136
17.08558758314856,0.44536561175248335
17.118957871396898,0.4403802424683393
17.152328159645233,0.42802525696972216
17.18569844789357,0.4041976737409783
17.219068736141907,0.3555024445019286
17.252439024390245,0.26677062170532734
17.28580931263858,0.13150845164058353
