Frequency (Hz),Amplitude
0.0,5.451163849172173
0.019823788546255508,5.448582238998237
0.039647577092511016,5.440840268138301
0.059471365638766524,5.4279465159869345
0.07929515418502203,5.409915282963733
0.09911894273127755,5.3867665928847535
0.11894273127753305,5.358526196748024
0.13876651982378857,5.325225578415819
0.15859030837004406,5.286901962841447
0.17841409691629956,5.2435983276745715
0.1982378854625551,5.19536341929372
0.2180616740088106,5.1422517745666525
0.2378854625550661,5.084323749938672
0.25770925110132165,5.0216455598081895
0.27753303964757714,4.954289326585573
0.29735682819383263,4.882333145365043
0.31718061674008813,4.805861166797891
0.3370044052863437,4.724963702573104
0.3568281938325991,4.639737358933548
0.37665198237885467,4.550285204942297
0.3964757709251102,4.456716983841891
0.41629955947136565,4.359149377924401
0.4361233480176212,4.257706339990013
0.4559471365638767,4.152519507904287
0.4757709251101322,4.0437287232208785
0.49559471365638774,3.931482680662576
0.5154185022026433,3.815939742918365
0.5352422907488987,3.6972689653670328
0.5550660792951543,3.5756513888764885
0.5748898678414097,3.451281676999488
0.5947136563876653,3.3243701984348615
0.6145374449339208,3.19514568898466
0.6343612334801763,3.0638586728189763
0.6541850220264318,2.9307858854023316
0.6740088105726874,2.796236026463848
0.6938325991189428,2.660557289696341
0.7136563876651982,2.5241472777899703
0.7334801762114539,2.3874661303661795
0.7533039647577093,2.251053981167357
0.7731277533039648,2.115554223273571
0.7929515418502204,1.9817444702830216
0.8127753303964759,1.850577448648091
0.8325991189427313,1.723234039671652
0.8524229074889869,1.6011895918538621
0.8722466960352424,1.4862909378830813
0.8920704845814978,1.3808325581664114
0.9118942731277534,1.287602383863147
0.931718061674009,1.2098395544371465
0.9515418502202644,1.15101942945758
0.9713656387665199,1.1143944882122347
0.9911894273127755,1.1023304606544757
1.0110132158590308,1.1156740447415945
1.0308370044052866,1.153495488080576
1.0506607929515421,1.2133707947364396
1.0704845814977975,1.292023573094563
1.090308370044053,1.38598263649706
1.1101321585903086,1.4920286417411428
1.1299559471365639,1.6073985456480049
1.1497797356828194,1.7298217450184568
1.1696035242290752,1.857471745615056
1.1894273127753305,1.9888894989297443
1.209251101321586,2.1229067754907143
1.2290748898678416,2.258580512958473
1.248898678414097,2.3951404292594303
1.2687224669603525,2.5319486840785816
1.288546255506608,2.6684693538454143
1.3083700440528636,2.8042454982686964
1.3281938325991192,2.9388819512741775
1.3480176211453747,3.0720323773950726
1.36784140969163,3.203389493544263
1.3876651982378856,3.332677641130089
1.4074889867841411,3.459647109238088
1.4273127753303965,3.5840697690281327
1.4471365638766522,3.7057356959363
1.4669603524229078,3.824450540937989
1.4867841409691631,3.940033473686453
1.5066079295154187,4.052315565213215
1.5264317180616742,4.1611385107274135
1.5462555066079295,4.266353617230917
1.5660792951541853,4.367820998570298
1.5859030837004409,4.4654089338907195
1.6057268722466962,4.558993355466624
1.6255506607929517,4.6484574394444165
1.6453744493392073,4.733691278779496
1.6651982378854626,4.814591622049201
1.6850220264317182,4.891061665211102
1.7048458149779737,4.963010886003566
1.7246696035242293,5.030354912734747
1.7444933920704848,5.093015420815495
1.7643171806167404,5.150920051663215
1.7841409691629957,5.204002349614046
1.8039647577092512,5.252201713289956
1.8237885462555068,5.295463358518526
1.8436123348017623,5.333738290431751
1.863436123348018,5.36698328280221
1.8832599118942732,5.3951608630311805
1.9030837004405288,5.418239301499565
1.9229074889867843,5.436192604242543
1.9427312775330399,5.449000508121857
1.9625550660792954,5.456648477854397
1.982378854625551,5.459127704419586
2.002202643171806,5.456435104515701
2.0220264317180616,5.448573320872671
2.041850220264317,5.435550723360198
2.061674008810573,5.4173814109590515
2.0814977973568287,5.39408521479552
2.1013215859030843,5.365687702576197
2.1211453744493394,5.332220184909943
2.140969162995595,5.293719724168539
2.1607929515418505,5.25022914672432
2.180616740088106,5.201797059619438
2.2004405286343616,5.148477872973775
2.220264317180617,5.090331829740181
2.2400881057268722,5.027425044777082
2.2599118942731278,4.959829555648002
2.2797356828193833,4.887623388095387
2.299559471365639,4.810890639799537
2.319383259911895,4.729721586858164
2.3392070484581504,4.644212818453042
2.3590308370044055,4.5544674064685875
2.378854625550661,4.460595118471665
2.3986784140969166,4.362712684557987
2.418502202643172,4.260944131260468
2.4383259911894277,4.155421199186281
2.4581497797356833,4.046283865561754
2.4779735682819384,3.933680998765548
2.497797356828194,3.8177711797015177
2.5176211453744495,3.698723735164296
2.537444933920705,3.576720042098742
2.5572687224669606,3.4519551801265385
2.577092511013216,3.3246400346914493
2.5969162995594717,3.195003987159397
2.6167400881057272,3.0632983746978124
2.6365638766519828,2.929800966630759
2.6563876651982383,2.794821791949011
2.676211453744494,2.658710773838167
2.6960352422907494,2.5218677932392484
2.715859030837005,2.384756028569791
2.73568281938326,2.2479197162774622
2.7555066079295156,2.11200785120765
2.775330396475771,1.9778057695897122
2.7951541850220267,1.8462769186996302
2.8149779735682823,1.7186171022624668
2.834801762114538,1.5963223512132076
2.854625550660793,1.4812677278663564
2.874449339207049,1.3757849802953919
2.8942731277533045,1.2827082139924448
2.91409691629956,1.2053274304601866
2.9339207048458156,1.1471622630171279
2.953744493392071,1.1114842266843132
2.9735682819383262,1.1006342566945222
2.993392070484582,1.1153866955813079
3.0132158590308373,1.1547116709845477
3.033039647577093,1.2160895568956438
3.0528634361233484,1.2961763247389149
3.072687224669604,1.3914661969617
3.092511013215859,1.4987306755498528
3.1123348017621146,1.615212352091756
3.1321585903083706,1.738652731417317
3.151982378854626,1.8672389472251574
3.1718061674008817,1.9995246906504258
3.1916299559471373,2.1343526747888353
3.2114537444933924,2.270788826044224
3.231277533039648,2.408070062668717
3.2511013215859035,2.5455642266315146
3.270925110132159,2.682739835824989
3.2907488986784146,2.8191433965919823
3.31057268722467,2.9543823992218314
3.3303964757709252,3.088112538969518
3.350220264317181,3.220028068133548
3.3700440528634363,3.3498544705221125
3.389867841409692,3.4773428648428424
3.4096916299559474,3.6022657020230033
3.4295154185022034,3.7244134369348276
3.4493392070484585,3.8435919388190176
3.469162995594714,3.9596204655646288
3.4889867841409696,4.0723300713309065
3.508810572687225,4.181562349426245
3.5286343612334807,4.287168436217188
3.5484581497797363,4.3890082195000675
3.5682819383259914,4.48694970792521
3.588105726872247,4.5808685279325525
3.6079295154185025,4.670647522109398
3.627753303964758,4.756176428546283
3.6475770925110136,4.837351625102146
3.667400881057269,4.91407592582986
3.6872246696035247,4.986258419402114
3.7070484581497802,5.053814341398019
3.726872246696036,5.116664973896917
3.7466960352422913,5.174737567079196
3.7665198237885464,5.22796527853049
3.7863436123348024,5.27628712674289
3.8061674008810575,5.31964795594954
3.8259911894273135,5.357998409949989
3.8458149779735686,5.3912949130100625
3.8656387665198246,5.419499656271322
3.8854625550660797,5.442580588397996
3.905286343612335,5.460511409435931
3.925110132158591,5.473271567068654
3.9449339207048464,5.480846254638374
3.964757709251102,5.483226410461787
3.9845814977973575,5.4804087181167755
4.004405286343612,5.472395607512338
4.024229074889869,5.459195256684438
4.044052863436123,5.4408215943887965
4.06387665198238,5.417294303692636
4.083700440528634,5.388638826904983
4.103524229074891,5.354886372333617
4.123348017621146,5.316073923521512
4.143171806167401,5.272244251802751
4.162995594713657,5.223445933233471
4.182819383259912,5.169733371207213
4.2026431718061685,5.111166826365456
4.222466960352423,5.047812455777151
4.242290748898679,4.979742363801891
4.262114537444934,4.907034667591343
4.28193832599119,4.829773580850747
4.301762114537445,4.748049520310964
4.321585903083701,4.6619592403997565
4.3414096916299565,4.5716060029077985
4.361233480176212,4.477099790102868
4.381057268722468,4.378557571859731
4.400881057268723,4.276103640088857
4.420704845814979,4.169870027255345
4.440528634361234,4.059997030343902
4.46035242290749,3.946633867602022
4.4801762114537445,3.8299395032725614
4.500000000000001,3.710083685985693
4.5198237885462555,3.587248260458268
4.539647577092512,3.4616288309590755
4.559471365638767,3.333436880479313
4.579295154185023,3.2029024842833405
4.599118942731278,3.0702778041352814
4.618942731277533,2.935841615084446
4.63876651982379,2.7999052072959922
4.658590308370044,2.6628201306108155
4.678414096916301,2.5249884218355234
4.6982378854625555,2.3868761893190684
4.718061674008811,2.2490317412296994
4.737885462555067,2.1121098394526077
4.757709251101322,1.9769041147451223
4.777533039647578,1.8443900779677334
4.797356828193833,1.7157811834574934
4.817180616740089,1.5925992605079156
4.837004405286344,1.4767566544637618
4.856828193832599,1.3706375538577455
4.876651982378855,1.277146080270364
4.896475770925111,1.1996573879593697
4.9162995594713665,1.141778645204437
4.936123348017622,1.106844851463813
4.955947136563877,1.0972036412762491
4.975770925110133,1.113561903966832
4.995594713656388,1.1547651207841354
5.015418502202644,1.2181546779356758
5.035242290748899,1.3002722968000122
5.055066079295155,1.3975386591332677
5.07488986784141,1.5066884194142
5.094713656387666,1.6249522108632295
5.114537444933921,1.7500733986256434
5.134361233480177,1.8802472408944821
5.154185022026432,2.0140375011020213
5.174008810572688,2.15029676377413
5.193832599118943,2.2880997174411917
5.213656387665199,2.4266906632007315
5.2334801762114544,2.5654434739596224
5.25330396475771,2.703831493584717
5.2731277533039655,2.8414050295429925
5.292951541850221,2.9777745230661776
5.312775330396477,3.1125979245194744
5.332599118942731,3.2455711758013943
5.352422907488988,3.376420992241968
5.372246696035242,3.504899353459137
5.392070484581499,3.63077927148221
5.4118942731277535,3.7538515197001887
5.43171806167401,3.8739220895826034
5.451541850220265,3.990810202524957
5.47136563876652,4.104346748075869
5.491189427312777,4.2143730518738804
5.511013215859031,4.32073990018567
5.530837004405288,4.423306765361906
5.550660792951542,4.5219411894976975
5.570484581497798,4.616518293307002
5.5903083700440535,4.706920384557486
5.610132158590309,4.793036645987255
5.6299559471365646,4.874762886889963
5.64977973568282,4.952001345838763
5.669603524229076,5.024660534565126
5.689427312775331,5.092655114994491
5.709251101321586,5.15590580299904
5.729074889867842,5.214339293660194
5.748898678414098,5.267888203811682
5.768722466960353,5.316491028418293
5.788546255506609,5.360092107976014
5.808370044052864,5.398641604631918
5.82819383259912,5.432095485140559
5.848017621145375,5.460415509119304
5.867841409691631,5.4835692213527425
5.887665198237886,5.501529947138696
5.907488986784142,5.51427678987579
5.927312775330397,5.521794630272197
5.9471365638766525,5.524074126714919
5.966960352422908,5.521111716483141
5.986784140969164,5.512909617623561
6.00660792951542,5.499475831434649
6.026431718061675,5.480824145633516
6.04625550660793,5.456974138409251
6.066079295154186,5.427951183702571
6.085903083700441,5.393786458199821
6.105726872246697,5.354516950692682
6.125550660792952,5.310185474641685
6.145374449339208,5.260840684996236
6.1651982378854635,5.206537100577567
6.185022026431718,5.147335133631397
6.204845814977975,5.083301128520623
6.224669603524229,5.014507411968839
6.244493392070486,4.941032357806468
6.264317180616741,4.862960469839623
6.284140969162996,4.780382487292994
6.303964757709252,4.693395518320293
6.323788546255507,4.6021032083888604
6.3436123348017635,4.506615952012617
6.363436123348018,4.407051158436602
6.3832599118942746,4.303533584613556
6.403083700440529,4.196195752355085
6.422907488986785,4.085178471153278
6.44273127753304,3.9706314942193464
6.462555066079296,3.852714343275274
6.482378854625551,3.7315973482599305
6.502202643171807,3.60746296233945
6.5220264317180625,3.4805074318027076
6.541850220264318,3.350942926482811
6.561674008810574,3.2190002719713386
6.581497797356829,3.0849324738860826
6.601321585903085,2.949019292178699
6.62114537444934,2.8115732174158192
6.640969162995596,2.672947331427365
6.6607929515418505,2.5335457153371563
6.680616740088107,2.393837315654751
6.700440528634362,2.2543745115320437
6.720264317180618,2.1158180535602873
6.740088105726873,1.9789705455971394
6.759911894273129,1.8448211060871724
6.779735682819384,1.7146039436881757
6.799559471365639,1.5898724907448851
6.819383259911895,1.4725866593177677
6.83920704845815,1.3652003568594384
6.859030837004407,1.2707149204989658
6.8788546255506615,1.1926297006873874
6.898678414096917,1.1346881200571444
6.918502202643173,1.1003371576621335
6.938325991189428,1.0919622922672996
6.958149779735684,1.110201726409999
6.977973568281939,1.153742131053867
6.997797356828195,1.2197337675979432
7.01762114537445,1.3045523763129412
7.037444933920705,1.4045046774726164
7.0572687224669615,1.5162615168963751
7.077092511013216,1.6370255422254274
7.096916299559473,1.7645333468650235
7.116740088105728,1.8969841656542832
7.136563876651983,2.0329502036693983
7.156387665198239,2.171293602683294
7.176211453744494,2.3110981266246733
7.19603524229075,2.4516160225418746
7.215859030837005,2.592227809568908
7.235682819383261,2.732412227995254
7.255506607929516,2.871723869758501
7.275330396475772,3.009776509944204
7.295154185022027,3.1462306377939475
7.314977973568283,3.280784077549258
7.334801762114538,3.413164888578212
7.354625550660794,3.54312595502031
7.374449339207049,3.670440835510539
7.394273127753305,3.7949005591663
7.4140969162995605,3.9163111372952137
7.433920704845816,4.034491620381989
7.453744493392072,4.14927257346909
7.473568281938327,4.260494874785983
7.493392070484583,4.368008765756289
7.513215859030838,4.47167309769449
7.533039647577093,4.571354733277107
7.552863436123348,4.666928070435776
7.572687224669605,4.758274663529335
7.59251101321586,4.845282922125627
7.612334801762115,4.927847871907791
7.6321585903083715,5.005870965439819
7.651982378854627,5.079259933020684
7.671806167400882,5.147928665801209
7.691629955947137,5.2117971248644235
7.711453744493394,5.2707912711751295
7.731277533039649,5.324843012263144
7.751101321585904,5.373890162270446
7.7709251101321595,5.417876412610771
7.790748898678416,5.45675131099031
7.81057268722467,5.490470246948458
7.830396475770926,5.51899444241506
7.850220264317182,5.542290946062304
7.870044052863436,5.5603326304666485
7.889867841409693,5.5730981912990885
7.909691629955948,5.580572147938321
7.929515418502204,5.582744845057627
7.9493392070484585,5.579612454878044
7.969162995594715,5.571176979912274
7.9889867841409705,5.557446256150707
8.008810572687224,5.538433956765764
8.02863436123348,5.514159596539156
8.048458149779737,5.48464853735118
8.068281938325994,5.449931995217248
8.088105726872246,5.410047049519452
8.107929515418503,5.365036655265128
8.12775330396476,5.314949659418591
8.147577092511014,5.259840822603206
8.167400881057269,5.199770847770921
8.187224669603525,5.134806417797607
8.207048458149782,5.065020244401995
8.226872246696036,4.990491131326057
8.246696035242293,4.911304055381757
8.266519823788547,4.827550269800911
8.286343612334802,4.739327435367672
8.306167400881058,4.646739786129915
8.325991189427315,4.549898338158794
8.345814977973568,4.448921151965966
8.365638766519824,4.34393366194258
8.38546255506608,4.235069089755289
8.405286343612337,4.122468963293251
8.42511013215859,4.006283768882527
8.444933920704846,3.8866737725854845
8.464757709251103,3.7638100572015842
8.484581497797357,3.637875836084386
8.504405286343614,3.509068124500486
8.524229074889869,3.3775998759729764
8.544052863436125,3.243702727707736
8.56387665198238,3.107630549821552
8.583700440528636,2.969664063396834
8.60352422907489,2.8301168904567997
8.623348017621145,2.6893435360302176
8.643171806167402,2.547749993759935
8.662995594713658,2.40580793138292
8.682819383259913,2.2640737725182345
8.702643171806168,2.1232144624851705
8.722466960352424,1.9840422751133528
8.74229074889868,1.8475615821173899
8.762114537444935,1.7150307333962225
8.78193832599119,1.5880412198465894
8.801762114537446,1.4686121534861465
8.821585903083701,1.359287016978583
8.841409691629957,1.2631960522774774
8.861233480176212,1.1840087215015256
8.881057268722468,1.125661988374788
8.900881057268723,1.0917705921056935
8.92070484581498,1.084790281010288
8.940528634361234,1.105281918263053
8.960352422907489,1.1517260189344667
8.980176211453745,1.2210170340695334
9.000000000000002,1.3093053471072604
9.019823788546258,1.4127407007677784
9.039647577092511,1.527903673898831
9.059471365638768,1.6519546333048334
9.079295154185024,1.782616655874552
9.099118942731279,1.9180904158791823
9.118942731277533,2.056956168724971
9.13876651982379,2.198086205474506
9.158590308370046,2.340574324113927
9.1784140969163,2.4836817338307697
9.198237885462555,2.6267965304373435
9.218061674008812,2.769403638416796
9.237885462555067,2.9110625655713247
9.257709251101323,3.0513909025907173
9.27753303964758,3.1900520250361195
9.297356828193834,3.3267458706059942
9.317180616740089,3.4612019752462437
9.337004405286345,3.5931741778591806
9.356828193832602,3.7224365659867154
9.376651982378855,3.8487803512390935
9.396475770925111,3.9720114465800647
9.416299559471367,4.09194857744389
9.436123348017622,4.208421801880214
9.455947136563877,4.321271346318803
9.475770925110133,4.430346686508085
9.49559471365639,4.535505820095262
9.515418502202644,4.636614689866241
9.5352422907489,4.7335467260438495
9.555066079295155,4.826182483105797
9.57488986784141,4.914409351939187
9.594713656387666,4.998121332238458
9.614537444933923,5.077218853197684
9.634361233480178,5.151608632982996
9.654185022026432,5.2212035693669305
9.674008810572689,5.285922655394496
9.693832599118945,5.345690915124744
9.713656387665198,5.400439355424616
9.733480176211454,5.450104930537992
9.75330396475771,5.4946305167536815
9.773127753303967,5.533964894983489
9.792951541850222,5.568062739459961
9.812775330396477,5.596884611092236
9.832599118942733,5.620396954292158
9.852422907488988,5.638572096313986
9.872246696035244,5.651388248348152
9.892070484581499,5.658829507781747
9.911894273127754,5.660885861190225
9.93171806167401,5.657553187763515
9.951541850220266,5.648833262998395
9.971365638766521,5.634733762613079
9.991189427312776,5.615268266762468
10.011013215859032,5.590456264758355
10.030837004405289,5.560323160631147
10.050660792951543,5.524900280013389
10.070484581497798,5.484224878985616
10.090308370044054,5.438340155707154
10.11013215859031,5.387295265865561
10.129955947136565,5.331145343227458
10.14977973568282,5.269951526870041
10.169603524229077,5.203780997031171
10.189427312775331,5.132707021952165
10.209251101321588,5.056809018623983
10.229074889867842,4.976172631011873
10.248898678414099,4.890889830161936
10.268722466960353,4.801059041633904
10.28854625550661,4.706785307020049
10.308370044052865,4.608180487984551
10.32819383259912,4.505363523402962
10.348017621145376,4.398460752948024
10.367841409691632,4.2876063240609525
10.387665198237887,4.172942703945524
10.407488986784141,4.054621324409804
10.427312775330398,3.93280339558986
10.447136563876654,3.807660935562829
10.466960352422909,3.6793780776370992
10.486784140969164,3.548152737168291
10.50660792951542,3.414198747189586
10.526431718061675,3.2777486099601245
10.546255506607931,3.1390570640242985
10.566079295154186,2.9984057397051718
10.585903083700442,2.856109278945347
10.605726872246697,2.712523440533434
10.625550660792953,2.5680559162652203
10.645374449339208,2.4231808702445843
10.665198237885463,2.2784586094635912
10.685022026431719,2.134562323514603
10.704845814977975,1.9923144938210215
10.724669603524232,1.8527362796810072
10.744493392070485,1.7171136115602241
10.764317180616741,1.5870829536703748
10.784140969162998,1.464735587482633
