Frequency (Hz),Amplitude
0.0,1.8039083530522975
0.01978021978021978,1.8033438101513235
0.03956043956043956,1.8016513163993735
0.05934065934065934,1.7988342787852738
0.07912087912087912,1.79489838276382
0.0989010989010989,1.789851603037289
0.11868131868131868,1.7837042187917418
0.13846153846153844,1.7764688335293655
0.15824175824175823,1.7681603996762203
0.17802197802197803,1.7587962481819
0.1978021978021978,1.748396123361511
0.21758241758241756,1.7369822232611416
0.23736263736263735,1.724579245853467
0.2571428571428572,1.7112144413887207
0.2769230769230769,1.6969176712352319
0.2967032967032967,1.6817214735402044
0.31648351648351647,1.6656611360206253
0.3362637362637363,1.648774776151537
0.35604395604395606,1.63110342894716
0.3758241758241758,1.6126911424216728
0.3956043956043956,1.5935850806603495
0.4153846153846154,1.5738356342158473
0.4351648351648351,1.553496537254304
0.45494505494505494,1.532624990493067
0.4747252747252747,1.5112817884769396
0.4945054945054945,1.4895314491092548
0.5142857142857143,1.4674423425630025
0.5340659340659341,1.4450868157197954
0.5538461538461538,1.4225413070958188
0.5736263736263736,1.3998864457931306
0.5934065934065934,1.3772071263505246
0.6131868131868132,1.354592549463839
0.6329670329670329,1.332136216429992
0.6527472527472528,1.3099358629061084
0.6725274725274726,1.2880933152783967
0.6923076923076923,1.2667142507831448
0.7120879120879121,1.2459078407698858
0.7318681318681318,1.225786255488312
0.7516483516483516,1.2064640089470589
0.7714285714285715,1.188057124236652
0.7912087912087912,1.1706821037629556
0.810989010989011,1.1544546955920616
0.8307692307692308,1.139488456903364
0.8505494505494506,1.1258931284398677
0.8703296703296702,1.113772849455243
0.8901098901098901,1.103224260047452
0.9098901098901099,1.0943345553829755
0.9296703296703297,1.0871795720436543
0.9494505494505494,1.0818219981251278
0.9692307692307692,1.078309803386616
0.989010989010989,1.0766749818444525
1.0087912087912088,1.0769326859054982
1.0285714285714287,1.079080809039611
1.0483516483516484,1.0831000451644242
1.0681318681318681,1.0889544206530715
1.087912087912088,1.0965922631184604
1.1076923076923075,1.1059475437219266
1.1274725274725275,1.116941509727319
1.1472527472527472,1.1294845130841875
1.1670329670329669,1.143477939190509
1.1868131868131868,1.1588161465436324
1.2065934065934065,1.1753883406998433
1.2263736263736265,1.1930803223783901
1.2461538461538462,1.2117760672745883
1.2659340659340659,1.2313591122050347
1.2857142857142858,1.251713737194254
1.3054945054945055,1.2727259452394337
1.3252747252747252,1.2942842505007797
1.3450549450549452,1.3162802917011578
1.3648351648351649,1.338609290969498
1.3846153846153846,1.3611703797374368
1.4043956043956045,1.3838668131276957
1.4241758241758242,1.4066060930432083
1.443956043956044,1.4293000182872369
1.4637362637362636,1.4518646778380946
1.4835164835164834,1.4742204011024884
1.5032967032967033,1.4962916767390828
1.523076923076923,1.5180070495786961
1.542857142857143,1.5392990033235836
1.5626373626373626,1.5601038351065277
1.5824175824175823,1.5803615266306354
1.6021978021978023,1.6000156154777518
1.621978021978022,1.6190130692457811
1.6417582417582417,1.6373041644270747
1.6615384615384616,1.6548423713462161
1.6813186813186813,1.6715842460105392
1.7010989010989013,1.6874893293695603
1.720879120879121,1.7025200542090237
1.7406593406593405,1.7166416597060878
1.7604395604395604,1.7298221135287375
1.7802197802197801,1.7420320412641375
1.7999999999999998,1.75324466289678
1.8197802197802198,1.7634357360206308
1.8395604395604395,1.7725835054536294
1.8593406593406594,1.7806686589226763
1.879120879120879,1.7876742884990589
1.8989010989010988,1.7935858574847907
1.9186813186813187,1.79839117247745
1.9384615384615385,1.8020803603727535
1.9582417582417584,1.8046458500992841
1.978021978021978,1.8060823589171975
1.9978021978021978,1.8063868831517456
2.0175824175824175,1.8055586932726808
2.0373626373626372,1.8035993332712903
2.0571428571428574,1.8005126243281353
2.076923076923077,1.7963046728058691
2.096703296703297,1.7909838826426965
2.1164835164835165,1.7845609722629832
2.1362637362637362,1.7770489961617357
2.1560439560439564,1.7684633713586164
2.175824175824176,1.758821908954502
2.195604395604396,1.7481448510582833
2.215384615384615,1.7364549133824214
2.2351648351648348,1.7237773338314735
2.254945054945055,1.7101399274259999
2.2747252747252746,1.6955731479125054
2.2945054945054943,1.68011015640492
2.314285714285714,1.663786897379829
2.3340659340659338,1.646642182301146
2.353846153846154,1.6287177810724176
2.3736263736263736,1.610058521398323
2.3934065934065933,1.5907123959697527
2.413186813186813,1.5707306771562737
2.4329670329670328,1.5501680385797738
2.452747252747253,1.5290826825351265
2.4725274725274726,1.5075364716958162
2.4923076923076923,1.4855950628709786
2.512087912087912,1.4633280397381447
2.5318681318681318,1.4408090404365559
2.5516483516483515,1.4181158746432887
2.5714285714285716,1.3953306232479281
2.5912087912087913,1.37253971198067
2.610989010989011,1.3498339483402917
2.6307692307692307,1.3273085089470056
2.6505494505494505,1.3050628620844935
2.6703296703296706,1.2832006078236438
2.6901098901098903,1.2618292159359412
2.70989010989011,1.241059640089002
2.7296703296703297,1.22100578594572
2.7494505494505495,1.2017838112274615
2.769230769230769,1.183511238085517
2.7890109890109893,1.1663058628090865
2.808791208791209,1.1502844554749052
2.8285714285714287,1.1355612529241146
2.8483516483516484,1.12224626241641
2.8681318681318677,1.1104434099561118
2.887912087912088,1.1002485854970598
2.9076923076923076,1.0917476552558316
2.9274725274725273,1.0850145268899576
2.947252747252747,1.08010936374771
2.9670329670329667,1.0770770473474995
2.986813186813187,1.0759459809688865
3.0065934065934066,1.0767273112034519
3.0263736263736263,1.0794146195097758
3.046153846153846,1.0839841047534233
3.0659340659340657,1.0903952440612132
3.085714285714286,1.0985918872451619
3.1054945054945056,1.1085037134187572
3.1252747252747253,1.1200479600770257
3.145054945054945,1.1331313262181297
3.1648351648351647,1.1476519518699582
3.184615384615385,1.1635013851751816
3.2043956043956046,1.1805664626821324
3.2241758241758243,1.1987310461010392
3.243956043956044,1.2178775771127486
3.2637362637362637,1.237888428954319
3.2835164835164834,1.2586470481824434
3.3032967032967036,1.2800388915876182
3.3230769230769233,1.3019521715742541
3.342857142857143,1.3242784286774967
3.3626373626373627,1.3469129527156949
3.3824175824175824,1.369755074926325
3.4021978021978025,1.3927083528464406
3.4219780219780223,1.415680668161983
3.441758241758242,1.4385842556604207
3.4615384615384617,1.4613356790822505
3.481318681318681,1.4838557672966664
3.501098901098901,1.5060695219684421
3.520879120879121,1.5279060058228726
3.5406593406593405,1.5492982187965938
3.5604395604395602,1.5701829677965569
3.58021978021978,1.5905007344708826
3.5999999999999996,1.610195544305055
3.61978021978022,1.629214839469851
3.6395604395604395,1.6475093571374286
3.659340659340659,1.665033014421385
3.679120879120879,1.6817428006616868
3.6989010989010986,1.6975986774431833
3.718681318681319,1.7125634864877035
3.7384615384615385,1.726602865378494
3.758241758241758,1.7396851709473393
3.7780219780219784,1.7517814100686184
3.7978021978021976,1.7628651775508248
3.8175824175824173,1.7729126007877427
3.8373626373626375,1.781902290822087
3.8571428571428568,1.7898152994800238
3.876923076923077,1.796635082250757
3.896703296703296,1.802347466609988
3.916483516483517,1.8069406255157514
3.936263736263736,1.8104050558395548
3.956043956043956,1.812733561532934
3.9758241758241755,1.8139212413687726
3.9956043956043956,1.8139654811375312
4.015384615384615,1.8128659502201658
4.035164835164835,1.810624602501919
4.054945054945055,1.8072456816337155
4.0747252747252745,1.8027357306908733
4.094505494505494,1.797103606321609
4.114285714285715,1.7903604975203062
4.134065934065934,1.7825199492025803
4.153846153846154,1.7735978907997925
4.173626373626373,1.763612670130164
4.193406593406594,1.7525850928399616
4.213186813186813,1.7405384677413696
4.232967032967033,1.7274986584009135
4.252747252747253,1.713494141352488
4.2725274725274724,1.6985560713184844
4.292307692307692,1.6827183538182402
4.312087912087913,1.6660177255196844
4.331868131868132,1.6484938426422187
4.351648351648352,1.6301893776383527
4.371428571428571,1.6111501242594723
4.391208791208792,1.5914251109349473
4.410989010989011,1.571066722150242
4.43076923076923,1.5501308271805772
4.450549450549451,1.5286769151021777
4.4703296703296695,1.5067682344399025
4.49010989010989,1.484471935090811
4.50989010989011,1.4618592092598945
4.52967032967033,1.4390054270265262
4.549450549450549,1.4159902608002948
4.569230769230769,1.3928977913001286
4.589010989010989,1.3698165857895557
4.608791208791209,1.3468397371322192
4.628571428571428,1.324064849834125
4.648351648351649,1.3015939566959913
4.6681318681318675,1.279533347155033
4.687912087912088,1.257993286072803
4.707692307692308,1.2370875999409534
4.7274725274725276,1.2169331066492277
4.747252747252747,1.1976488656075448
4.767032967032967,1.1793552277275734
4.786813186813187,1.1621726701527766
4.806593406593407,1.1462204092015664
4.826373626373626,1.131614797056869
4.846153846153847,1.1184675232091577
4.8659340659340655,1.1068836598935734
4.885714285714286,1.0969596104245087
4.905494505494506,1.0887810383870915
4.9252747252747255,1.082420871493139
4.945054945054945,1.0779374837217572
4.964835164835165,1.0753731605995485
4.984615384615385,1.0747529434762477
5.004395604395604,1.0760839291808064
5.024175824175824,1.0793550729689645
5.043956043956045,1.08453750828678
5.0637362637362635,1.091585360792102
5.083516483516483,1.1004370008449105
5.103296703296703,1.1110166522884157
5.123076923076923,1.1232362584953197
5.142857142857143,1.1369975003647392
5.162637362637362,1.1521938645782512
5.182417582417583,1.1687126720195367
5.2021978021978015,1.1864369931610077
5.221978021978022,1.2052473966165624
5.241758241758242,1.225023496476668
5.2615384615384615,1.2456452816251762
5.281318681318681,1.2669942248423143
5.301098901098901,1.2889541806394402
5.320879120879121,1.3114120884771097
5.340659340659341,1.334258502660407
5.36043956043956,1.3573879723364766
5.380219780219781,1.380699295245503
5.3999999999999995,1.4040956677719327
5.41978021978022,1.4274847518993299
5.43956043956044,1.450778677282276
5.4593406593406595,1.4738939941010796
5.479120879120879,1.4967515898613368
5.498901098901099,1.5192765809661546
5.518681318681319,1.5413981877957774
5.538461538461538,1.5630496002063874
5.558241758241758,1.5841678388105187
5.578021978021979,1.604693616110354
5.5978021978021975,1.6245712004986097
5.617582417582418,1.6437482852903984
5.637362637362637,1.6621758642747075
5.6571428571428575,1.6798081147469741
5.676923076923077,1.6966022885795045
5.696703296703297,1.7125186115814657
5.716483516483517,1.7275201911751663
5.736263736263735,1.7415729322544375
5.756043956043956,1.7546454609801612
5.775824175824176,1.7667090561966106
5.795604395604395,1.7777375881110569
5.815384615384615,1.7877074638612265
5.835164835164835,1.7965975795946707
5.854945054945055,1.8043892786968285
5.874725274725275,1.8110663158268272
5.894505494505494,1.8166148264496331
5.914285714285715,1.8210233015873587
5.934065934065933,1.8242825675508487
5.953846153846154,1.8263857704531565
5.973626373626374,1.8273283653487211
5.993406593406593,1.8271081098857285
6.013186813186813,1.8257250624033177
6.032967032967033,1.8231815844502635
6.052747252747253,1.8194823477468034
6.072527472527473,1.8146343456570473
6.092307692307692,1.8086469092846074
6.112087912087913,1.8015317283497236
6.131868131868131,1.793302877051029
6.151648351648352,1.7839768451593425
6.171428571428572,1.7735725746334232
6.191208791208791,1.7621115020882214
6.210989010989011,1.749617607482767
6.230769230769231,1.7361174694266468
6.2505494505494505,1.7216403275279406
6.270329670329671,1.7062181522195239
6.29010989010989,1.6898857224995254
6.309890109890111,1.6726807120022225
6.329670329670329,1.654643783769182
6.349450549450549,1.6358186940108883
6.36923076923077,1.6162524050242155
6.3890109890109885,1.595995207249715
6.408791208791209,1.5751008501976134
6.428571428571428,1.553626681624953
6.4483516483516485,1.5316337938845164
6.468131868131868,1.5091871757637643
6.487912087912088,1.4863558673581012
6.507692307692308,1.4632131145451868
6.527472527472527,1.4398365184109387
6.547252747252747,1.416308173491054
6.567032967032967,1.3927147869069632
6.5868131868131865,1.3691477683773816
6.606593406593407,1.3457032786836984
6.626373626373626,1.322482221500686
6.6461538461538465,1.2995901606661968
6.665934065934065,1.2771371421173423
6.685714285714286,1.2552373971187059
6.705494505494506,1.2340089014127371
6.725274725274725,1.2135727640153426
6.745054945054945,1.194052420157139
6.764835164835165,1.1755726060121139
6.7846153846153845,1.1582580990530276
6.804395604395605,1.1422322177136042
6.824175824175824,1.127615087840492
6.8439560439560445,1.1145217010315707
6.863736263736263,1.1030598105646408
6.883516483516484,1.0933277325985178
6.903296703296704,1.085412141243312
6.923076923076923,1.0793859628999027
6.942857142857143,1.075306484729159
6.962637362637362,1.073213791445989
6.9824175824175825,1.0731296322124508
7.002197802197802,1.0750567953387864
7.021978021978022,1.0789790349034423
7.041758241758242,1.0848615541757383
7.061538461538461,1.0926520108820503
7.081318681318681,1.1022819740340544
7.101098901098901,1.1136687354704335
7.1208791208791204,1.1267173640130046
7.140659340659341,1.1413228867731577
7.16043956043956,1.157372489397651
7.1802197802197805,1.1747476423420447
7.199999999999999,1.1933260804247756
7.21978021978022,1.212983584814168
7.23956043956044,1.233595537639144
7.259340659340659,1.255038237778414
7.279120879120879,1.2771899810784155
7.298901098901099,1.2999319189870047
7.318681318681318,1.3231487165931275
7.338461538461539,1.346729034869675
7.358241758241758,1.3705658632043884
7.3780219780219785,1.3945567277578015
7.397802197802197,1.4186037994254543
7.417582417582418,1.4426139227111143
7.437362637362638,1.4664985840265308
7.457142857142857,1.4901738350974087
7.476923076923077,1.5135601844564768
7.496703296703297,1.536582467549332
7.516483516483516,1.559169703820036
7.536263736263736,1.5812549472953366
7.556043956043957,1.6027751356385884
7.575824175824176,1.6236709413731392
7.595604395604395,1.643886627947658
7.615384615384615,1.6633699124999917
7.635164835164835,1.6820718365372829
7.654945054945055,1.6999466452587824
7.674725274725275,1.7169516758764904
7.694505494505494,1.7330472550140674
7.7142857142857135,1.7481966050667583
7.734065934065935,1.7623657592681587
7.753846153846154,1.7755234851194093
7.7736263736263735,1.787641215783087
7.793406593406592,1.798692989018176
7.813186813186814,1.8086553932273894
7.832967032967034,1.8175075201989381
7.852747252747252,1.8252309241467328
7.872527472527472,1.8318095866834907
7.892307692307693,1.8372298873973665
7.912087912087912,1.841480579743155
7.931868131868132,1.8445527720024124
7.951648351648351,1.8464399131120317
7.971428571428572,1.8471377832072309
7.991208791208791,1.8466444887724405
8.010989010989011,1.8449604623415663
8.03076923076923,1.8420884667375936
8.05054945054945,1.8380336038905694
8.07032967032967,1.8328033283220742
8.09010989010989,1.826407465434072
8.10989010989011,1.8188582347895061
8.129670329670331,1.8101702786217662
8.149450549450549,1.8003606958592664
8.169230769230769,1.7894490819996258
8.189010989010988,1.7774575752141457
8.20879120879121,1.76441090910679
8.22857142857143,1.75033647259021
8.248351648351647,1.7352643773730247
8.268131868131867,1.7192275335737903
8.287912087912087,1.7022617339843336
8.307692307692308,1.6844057474922542
8.327472527472528,1.6657014221335364
8.347252747252746,1.6461937981709478
8.367032967032966,1.6259312314725334
8.386813186813187,1.6049655272813352
8.406593406593407,1.5833520842059883
8.426373626373627,1.5611500478997695
8.446153846153845,1.5384224734079717
8.465934065934066,1.5152364945183514
8.485714285714286,1.4916634976137408
8.505494505494505,1.4677792964585263
8.525274725274725,1.4436643030122358
8.545054945054945,1.4194036877120189
8.564835164835165,1.3950875206666098
8.584615384615384,1.3708108828353145
8.604395604395604,1.346673933528788
8.624175824175826,1.3227819175050608
8.643956043956043,1.29924509164521
8.663736263736263,1.2761785478607008
8.683516483516483,1.2537019058002827
8.703296703296704,1.231938846511781
8.723076923076924,1.2110164570436994
8.742857142857142,1.1910643567568298
8.762637362637362,1.1722135796756652
8.782417582417583,1.1545951943811161
8.802197802197803,1.1383386544416911
8.821978021978023,1.1235698885770278
8.84175824175824,1.1104091604393995
8.86153846153846,1.0989687520465605
8.881318681318682,1.0893505504678738
8.901098901098901,1.0816436413298656
8.920879120879121,1.0759220313306919
8.940659340659339,1.0722426313585414
8.96043956043956,1.0706436287966499
8.98021978021978,1.0711433605208023
9.0,1.0737397675437717
9.01978021978022,1.0784104712813276
9.03956043956044,1.0851134651143943
9.05934065934066,1.093788369507284
9.079120879120879,1.1043581604285617
9.098901098901099,1.1167312538094698
9.11868131868132,1.1308038156280564
9.138461538461538,1.1464621678398268
9.158241758241758,1.1635851726263198
9.178021978021977,1.182046497831309
9.197802197802199,1.2017166911001265
9.217582417582419,1.222465015562229
9.237362637362637,1.2441610231470588
9.257142857142856,1.2666758610573523
9.276923076923078,1.2898833217597854
9.296703296703297,1.3136606570719374
9.316483516483517,1.3378891830163622
9.336263736263735,1.362454704837346
9.356043956043957,1.3872477917718122
9.375824175824176,1.412163929623
9.395604395604396,1.4371035765759301
9.415384615384616,1.461972144542743
9.435164835164835,1.4866799250165925
9.454945054945055,1.5111419752026305
9.474725274725275,1.5352779772400438
9.494505494505495,1.5590120807129626
9.514285714285714,1.5822727363987106
9.534065934065934,1.6049925273142498
9.553846153846154,1.6271080015699357
9.573626373626373,1.6485595102866286
9.593406593406593,1.6692910528376248
9.613186813186815,1.6892501308999586
9.632967032967032,1.7083876122030681
9.652747252747252,1.7266576044131279
9.672527472527472,1.744017339259394
9.692307692307693,1.760427066770624
9.712087912087913,1.7758499593244976
9.731868131868131,1.7902520251046599
9.75164835164835,1.803602030495215
9.771428571428572,1.8158714309107686
9.791208791208792,1.82703430955287
9.810989010989012,1.8370673235948325
9.83076923076923,1.8459496573212764
9.850549450549451,1.8536629817823937
9.87032967032967,1.8601914205633943
9.89010989010989,1.8655215213145555
9.90989010989011,1.8696422327351003
9.92967032967033,1.8725448867542465
9.94945054945055,1.8742231857037461
9.96923076923077,1.8746731943283619
9.989010989010989,1.8738933365331751
10.008791208791209,1.8718843968197572
10.028571428571428,1.8686495264165188
10.048351648351648,1.8641942541626597
10.068131868131868,1.8585265022594502
10.08791208791209,1.851656607057915
10.107692307692307,1.843597345107305
10.127472527472527,1.8343639647452588
10.147252747252747,1.8239742235666727
10.167032967032966,1.8124484321645589
10.186813186813188,1.7998095045913047
10.206593406593406,1.7860830160417582
10.226373626373626,1.7712972683087151
10.246153846153845,1.755483363604826
10.265934065934067,1.738675287378349
10.285714285714286,1.7209100007709175
10.305494505494504,1.702227543366253
10.325274725274724,1.6826711468530222
10.345054945054946,1.6622873601627792
10.364835164835165,1.6411261865324864
10.384615384615385,1.6192412327648882
10.404395604395603,1.5966898706985624
10.424175824175824,1.57353341052869
10.443956043956044,1.549837285108648
10.463736263736264,1.525671243675762
10.483516483516484,1.5011095525393223
10.503296703296703,1.4762311990977028
10.523076923076923,1.4511200940611781
10.542857142857143,1.4258652648951844
10.562637362637362,1.4005610312154797
10.582417582417584,1.3753071501262935
10.602197802197802,1.3502089162848112
10.621978021978022,1.325377197835151
10.641758241758241,1.3009283853868676
