Frequency (Hz),Amplitude
0.0,2.3518753958715344
0.019867549668874173,2.3509964517011097
0.039735099337748346,2.3483611828449873
0.059602649006622516,2.3439742836010367
0.07947019867549669,2.337843588960785
0.09933774834437085,2.329980091541974
0.11920529801324503,2.3203979656762526
0.13907284768211922,2.3091145990395083
0.15894039735099338,2.296150632330878
0.17880794701986755,2.2815300076303457
0.1986754966887417,2.2652800261955934
0.2185430463576159,2.247431416596752
0.23841059602649006,2.2280184142337527
0.2582781456953642,2.2070788534352057
0.27814569536423844,2.18465427349889
0.2980132450331126,2.160790040201721
0.31788079470198677,2.1355354844773276
0.33774834437086093,2.1089440601281173
0.3576158940397351,2.0810735225986368
0.3774834437086093,2.0519861309768337
0.3973509933774834,2.021748875494041
0.4172185430463576,1.9904337328416546
0.4370860927152318,1.9581179515802816
0.45695364238410596,1.9248843697456683
0.4768211920529801,1.8908217663972193
0.49668874172185434,1.856025248234454
0.5165562913907285,1.8205966714281463
0.5364238410596026,1.7846450973479575
0.5562913907284769,1.7482872787625114
0.5761589403973509,1.7116481701449853
0.5960264900662252,1.6748614517119285
0.6158940397350993,1.638070051496511
0.6357615894039735,1.601426642843415
0.6556291390728477,1.5650940859673754
0.6754966887417219,1.5292457714819883
0.695364238410596,1.4940658111041905
0.7152317880794702,1.4597490064174483
0.7350993377483444,1.42650051148952
0.7549668874172186,1.3945350908807435
0.7748344370860927,1.3640758636956252
0.7947019867549668,1.3353524204834293
0.8145695364238411,1.3085982076862277
0.8344370860927152,1.2840470992805981
0.8543046357615894,1.2619291221795164
0.8741721854304636,1.2424653737217335
0.8940397350993378,1.2258622648189703
0.9139072847682119,1.2123053333141742
0.9337748344370861,1.2019529835254927
0.9536423841059603,1.1949305979376663
0.9735099337748344,1.1913255111224401
0.9933774834437087,1.1911833140012618
1.0132450331125828,1.1945058601557101
1.033112582781457,1.2012511839803182
1.0529801324503312,1.211335339398503
1.0728476821192052,1.2246359651299403
1.0927152317880795,1.2409972160957887
1.1125827814569538,1.26023559806963
1.1324503311258278,1.2821462145992317
1.1523178807947019,1.306508974480103
1.1721854304635762,1.3330943951401517
1.1920529801324504,1.3616687478280556
1.2119205298013245,1.391998402202273
1.2317880794701985,1.4238533248687681
1.2516556291390728,1.4570097602609131
1.271523178807947,1.491252171183111
1.2913907284768211,1.5263745429491757
1.3112582781456954,1.5621811641591787
1.3311258278145695,1.5984869941005146
1.3509933774834437,1.6351177163100454
1.370860927152318,1.671909563745704
1.390728476821192,1.7087089859269136
1.410596026490066,1.7453722139771353
1.4304635761589404,1.7817647666475476
1.4503311258278146,1.8177609294976076
1.4701986754966887,1.8532432305023239
1.4900662251655628,1.8881019282975815
1.5099337748344372,1.922234523826949
1.5298013245033113,1.9555453020473725
1.5496688741721854,1.9879449073293132
1.5695364238410596,2.019349954018756
1.5894039735099337,2.049682672116591
1.609271523178808,2.078870587017106
1.6291390728476822,2.1068462316003145
1.6490066225165563,2.1335468885965887
1.6688741721854303,2.158914360956163
1.6887417218543048,2.18289476790579
1.7086092715231789,2.205438364415057
1.728476821192053,2.2264993818956342
1.7483443708609272,2.246035888093969
1.7682119205298013,2.264009664296895
1.7880794701986755,2.280386098137387
1.8079470198675496,2.2951340904588773
1.8278145695364238,2.308225974863648
1.847682119205298,2.319637448733528
1.8675496688741722,2.3293475146654097
1.8874172185430464,2.3373384314110273
1.9072847682119205,2.3435956735493617
1.9271523178807946,2.348107899250923
1.9470198675496688,2.350866925618387
1.9668874172185429,2.3518677112064696
1.9867549668874174,2.351108345438874
2.0066225165562916,2.348590044750865
2.0264900662251657,2.3443171553957574
2.0463576158940397,2.3382971629616187
2.066225165562914,2.3305407087539005
2.086092715231788,2.321061613310775
2.1059602649006623,2.3098769074322405
2.1258278145695364,2.2970068712229965
2.1456953642384105,2.282475081773668
2.165562913907285,2.2663084702363756
2.185430463576159,2.24853738918961
2.205298013245033,2.2291956913349664
2.2251655629139075,2.2083208207240586
2.2450331125827816,2.185953917877812
2.2649006622516556,2.162139940331303
2.2847682119205297,2.136927800311995
2.3046357615894038,2.110370521433849
2.324503311258278,2.082525416457396
2.3443708609271523,2.053454288315587
2.364238410596027,2.0232236567228474
2.384105960264901,1.9919050127484492
2.403973509933775,1.9595751037148452
2.423841059602649,1.9263162506376423
2.443708609271523,1.8922167000996375
2.463576158940397,1.8573710118740157
2.4834437086092715,1.821880482685158
2.5033112582781456,1.7858536050942708
2.52317880794702,1.7494065584649219
2.543046357615894,1.7126637261056392
2.562913907284768,1.6757582287734258
2.5827814569536423,1.6388324594899346
2.6026490066225163,1.6020385977929308
2.622516556291391,1.5655390728588492
2.642384105960265,1.5295069342017946
2.662251655629139,1.4941260758654158
2.6821192052980134,1.4595912454713573
2.7019867549668874,1.4261077539653961
2.7218543046357615,1.3938907869353394
2.741721854304636,1.363164206458214
2.76158940397351,1.3341587272068702
2.781456953642384,1.3071093567668284
2.801324503311258,1.282252013269321
2.821192052980132,1.2598192787824243
2.8410596026490067,1.2400353177759431
2.8609271523178808,1.2231100856216446
2.8807947019867552,1.2092330653143686
2.9006622516556293,1.1985668863645853
2.9205298013245033,1.1912412759739888
2.9403973509933774,1.187347843762395
2.9602649006622515,1.186936185668915
2.9801324503311255,1.1900117000760404
3.0,1.1965353472809777
3.0198675496688745,1.2064253781572247
3.0397350993377485,1.2195608476147506
3.0596026490066226,1.235786553137416
3.0794701986754967,1.2549189280129047
3.0993377483443707,1.276752385062094
3.119205298013245,1.301065643450444
3.1390728476821192,1.3276276588100553
3.1589403973509933,1.3562028901719476
3.1788079470198674,1.386555752699205
3.198675496688742,1.418454206008643
3.218543046357616,1.4516725049624197
3.23841059602649,1.4859931910883233
3.2582781456953644,1.5212084308318357
3.2781456953642385,1.557120816623752
3.2980132450331126,1.5935437438032338
3.3178807947019866,1.6303014657560673
3.3377483443708607,1.667228915130379
3.3576158940397347,1.7041713634365794
3.3774834437086096,1.7409839764605557
3.3973509933774837,1.7775313096680139
3.4172185430463577,1.8136867765477216
3.437086092715232,1.8493321136779988
3.456953642384106,1.8843568590488609
3.47682119205298,1.9186578545827155
3.4966887417218544,1.9521387795918477
3.5165562913907285,1.9847097188220062
3.5364238410596025,2.0162867665202624
3.556291390728477,2.0467916664279215
3.576158940397351,2.07615148657115
3.596026490066225,2.104298327070171
3.615894039735099,2.131169058810469
3.6357615894039736,2.1567050906371974
3.6556291390728477,2.180852162688202
3.6754966887417218,2.2035601635273387
3.695364238410596,2.2247829688464478
3.7152317880794703,2.2444782996478887
3.7350993377483444,2.262607597983805
3.754966887417219,2.2791359185018423
3.774834437086093,2.294031834222312
3.794701986754967,2.307267355143702
3.814569536423841,2.318817858439375
3.834437086092715,2.3286620291660736
3.854304635761589,2.336781810554513
3.8741721854304636,2.3431623630935094
3.8940397350993377,2.347792031752523
3.9139072847682117,2.3506623208138384
3.9337748344370858,2.3517678759063774
3.9536423841059607,2.351106472948717
3.9735099337748347,2.3486790138216285
3.993377483443709,2.3444895287005822
4.013245033112583,2.3385451850884262
4.033112582781457,2.3308563036986536
4.052980132450331,2.3214363814519547
4.072847682119205,2.3103021219644773
4.0927152317880795,2.2974734740265497
4.112582781456953,2.2829736786970782
4.132450331125828,2.2668293257724303
4.152317880794702,2.2490704205304075
4.172185430463576,2.229730461800867
4.19205298013245,2.2088465325747597
4.211920529801325,2.186459404532787
4.231788079470199,2.1626136580528037
4.251655629139073,2.1373578194386615
4.271523178807947,2.110744517299105
4.291390728476821,2.0828306601868416
4.311258278145695,2.05367763777561
4.33112582781457,2.0233515479924
4.3509933774834435,1.9919234526130583
4.370860927152318,1.9594696638427462
4.390728476821192,1.9260720642995848
4.410596026490066,1.891818462544556
4.43046357615894,1.856802985782413
4.450331125827815,1.821126510499146
4.470198675496689,1.7848971304776067
4.490066225165563,1.7482306596844641
4.509933774834438,1.7112511647502615
4.529801324503311,1.6740915179313172
4.549668874172186,1.6368939562709044
4.569536423841059,1.5998106258678653
4.589403973509934,1.5630040814218003
4.6092715231788075,1.5266477003253824
4.629139072847682,1.4909259574463185
4.649006622516556,1.456034491609709
4.66887417218543,1.4221798783799369
4.688741721854305,1.3895790075136083
4.708609271523179,1.3584579498861338
4.728476821192054,1.3290501914795554
4.748344370860927,1.30159411610851
4.768211920529802,1.2763296398097002
4.788079470198675,1.2534939440504609
4.80794701986755,1.2333163262170033
4.827814569536423,1.216012284205454
4.847682119205298,1.2017770706546214
4.867549668874172,1.1907790762676176
4.887417218543046,1.183153507592394
4.9072847682119205,1.1789968851739492
4.927152317880794,1.178362878783566
4.947019867549669,1.181259904999612
4.966887417218543,1.1876507451925524
4.986754966887418,1.1974542256690428
5.006622516556291,1.2105487772961268
5.026490066225166,1.2267775027233945
5.04635761589404,1.2459542583384084
5.066225165562914,1.2678702193919364
5.086092715231788,1.2923004341606092
5.105960264900662,1.319009965535334
5.125827814569536,1.3477593387628077
5.14569536423841,1.3783091368740303
5.1655629139072845,1.410423692311726
5.185430463576159,1.443873904746686
5.205298013245033,1.4784392688738943
5.225165562913908,1.513909224996686
5.245033112582782,1.5500839548655196
5.264900662251656,1.5867747415275544
5.28476821192053,1.6238040002075182
5.304635761589404,1.661005071646156
5.324503311258278,1.6982218527683133
5.344370860927152,1.735308323843714
5.364238410596027,1.7721280174010183
5.3841059602649,1.8085534624430093
5.403973509933775,1.84446562800659
5.4238410596026485,1.879753382631209
5.443708609271523,1.9143129805660366
5.463576158940397,1.9480475812589897
5.483443708609272,1.980866805541499
5.503311258278146,2.0126863296994135
5.52317880794702,2.043427517088015
5.543046357615895,2.073017085937229
5.562913907284768,2.1013868113613428
5.582781456953643,2.1284732592335915
5.602649006622516,2.1542175494266607
5.622516556291391,2.1785651458953414
5.642384105960264,2.201465671144693
5.662251655629139,2.222872742750355
5.682119205298013,2.2427438297575133
5.701986754966887,2.261040126962011
5.7218543046357615,2.2777264452625468
5.741721854304636,2.2927711164578013
5.7615894039735105,2.3061459110422633
5.781456953642384,2.3178259677278437
5.801324503311259,2.3277897335814446
5.821192052980132,2.336018913823657
5.841059602649007,2.3424984304789187
5.860927152317881,2.347216389204064
5.880794701986755,2.350164053752112
5.900662251655629,2.3513358276508205
5.920529801324503,2.3507292427938955
5.940397350993377,2.348344954757039
5.960264900662251,2.3441867447634994
5.980132450331126,2.3382615283350585
6.0,2.3305793707765514
6.0198675496688745,2.321153509756472
6.039735099337749,2.3100003853640474
6.059602649006623,2.2971396781461264
6.079470198675497,2.282594355756895
6.099337748344371,2.2663907289905993
6.119205298013245,2.248558518114149
6.139072847682119,2.2291309305727167
6.158940397350993,2.2081447513092334
6.178807947019867,2.1856404471164903
6.198675496688741,2.1616622866296673
6.218543046357616,2.1362584777643487
6.23841059602649,2.1094813246076427
6.258278145695365,2.0813874059728774
6.2781456953642385,2.0520377780214853
6.298013245033113,2.0214982035265447
6.317880794701987,1.9898394104824224
6.337748344370861,1.9571373828239602
6.357615894039735,1.923473685971256
6.377483443708609,1.8889358297058585
6.397350993377484,1.8536176704410017
6.417218543046357,1.817619854174149
6.437086092715232,1.7810503001778155
6.456953642384105,1.7440247236309816
6.47682119205298,1.7066671927093675
6.496688741721854,1.6691107118877637
6.516556291390729,1.6314978180595539
6.5364238410596025,1.5939811692170835
6.556291390728477,1.5567240965207958
6.5761589403973515,1.5199010793246832
6.596026490066225,1.4836980889713778
6.6158940397351,1.448312731060833
6.635761589403973,1.4139540980700551
6.655629139072848,1.380842226064739
6.675496688741721,1.3492070332871546
6.695364238410596,1.3192866084696706
6.715231788079469,1.2913247181111207
6.735099337748344,1.2655674211322956
6.754966887417219,1.2422587230071487
6.774834437086093,1.2216352747986392
6.794701986754967,1.2039202264637552
6.814569536423841,1.1893164720630356
6.8344370860927155,1.1779996613501926
6.854304635761589,1.170111472425749
6.874172185430464,1.1657537129708828
6.894039735099337,1.1649838147544376
6.913907284768212,1.1678121920569546
6.933774834437086,1.1742017549908144
6.95364238410596,1.1840696323588973
6.973509933774834,1.1972909114306953
6.993377483443709,1.2137039929137288
7.013245033112583,1.2331170260066089
7.033112582781457,1.255314846723681
7.052980132450331,1.2800658855544969
7.072847682119205,1.307128613951182
7.0927152317880795,1.3362572322676707
7.112582781456954,1.3672064362690588
7.132450331125828,1.399735215114118
7.152317880794702,1.4336097205779554
7.172185430463576,1.4686053033956887
7.19205298013245,1.5045078416591113
7.211920529801324,1.5411144944919128
7.231788079470198,1.5782340084962838
7.251655629139073,1.6156866905796776
7.271523178807947,1.6533041432132365
7.291390728476822,1.69092883999348
7.311258278145695,1.728413602414218
7.33112582781457,1.765621023943467
7.3509933774834435,1.8024228751658968
7.370860927152318,1.838699513849359
7.390728476821192,1.8743393160824329
7.410596026490066,1.909238138780531
7.430463576158941,1.9432988195313305
7.450331125827814,1.9764307166308352
7.470198675496689,2.0085492899745465
7.490066225165562,2.039575721988266
7.509933774834438,2.0694365768269574
7.52980132450331,2.0980634954958046
7.549668874172186,2.125392924246451
7.569536423841059,2.1513658734896106
7.589403973509934,2.175927704483763
7.6092715231788075,2.199027941162192
7.629139072847682,2.2206201046158482
7.649006622516557,2.240661567935334
7.66887417218543,2.2591134293143793
7.6887417218543055,2.2759404015209177
7.708609271523178,2.2911107160417457
7.728476821192054,2.3045960403996038
7.748344370860927,2.3163714073243926
7.768211920529802,2.326415154632631
7.788079470198675,2.334708874830504
7.80794701986755,2.3412373736070466
7.827814569536423,2.3459886365256435
7.847682119205298,2.348953803355456
7.8675496688741715,2.3501271496108664
7.887417218543046,2.3495060749883696
7.907284768211921,2.347091098507153
7.927152317880795,2.342885860275031
7.9470198675496695,2.3368971299146
7.966887417218543,2.3291348218000625
7.986754966887418,2.3196120173718566
8.006622516556291,2.308344994917452
8.026490066225167,2.2953532673336907
8.046357615894038,2.280659628519737
8.066225165562914,2.264290209192792
8.086092715231787,2.246274543071693
8.105960264900663,2.2266456445382947
8.125827814569536,2.205440099064073
8.14569536423841,2.182698167880059
8.165562913907285,2.1584639085726702
8.185430463576159,2.132785313504069
8.205298013245034,2.105714468182206
8.225165562913906,2.077307731936962
8.245033112582782,2.0476259434872444
8.264900662251655,2.016734654197829
8.28476821192053,1.9847043920057101
8.304635761589404,1.9516109591167892
8.324503311258278,1.9175357665989443
8.344370860927151,1.882566208871501
8.364238410596027,1.8467960807442274
8.3841059602649,1.810326038990288
8.403973509933774,1.7732641093169152
8.42384105960265,1.7357262378530347
8.443708609271523,1.6978368836826203
8.463576158940398,1.6597296452426247
8.483443708609272,1.62154790824051
8.503311258278146,1.5834454957487525
8.52317880794702,1.545587291894918
8.543046357615895,1.5081497987073513
8.562913907284768,1.471321570940683
8.582781456953642,1.435303456113316
8.602649006622515,1.4003085470692431
8.62251655629139,1.3665617334780222
8.642384105960264,1.3342987193539713
8.66225165562914,1.303764360012147
8.682119205298013,1.275210169748469
8.701986754966887,1.2488908683599511
8.721854304635762,1.2250598784516264
8.741721854304636,1.2039637630013147
8.76158940397351,1.1858357061309632
8.781456953642383,1.1708882835858834
8.801324503311259,1.1593059259756702
8.821192052980132,1.1512376186846331
8.841059602649008,1.146790471371675
8.86092715231788,1.1460247929625176
8.880794701986755,1.1489512052730781
8.90066225165563,1.1555301253366272
8.920529801324504,1.1656736768028946
8.940397350993377,1.179249808550649
8.960264900662251,1.1960881619918553
8.980132450331126,1.2159870812664064
9.0,1.2387211201668848
9.019867549668875,1.2640484560698246
9.039735099337747,1.2917177447265595
9.059602649006623,1.3214741037595066
9.079470198675496,1.3530640644765595
9.099337748344372,1.3862394590218905
9.119205298013245,1.420760302615435
9.139072847682119,1.4563967879847284
9.158940397350994,1.4929305363177263
9.178807947019868,1.5301552539439292
9.198675496688743,1.5678769343328867
9.218543046357615,1.6059137274630118
9.23841059602649,1.6440955779934567
9.258278145695364,1.6822637131260232
9.27814569536424,1.7202700423784913
9.298013245033111,1.7579765155347813
9.317880794701987,1.795254471993856
9.33774834437086,1.8319840044440687
9.357615894039736,1.868053351901584
9.37748344370861,1.9033583312670226
9.397350993377483,1.9378018122773704
9.417218543046358,1.9712932377065744
9.437086092715232,2.0037481885976964
9.456953642384107,2.0350879929502184
9.47682119205298,2.065239375445066
9.496688741721854,2.094134145321107
9.516556291390728,2.121708919307843
9.536423841059603,2.147904876487546
9.556291390728477,2.1726675420460353
9.57615894039735,2.1959465970302525
9.596026490066224,2.2176957114334153
9.6158940397351,2.2378723981521236
9.635761589403973,2.256437885590964
9.655629139072847,2.2733570069192597
9.675496688741722,2.288598104205052
9.695364238410596,2.302132945861262
9.715231788079471,2.3139366560352896
9.735099337748345,2.323987654756579
9.754966887417218,2.3322676078267777
9.774834437086092,2.338761385595542
9.794701986754967,2.3434570299124293
9.814569536423841,2.346345728683739
9.834437086092716,2.347421797593766
9.854304635761588,2.346682668674784
9.874172185430464,2.3441288855303957
9.894039735099337,2.3397641051350258
9.913907284768213,2.3335951062493856
9.933774834437086,2.3256318046097912
9.95364238410596,2.315887275170392
9.973509933774835,2.304377781802425
9.993377483443709,2.2911228149867413
10.013245033112582,2.276145138175635
10.033112582781456,2.2594708436506044
10.052980132450331,2.2411294188644013
10.072847682119205,2.2211538244320224
10.09271523178808,2.1995805851262578
10.112582781456952,2.176449895441451
10.132450331125828,2.1518057415141416
10.152317880794701,2.125696041431471
10.172185430463577,2.0981728062162817
10.192052980132452,2.0692923240477947
10.211920529801324,2.0391153705525635
10.2317880794702,2.007707448271402
10.251655629139073,1.9751390586574042
10.271523178807948,1.9414860101635094
10.29139072847682,1.906829766098421
10.311258278145695,1.8712578359154313
10.331125827814569,1.8348642133761481
10.350993377483444,1.7977498644991885
10.370860927152318,1.7600232672248834
10.390728476821192,1.7218010031167397
10.410596026490065,1.6832083989383628
10.43046357615894,1.6443802122831712
10.450331125827816,1.605461350212595
10.470198675496688,1.5666076026257891
10.490066225165563,1.5279863623360777
10.509933774834437,1.489777291061721
10.529801324503312,1.4521728743392632
10.549668874172186,1.4153787885893956
10.56953642384106,1.3796139805837242
10.589403973509933,1.3451103346537208
10.609271523178808,1.3121117787975813
10.629139072847682,1.2808726618981046
10.649006622516556,1.2516552273212322
10.66887417218543,1.2247260221286025
10.688741721854305,1.2003511261134936
10.70860927152318,1.1787901698834216
10.728476821192054,1.1602892404137979
