Time (s),Filtered Signal
0.0,-0.062207520944989686
0.033370165745856356,-0.18777093244072388
0.06674033149171271,-0.34443871668283554
0.10011049723756907,-0.5392236914521022
0.13348066298342542,-0.742598216886728
0.16685082872928178,-0.8958831282785334
0.20022099447513814,-0.9348679283328905
0.2335911602209945,-0.8187181414884037
0.26696132596685085,-0.5507366394588659
0.30033149171270723,-0.18152256278946294
0.33370165745856356,0.20669731321149756
0.3670718232044199,0.5274937097665043
0.4004419889502763,0.7178820536550875
0.43381215469613266,0.7556688372654137
0.467182320441989,0.6612897153993774
0.5005524861878453,0.48557979071170787
0.5339226519337017,0.28988240033105195
0.5672928176795581,0.12652048414968298
0.6006629834254145,0.02600386758707648
0.6340331491712707,-0.006242807007127315
0.6674033149171271,0.015344745605490474
0.7007734806629835,0.06651156633078482
0.7341436464088398,0.1235103979852646
0.7675138121546962,0.1700599528287344
0.8008839779005525,0.19926692043952288
0.8342541436464089,0.21108913152796768
0.8676243093922653,0.20761383974830117
0.9009944751381216,0.18902409391900474
0.934364640883978,0.1524637797532713
0.9677348066298344,0.09436779496882669
1.0011049723756906,0.014886657981874694
1.0344751381215471,-0.07829215361672184
1.0678453038674034,-0.1693983721896475
1.1012154696132597,-0.23844925660365415
1.1345856353591162,-0.2682924532000903
1.1679558011049724,-0.2515889336357401
1.201325966850829,-0.19412383936320318
1.2346961325966852,-0.11249933311462954
1.2680662983425415,-0.027228776648317025
1.301436464088398,0.045143279872128766
1.3348066298342542,0.09667107414695206
1.3681767955801105,0.12711787659701182
1.401546961325967,0.1387303096690952
1.4349171270718233,0.13067362172974542
1.4682872928176796,0.0973946301946091
1.501657458563536,0.03254195447282988
1.5350276243093923,-0.06390127669249764
1.5683977900552488,-0.1803087994317395
1.601767955801105,-0.29439826383184203
1.6351381215469614,-0.38125055453030826
1.6685082872928179,-0.42444646441099015
1.7018784530386741,-0.42387595212338125
1.7352486187845306,-0.3951971227934797
1.768618784530387,-0.3606520055125024
1.8019889502762432,-0.3361829109232765
1.8353591160220997,-0.3222866115242235
1.868729281767956,-0.30412436574059376
1.9020994475138122,-0.26107234983176836
1.9354696132596687,-0.18027394023390275
1.968839779005525,-0.06622912045009309
2.0022099447513813,0.05938513556235399
2.0355801104972375,0.1678343197919329
2.0689502762430942,0.23775510612642387
2.1023204419889505,0.26572295777250676
2.135690607734807,0.26698694755235386
2.169060773480663,0.2660042017583224
2.2024309392265193,0.2821383120875701
2.235801104972376,0.31850588632576904
2.2691712707182323,0.360098393223259
2.3025414364640886,0.3821372995245694
2.335911602209945,0.36405918644222984
2.369281767955801,0.30158549105228877
2.402651933701658,0.21049260245340412
2.436022099447514,0.12019053339190963
2.4693922651933704,0.06052956321414932
2.5027624309392267,0.04856450359194701
2.536132596685083,0.08171507352275847
2.5695027624309392,0.14025297223468938
2.602872928176796,0.1973302043445083
2.636243093922652,0.23128471476989684
2.6696132596685085,0.23431340033706818
2.7029834254143648,0.21383142443437297
2.736353591160221,0.18659727849951313
2.7697237569060777,0.1690676804839003
2.803093922651934,0.16893841325107986
2.8364640883977903,0.181911136426841
2.8698342541436466,0.1949711973400456
2.903204419889503,0.19418208719352634
2.936574585635359,0.17270591298859805
2.969944751381216,0.134556329828272
3.003314917127072,0.09170988320613364
3.0366850828729284,0.05578080224177969
3.0700552486187846,0.028781543472044015
3.103425414364641,-0.0013138668409455674
3.1367955801104976,-0.05644010304789072
3.170165745856354,-0.15652838411667408
3.20353591160221,-0.30558453424780796
3.2369060773480665,-0.4841044251361955
3.2702762430939227,-0.6542833448446898
3.3036464088397794,-0.778249612876163
3.3370165745856357,-0.8416983114618279
3.370386740331492,-0.8700624673018452
3.4037569060773483,-0.9253582824125208
3.4371270718232045,-1.0798655300808944
3.4704972375690613,-1.3748213920194015
3.5038674033149175,-1.7824671115087185
3.537237569060774,-2.1921696264145005
3.57060773480663,-2.433197128674226
3.6039779005524863,-2.3305683434736255
3.6373480662983426,-1.7735652061171985
3.6707182320441993,-0.7679254871968884
3.7040883977900556,0.5519905740754457
3.737458563535912,1.957325243553232
3.770828729281768,3.1907494046894405
3.8041988950276244,4.037317995469076
3.837569060773481,4.374623734487792
3.8709392265193374,4.189772845126856
3.9043093922651937,3.5661132483354216
3.93767955801105,2.651745861565016
3.9710497237569062,1.6221617058980904
4.0044198895027625,0.6447457868139462
4.037790055248619,-0.15097767562420847
4.071160220994475,-0.6940846765898695
4.104530386740332,-0.9798413843932927
4.1379005524861885,-1.0610850404551901
4.171270718232044,-1.024711721654428
4.204640883977901,-0.9603381707186361
4.238011049723757,-0.931803909940427
4.271381215469614,-0.9612268637801941
4.30475138121547,-1.030107366534172
4.338121546961326,-1.0950624865717558
4.371491712707183,-1.110370509026746
4.404861878453039,-1.0477968755737537
4.438232044198895,-0.9064887043240107
4.471602209944752,-0.7106755512364648
4.504972375690608,-0.49816659306367095
4.538342541436465,-0.30594023027277273
4.5717127071823205,-0.15924506305514988
4.605082872928177,-0.06784852343766315
4.638453038674034,-0.02900373211919979
4.67182320441989,-0.033510447005745306
4.7051933701657465,-0.07050792762926963
4.738563535911602,-0.1285364249176113
4.771933701657459,-0.19360597936552565
4.805303867403316,-0.24741914219720887
4.8386740331491715,-0.26892057210214193
4.872044198895028,-0.23997031160397142
4.905414364640884,-0.1527839394918209
4.938784530386741,-0.015034695614366978
4.972154696132597,0.15062901092683612
5.005524861878453,0.3130322638380524
5.03889502762431,0.44226435553102494
5.072265193370166,0.5187796878251334
5.105635359116023,0.5384690541482033
5.1390055248618784,0.512361521875916
5.172375690607735,0.46166489620703227
5.205745856353592,0.41013095294002705
5.239116022099448,0.37617087155568374
5.272486187845304,0.3670509865849924
5.30585635359116,0.3770070496452412
5.339226519337017,0.3900759899872882
5.372596685082874,0.38681171947273657
5.4059668508287295,0.35232175110748704
5.439337016574586,0.2821976892734495
5.472707182320442,0.18369159281561903
5.506077348066299,0.07178052965468808
5.5394475138121555,-0.03761710774807788
5.572817679558011,-0.1336243407922041
5.606187845303868,-0.21267904151072523
5.639558011049724,-0.27658577897962866
5.672928176795581,-0.32831866756614886
5.706298342541437,-0.36855063957603235
5.739668508287293,-0.3949228489513509
5.77303867403315,-0.40399508903097475
5.806408839779006,-0.3940973576269509
5.839779005524862,-0.3669592996439358
5.873149171270718,-0.32703724018547586
5.906519337016575,-0.279059117836083
5.939889502762432,-0.2254381095325915
5.9732596685082875,-0.16524582198401125
6.006629834254144,-0.09544234376511203
6.04,-0.013662919904119369
6.073370165745857,0.07910600419703204
6.1067403314917135,0.17758158968176305
6.140110497237569,0.2735255646881518
6.173480662983426,0.3584567978439808
6.206850828729282,0.4258826330827881
6.240220994475139,0.471509257078888
6.273591160220995,0.49140815943798377
6.306961325966851,0.4798662590204771
6.340331491712708,0.4292905909513993
6.373701657458564,0.3333759106515415
6.40707182320442,0.19239509083003498
6.440441988950277,0.017550006900613965
6.473812154696133,-0.1687348767721412
6.50718232044199,-0.33770054079767614
6.5405524861878455,-0.4626210029665387
6.573922651933702,-0.5270218698571216
6.607292817679559,-0.5291741103769898
6.640662983425415,-0.4811509405098715
6.674033149171271,-0.4032709886324403
6.707403314917127,-0.316633546400052
6.740773480662984,-0.23688184111059088
6.774143646408841,-0.17131821395357133
6.8075138121546965,-0.11971437944303225
6.840883977900553,-0.07754217336408116
6.874254143646409,-0.03962518412289162
6.907624309392266,-0.00257654715991101
6.9409944751381225,0.03454870556492569
6.974364640883978,0.0709143088834964
7.007734806629835,0.10496866406862532
7.041104972375691,0.13527922415465166
7.074475138121548,0.1610646691512506
7.107845303867403,0.18265051366910773
7.14121546961326,0.20185001110658396
7.174585635359117,0.22180804072939145
7.207955801104973,0.24572560334722093
7.241325966850829,0.2744765745243117
7.274696132596685,0.30418300551330635
7.308066298342542,0.32552397848658504
7.341436464088399,0.3261256531757802
7.3748066298342545,0.2957224068324661
7.408176795580111,0.23175848116498984
7.441546961325967,0.14212028935711082
7.474917127071824,0.04275357681374055
7.5082872928176805,-0.04923515793308051
7.541657458563536,-0.12339478264237937
7.575027624309393,-0.17997883076589066
7.608397790055249,-0.2274290315830905
7.641767955801106,-0.27447444646859626
7.675138121546962,-0.3216597028608922
7.708508287292818,-0.3579259912266411
7.741878453038675,-0.36505681232321774
7.775248618784531,-0.3279302362111206
7.808618784530387,-0.2446362985558916
7.841988950276244,-0.13019455727190443
7.8753591160221,-0.011199768301878254
7.908729281767957,0.08592855334195829
7.9420994475138125,0.14660723616337387
7.975469613259669,0.17320873492769495
8.008839779005525,0.1809772650523142
8.042209944751383,0.18733064059456656
8.075580110497238,0.20080790943799695
8.108950276243094,0.21599092005485868
8.14232044198895,0.21722683679069787
8.175690607734808,0.18890266219181262
8.209060773480664,0.12622993357842574
8.24243093922652,0.040159003577530654
8.275801104972377,-0.046598269983223736
8.309171270718233,-0.11030688342372125
8.342541436464089,-0.13765534671663773
8.375911602209946,-0.13151390234270716
8.409281767955802,-0.10803597343731845
8.442651933701658,-0.08719791021289684
8.476022099447514,-0.08244691420096147
8.509392265193371,-0.09512986818632285
8.542762430939227,-0.11607357991993088
8.576132596685083,-0.1323802938360478
8.60950276243094,-0.13487995205391068
8.642872928176796,-0.12207705431369381
8.676243093922652,-0.09916006257080126
8.709613259668508,-0.07370843203794779
8.742983425414366,-0.05126050835570676
8.776353591160222,-0.033273819121362395
8.809723756906077,-0.018014190224542013
8.843093922651935,-0.003022017892690192
8.87646408839779,0.012847223776436354
8.909834254143647,0.029054493071347165
8.943204419889504,0.04449202746429566
8.97657458563536,0.05883124032474008
9.009944751381216,0.07284260264590595
9.043314917127072,0.08737411369483321
9.07668508287293,0.10183995231919818
9.110055248618785,0.11359445037707647
9.143425414364641,0.11905218322833082
9.176795580110499,0.11618245003614085
9.210165745856354,0.10687548915662669
9.24353591160221,0.09743963839832043
9.276906077348068,0.09639414087116725
9.310276243093924,0.11029345673781761
9.34364640883978,0.13961677647819426
9.377016574585635,0.17696673443178337
9.410386740331493,0.20877930382503065
9.443756906077349,0.22003155089622212
9.477127071823205,0.19998073303795347
9.510497237569062,0.14650136928190866
9.543867403314918,0.06725237551594816
9.577237569060774,-0.022718595583183076
9.610607734806631,-0.1059291321592125
9.643977900552487,-0.1681196449613924
9.677348066298343,-0.2026636299379015
9.710718232044199,-0.21229719426963253
9.744088397790057,-0.20759747611130647
9.777458563535912,-0.20264677263936412
9.810828729281768,-0.2093093114455633
9.844198895027626,-0.23223536538186504
9.877569060773482,-0.26668060859577464
9.910939226519337,-0.3002418747890788
9.944309392265193,-0.31792604644261574
9.97767955801105,-0.30836475857767065
10.011049723756907,-0.26834510593255834
10.044419889502763,-0.2035828260222554
10.07779005524862,-0.12550925517233222
10.111160220994476,-0.04584564703669973
10.144530386740332,0.028167194489506477
10.17790055248619,0.09544225097682094
10.211270718232045,0.15892530765500204
10.244640883977901,0.2211078685065115
10.278011049723757,0.2799353890608008
10.311381215469615,0.3276578747483499
10.34475138121547,0.3535119390450333
10.378121546961326,0.3489397878010531
10.411491712707184,0.3125530967206553
10.44486187845304,0.252063841833252
10.478232044198895,0.1819292352776739
10.511602209944753,0.11769071426070786
10.544972375690609,0.06975540951747145
10.578342541436465,0.039733909244646703
10.61171270718232,0.02118504225230986
10.645082872928178,0.004347719642993311
10.678453038674034,-0.01766646169189908
10.71182320441989,-0.044564274935175265
10.745193370165747,-0.06884121398146271
10.778563535911603,-0.08015057419194963
10.811933701657459,-0.0717520568145943
10.845303867403315,-0.045441749431175966
10.878674033149172,-0.012028363715671044
10.912044198895028,0.013223610954704488
10.945414364640884,0.01795809037515902
10.978784530386742,-0.000996673442060414
11.012154696132598,-0.03587789767497719
11.045524861878453,-0.07182775402919594
11.078895027624311,-0.09439956655817626
11.112265193370167,-0.09684392296189431
11.145635359116023,-0.08340075150326628
11.179005524861878,-0.06692388135315194
11.212375690607736,-0.06210148067960132
11.245745856353592,-0.07775010451895838
11.279116022099448,-0.11203788773194835
11.312486187845305,-0.15293189758294137
11.345856353591161,-0.18355697073828162
11.379226519337017,-0.18984020900718832
11.412596685082875,-0.16687502054141726
11.44596685082873,-0.12118960797423416
11.479337016574586,-0.06804486790152214
11.512707182320442,-0.02504462033730717
11.5460773480663,-0.004802507169022749
11.579447513812156,-0.009694732505413613
11.612817679558011,-0.030850592280895837
11.646187845303869,-0.05185449016763862
11.679558011049725,-0.05572077963663555
11.71292817679558,-0.032245924127714765
11.746298342541436,0.01750313624938141
11.779668508287294,0.08171743386652301
11.81303867403315,0.1433220242192668
11.846408839779006,0.1879154644724214
11.879779005524863,0.2102952438015401
11.91314917127072,0.2161839867987077
11.946519337016575,0.21810710316737053
11.979889502762433,0.22746770950790332
12.013259668508288,0.24706059629843155
12.046629834254144,0.2682424102820242
12.08,0.27458841260403943
12.113370165745858,0.2503510924429257
12.146740331491714,0.18934135655786927
12.18011049723757,0.09950148754917687
12.213480662983427,0.0006340162224188885
12.246850828729283,-0.08371210475404242
12.280220994475139,-0.13620924894056124
12.313591160220996,-0.1526848808228139
12.346961325966852,-0.142734412368725
12.380331491712708,-0.12395543357330437
12.413701657458564,-0.11291953370485935
12.447071823204421,-0.11748478464207125
12.480441988950277,-0.13412231825284152
12.513812154696133,-0.1511490737548376
12.54718232044199,-0.1556726181323905
12.580552486187846,-0.1403339946036761
12.613922651933702,-0.10645171420572372
12.64729281767956,-0.06250821141104858
12.680662983425416,-0.019607036945105447
12.714033149171271,0.013083244047943783
12.747403314917127,0.030553397025909448
12.780773480662985,0.031565119950555394
12.81414364640884,0.017206092139089496
12.847513812154697,-0.009795386829833467
12.880883977900554,-0.04452950754215839
12.91425414364641,-0.07934862669993968
12.947624309392266,-0.10499716043446437
12.980994475138122,-0.11393814918678913
13.01436464088398,-0.10442250326802321
13.047734806629835,-0.08267336871947896
13.081104972375691,-0.061180926003246185
13.114475138121549,-0.053242869903211344
13.147845303867404,-0.06620826987349696
13.18121546961326,-0.09692085151313413
13.214585635359118,-0.13194957229069681
13.247955801104974,-0.15284163228441083
13.28132596685083,-0.1441309434830724
13.314696132596685,-0.10047677188279756
13.348066298342543,-0.029687571416774493
13.381436464088399,0.04980657026239683
13.414806629834255,0.11613672304059729
13.448176795580112,0.15304358660677506
13.481546961325968,0.1571841049434619
13.514917127071824,0.14056829568662105
13.548287292817681,0.1266633640337784
13.581657458563537,0.14112715390800162
13.615027624309393,0.20052230264854584
13.648397790055249,0.303655560516101
13.681767955801106,0.42952733676802957
13.715138121546962,0.5432528539013465
13.748508287292818,0.6078295325365983
13.781878453038676,0.5970012521863013
13.815248618784532,0.5040509584783548
13.848618784530387,0.34329369636260654
13.881988950276245,0.14428295231568225
13.9153591160221,-0.05830767752713011
13.948729281767957,-0.2347851614017559
13.982099447513813,-0.36680385223747464
14.01546961325967,-0.4484357546176563
14.048839779005526,-0.48293796577272413
14.082209944751382,-0.47791409337389723
14.11558011049724,-0.4416437850161481
14.148950276243095,-0.3819504677813309
14.182320441988951,-0.3070826829043888
14.215690607734807,-0.22690866144987706
14.249060773480664,-0.1528912021014692
14.28243093922652,-0.0964702368304154
14.315801104972376,-0.06664959941741545
14.349171270718234,-0.06794144878702577
14.38254143646409,-0.09931245140892837
14.415911602209945,-0.15404777211041784
14.449281767955803,-0.2202095157102878
14.482651933701659,-0.28173911462427265
14.516022099447515,-0.3206963313415578
14.54939226519337,-0.3209702507919185
14.582762430939228,-0.2728988073994729
14.616132596685084,-0.17717120838502648
14.64950276243094,-0.04602473895524674
14.682872928176797,0.09944493024759384
14.716243093922653,0.23535747174483088
14.749613259668509,0.34232832501956184
14.782983425414367,0.41103135925144996
14.816353591160222,0.4437212981568487
14.849723756906078,0.45108139710097755
14.883093922651934,0.4457925616145417
14.916464088397792,0.4357411723005191
14.949834254143648,0.42012738254377774
14.983204419889503,0.39060926391083417
15.016574585635361,0.3372779828927769
15.049944751381217,0.2566255046000722
15.083314917127073,0.15710492465789225
15.116685082872928,0.05852912093992459
15.150055248618786,-0.015510983977131111
15.183425414364642,-0.049116439997247754
15.216795580110498,-0.04362690277845367
15.250165745856355,-0.01967886362141088
15.283535911602211,-0.00963027063713358
15.316906077348067,-0.04314934134800663
15.350276243093925,-0.13258626576322433
15.38364640883978,-0.2653059744638368
15.417016574585636,-0.40704424083085317
15.450386740331492,-0.5150998492058273
15.48375690607735,-0.5554454670173189
15.517127071823205,-0.5159887769521453
15.550497237569061,-0.4101157738859248
15.583867403314919,-0.2693005310858559
15.617237569060775,-0.1286599598578627
15.65060773480663,-0.012419875284665663
15.683977900552488,0.07405298799084169
15.717348066298344,0.1424079657558657
15.7507182320442,0.21114688951398805
15.784088397790056,0.2924076123670154
15.817458563535913,0.38213559178398454
15.85082872928177,0.45834826706832166
15.884198895027625,0.4885299805346225
15.917569060773483,0.44323885485771963
15.950939226519338,0.31032674202395405
15.984309392265194,0.10373560637855817
16.01767955801105,-0.13722417967321837
16.051049723756908,-0.35857600854598526
16.084419889502765,-0.5088227037512053
16.11779005524862,-0.5561912560593834
16.151160220994477,-0.4992471304050481
16.18453038674033,-0.3665299204219769
16.21790055248619,-0.20519528954786162
16.251270718232046,-0.06318308541320229
16.2846408839779,0.02781968987883922
16.318011049723758,0.061714060307133424
16.351381215469615,0.056156281888806094
16.38475138121547,0.04111330368548462
16.418121546961327,0.04361417697716548
16.451491712707185,0.07590673030417068
16.48486187845304,0.13209137002580756
16.518232044198896,0.19378784798979523
16.551602209944754,0.2409279907143081
16.584972375690608,0.2616854247053718
16.618342541436466,0.2567437475983644
16.651712707182323,0.23660412431137234
16.685082872928177,0.21434594048796418
16.718453038674035,0.1982472810207177
16.751823204419892,0.1881769636656618
16.785193370165747,0.17726321965012054
16.818563535911604,0.15741266597967402
16.851933701657458,0.1252382054988247
16.885303867403316,0.0847842001501137
16.918674033149173,0.045223875658289975
16.952044198895027,0.014642991163196168
16.985414364640885,-0.006410001238291788
17.018784530386743,-0.02731901942700462
17.052154696132597,-0.06347027183175813
17.085524861878454,-0.12745425180460032
17.118895027624312,-0.2201106237215329
17.152265193370166,-0.32677377720482176
17.185635359116024,-0.42149791238654716
