Time (s),Filtered Signal
0.0,-0.05767154847390215
0.033370165745856356,-0.1157937997549262
0.06674033149171271,-0.12982812256594312
0.10011049723756907,-0.07096914952117164
0.13348066298342542,0.06515327477025559
0.16685082872928178,0.25704505875570843
0.20022099447513814,0.46481881557003
0.2335911602209945,0.6438940822826635
0.26696132596685085,0.7597627594682496
0.30033149171270723,0.7981304801737976
0.33370165745856356,0.7666781465356984
0.3670718232044199,0.6883762316238372
0.4004419889502763,0.5900128091606783
0.43381215469613266,0.49149618565637443
0.467182320441989,0.400602229966763
0.5005524861878453,0.3146909790170609
0.5339226519337017,0.2272665904204541
0.5672928176795581,0.1350585663546644
0.6006629834254145,0.041623386651990335
0.6340331491712707,-0.04408117463755546
0.6674033149171271,-0.11265422629090839
0.7007734806629835,-0.15938433686822184
0.7341436464088398,-0.1864852307431894
0.7675138121546962,-0.20144312641253997
0.8008839779005525,-0.2129429803935331
0.8342541436464089,-0.22711500581983649
0.8676243093922653,-0.24620556295309523
0.9009944751381216,-0.2697866330881905
0.934364640883978,-0.2967376539700217
0.9677348066298344,-0.32583479914267965
1.0011049723756906,-0.3541742057381124
1.0344751381215471,-0.37480834756544296
1.0678453038674034,-0.37621442869915556
1.1012154696132597,-0.3454434618542961
1.1345856353591162,-0.27435838664629003
1.1679558011049724,-0.1658643065596836
1.201325966850829,-0.036243283346846025
1.2346961325966852,0.08864103936623183
1.2680662983425415,0.18224964047018472
1.301436464088398,0.22741576284937384
1.3348066298342542,0.22269671486896872
1.3681767955801105,0.18195330448543048
1.401546961325967,0.12747258282239732
1.4349171270718233,0.08008763317497927
1.4682872928176796,0.051001393246075444
1.501657458563536,0.03889051013084599
1.5350276243093923,0.03311587516216709
1.5683977900552488,0.02097682454125544
1.601767955801105,-0.004716011954306175
1.6351381215469614,-0.04128370099033966
1.6685082872928179,-0.07682719885084935
1.7018784530386741,-0.0953219696570714
1.7352486187845306,-0.08373870391465714
1.768618784530387,-0.0381247153741092
1.8019889502762432,0.0337441939949177
1.8353591160220997,0.11400285449624459
1.868729281767956,0.17984053391048005
1.9020994475138122,0.21023906750069418
1.9354696132596687,0.1921040073788371
1.968839779005525,0.12405265739941172
2.0022099447513813,0.016998102391129043
2.0355801104972375,-0.10844132612738686
2.0689502762430942,-0.2270056049980233
2.1023204419889505,-0.3151730649197726
2.135690607734807,-0.35735211010716644
2.169060773480663,-0.35015026259849363
2.2024309392265193,-0.30312563141408805
2.235801104972376,-0.23524926412562883
2.2691712707182323,-0.167821283895409
2.3025414364640886,-0.11625440921688662
2.335911602209945,-0.08407181500217915
2.369281767955801,-0.06194492883871498
2.402651933701658,-0.03259584005520513
2.436022099447514,0.020292055057434984
2.4693922651933704,0.10310006721178942
2.5027624309392267,0.20756650996372525
2.536132596685083,0.31298648827790776
2.5695027624309392,0.3948145736432866
2.602872928176796,0.4359563272183637
2.636243093922652,0.43534664554875224
2.6696132596685085,0.40927126174008494
2.7029834254143648,0.38415579539444494
2.736353591160221,0.3838093700245316
2.7697237569060777,0.41722900557584613
2.803093922651934,0.4732586728197768
2.8364640883977903,0.5252670626132723
2.8698342541436466,0.5439565865816776
2.903204419889503,0.5120098028651217
2.936574585635359,0.4329313894040706
2.969944751381216,0.3290875249266357
3.003314917127072,0.22943461890587144
3.0366850828729284,0.15302318528177775
3.0700552486187846,0.09708623829059124
3.103425414364641,0.03673336167902469
3.1367955801104976,-0.062410881270852064
3.170165745856354,-0.22420178520831416
3.20353591160221,-0.4448662199531278
3.2369060773480665,-0.6888807434345744
3.2702762430939227,-0.9023923139403474
3.3036464088397794,-1.0399105105127457
3.3370165745856357,-1.0918769203160457
3.370386740331492,-1.0976468825670131
3.4037569060773483,-1.133030933913177
3.4371270718232045,-1.273024366163937
3.4704972375690613,-1.5440577609129316
3.5038674033149175,-1.8891304785915601
3.537237569060774,-2.1676368540418407
3.57060773480663,-2.1981641742653313
3.6039779005524863,-1.8319467964424678
3.6373480662983426,-1.026799891042357
3.6707182320441993,0.11370943895997385
3.7040883977900556,1.358791125219195
3.737458563535912,2.424341923541272
3.770828729281768,3.0736832916240258
3.8041988950276244,3.2026995367696856
3.837569060773481,2.8727479754119956
3.8709392265193374,2.2775518605635052
3.9043093922651937,1.659282048788921
3.93767955801105,1.210797529470069
3.9710497237569062,1.0059250030633828
4.0044198895027625,0.9858709100655643
4.037790055248619,1.003926617088475
4.071160220994475,0.9046199621876239
4.104530386740332,0.5994577168021593
4.1379005524861885,0.10556736631776514
4.171270718232044,-0.4669658157802882
4.204640883977901,-0.9686724812148334
4.238011049723757,-1.2771280616201162
4.271381215469614,-1.3451925728195697
4.30475138121547,-1.2116948240857377
4.338121546961326,-0.9745159084088834
4.371491712707183,-0.7430358888621956
4.404861878453039,-0.5938396821292379
4.438232044198895,-0.5484335821987183
4.471602209944752,-0.5786254204993183
4.504972375690608,-0.6316293436220187
4.538342541436465,-0.6594831814600516
4.5717127071823205,-0.6385641413894811
4.605082872928177,-0.5726965404101952
4.638453038674034,-0.4825704309229998
4.67182320441989,-0.39012108565407716
4.7051933701657465,-0.30691780748127756
4.738563535911602,-0.23145310819689582
4.771933701657459,-0.15456739063919006
4.805303867403316,-0.06823117377716947
4.8386740331491715,0.02785263151174055
4.872044198895028,0.12521902872896026
4.905414364640884,0.21115590291327127
4.938784530386741,0.27586131187606855
4.972154696132597,0.3182101188417585
5.005524861878453,0.34697355916710626
5.03889502762431,0.3766433886733322
5.072265193370166,0.41966645079827974
5.105635359116023,0.4787363931711419
5.1390055248618784,0.5430074752158386
5.172375690607735,0.5905312312865727
5.205745856353592,0.5964549673737524
5.239116022099448,0.5437312140148155
5.272486187845304,0.4315929124451284
5.30585635359116,0.27771537688544784
5.339226519337017,0.11269011937379118
5.372596685082874,-0.03102440265544
5.4059668508287295,-0.13088272003264217
5.439337016574586,-0.1816136553927682
5.472707182320442,-0.19511181902774394
5.506077348066299,-0.1932649055714592
5.5394475138121555,-0.19720413756236224
5.572817679558011,-0.21776613407352885
5.606187845303868,-0.25107403524370764
5.639558011049724,-0.2807288691139391
5.672928176795581,-0.28534940572780937
5.706298342541437,-0.24823309658585857
5.739668508287293,-0.1653436213088006
5.77303867403315,-0.048651979075158384
5.806408839779006,0.07640306019528187
5.839779005524862,0.17855734195085438
5.873149171270718,0.23097899569088884
5.906519337016575,0.22066813618062145
5.939889502762432,0.15356521096553757
5.9732596685082875,0.053164146860139
6.006629834254144,-0.04730880008068158
6.04,-0.1164773253965141
6.073370165745857,-0.13567010282467948
6.1067403314917135,-0.1046042995888641
6.140110497237569,-0.039612420727072696
6.173480662983426,0.034495825085062604
6.206850828729282,0.09492609837312711
6.240220994475139,0.12882027024598863
6.273591160220995,0.1352854328368123
6.306961325966851,0.12147789461492206
6.340331491712708,0.09580334891887902
6.373701657458564,0.06251216993007513
6.40707182320442,0.020661305640450826
6.440441988950277,-0.03253138691906397
6.473812154696133,-0.09664820867808903
6.50718232044199,-0.16493748553097093
6.5405524861878455,-0.2252879731192669
6.573922651933702,-0.2648615447096268
6.607292817679559,-0.27570557260443407
6.640662983425415,-0.2581613568950937
6.674033149171271,-0.22026572763501462
6.707403314917127,-0.17365697685584297
6.740773480662984,-0.12834132766385434
6.774143646408841,-0.08904942409302925
6.8075138121546965,-0.05474734067087051
6.840883977900553,-0.02098501086867041
6.874254143646409,0.016682624955607548
6.907624309392266,0.06020545863152433
6.9409944751381225,0.10853708340568809
6.974364640883978,0.15878182771065533
7.007734806629835,0.20772110706806238
7.041104972375691,0.2525136029707601
7.074475138121548,0.2902403658999283
7.107845303867403,0.31696380340814384
7.14121546961326,0.3273923287885389
7.174585635359117,0.31585021167194843
7.207955801104973,0.27836496997657817
7.241325966850829,0.21490827092212092
7.274696132596685,0.13063944829138574
7.308066298342542,0.035481828063703945
7.341436464088399,-0.0578178630058161
7.3748066298342545,-0.13635299958076247
7.408176795580111,-0.18955535228889364
7.441546961325967,-0.21106365088739426
7.474917127071824,-0.20000509629968832
7.5082872928176805,-0.16182947190741265
7.541657458563536,-0.10842180686141423
7.575027624309393,-0.05673736619728209
7.608397790055249,-0.025288656711866236
7.641767955801106,-0.028726733522794565
7.675138121546962,-0.0720816803724347
7.708508287292818,-0.14710281790200852
7.741878453038675,-0.23285339493310994
7.775248618784531,-0.3011961728929037
7.808618784530387,-0.3257108649846388
7.841988950276244,-0.290923043456155
7.8753591160221,-0.1983024364742197
7.908729281767957,-0.0665200008910118
7.9420994475138125,0.07445968751136331
7.975469613259669,0.19349826089513592
8.008839779005525,0.268868909391426
8.042209944751383,0.29511184445488736
8.075580110497238,0.2832574177723507
8.108950276243094,0.2542534701304091
8.14232044198895,0.22851308458787442
8.175690607734808,0.2163993719336097
8.209060773480664,0.21408395808806974
8.24243093922652,0.20661180484791394
8.275801104972377,0.17647013800950123
8.309171270718233,0.11332659387751526
8.342541436464089,0.02020380614612437
8.375911602209946,-0.08670122913122731
8.409281767955802,-0.18418042184945838
8.442651933701658,-0.25105000202303357
8.476022099447514,-0.2759104057620562
8.509392265193371,-0.2604454230313047
8.542762430939227,-0.21734701988941355
8.576132596685083,-0.16433310813970609
8.60950276243094,-0.11714817014845352
8.642872928176796,-0.08443047158949189
8.676243093922652,-0.06612834716467862
8.709613259668508,-0.05546193618118981
8.742983425414366,-0.04304569449291632
8.776353591160222,-0.021222112756354296
8.809723756906077,0.01302809234588243
8.843093922651935,0.05735853765692012
8.87646408839779,0.10531111043988146
8.909834254143647,0.14869578139456605
8.943204419889504,0.1800675055902962
8.97657458563536,0.19452602561989982
9.009944751381216,0.1905277962150216
9.043314917127072,0.16979655998424767
9.07668508287293,0.1365760028533059
9.110055248618785,0.09643152792667013
9.143425414364641,0.05479353048909983
9.176795580110499,0.01558736317388809
9.210165745856354,-0.01950848918758564
9.24353591160221,-0.050703503129425745
9.276906077348068,-0.07865954686107351
9.310276243093924,-0.10270121968417392
9.34364640883978,-0.11980440767148652
9.377016574585635,-0.12524890195294652
9.410386740331493,-0.11496966431438563
9.443756906077349,-0.08862305298433129
9.477127071823205,-0.05174610634139979
9.510497237569062,-0.015501615489102963
9.543867403314918,0.006584778662712138
9.577237569060774,0.0040846404808576675
9.610607734806631,-0.02479858447173358
9.643977900552487,-0.07030024804150076
9.677348066298343,-0.1128104680838914
9.710718232044199,-0.12948790772839805
9.744088397790057,-0.10372907770179322
9.777458563535912,-0.03368819391839629
9.810828729281768,0.06420630417967058
9.844198895027626,0.15913787910014388
9.877569060773482,0.21654442736961774
9.910939226519337,0.2117139421549073
9.944309392265193,0.1407526780895584
9.97767955801105,0.02393899971288235
10.011049723756907,-0.1005970163942438
10.044419889502763,-0.19082384525416096
10.07779005524862,-0.21688724635516654
10.111160220994476,-0.17265958305246035
10.144530386740332,-0.07788735200081784
10.17790055248619,0.0299533715128792
10.211270718232045,0.11060759323811423
10.244640883977901,0.13652589408121554
10.278011049723757,0.10262262934204575
10.311381215469615,0.026742104240360973
10.34475138121547,-0.058683066657071355
10.378121546961326,-0.11974831150581264
10.411491712707184,-0.13339023393237903
10.44486187845304,-0.09426501410585718
10.478232044198895,-0.014320212164408807
10.511602209944753,0.0836654514710702
10.544972375690609,0.1751792435409189
10.578342541436465,0.24193297557950133
10.61171270718232,0.27606279608349393
10.645082872928178,0.2798319685909953
10.678453038674034,0.2618382100828171
10.71182320441989,0.23177738948737187
10.745193370165747,0.19600976049598015
10.778563535911603,0.15560432865052312
10.811933701657459,0.1074405280595839
10.845303867403315,0.04767404161065003
10.878674033149172,-0.024148197809512616
10.912044198895028,-0.10240265838479536
10.945414364640884,-0.1756863199923768
10.978784530386742,-0.23033799201639982
11.012154696132598,-0.255836145360528
11.045524861878453,-0.24962266830390525
11.078895027624311,-0.21894010261154914
11.112265193370167,-0.17857015848365626
11.145635359116023,-0.14533153833795573
11.179005524861878,-0.13179422802163163
11.212375690607736,-0.14200791855879022
11.245745856353592,-0.1709444428809305
11.279116022099448,-0.20746496430332495
11.312486187845305,-0.2390110898883473
11.345856353591161,-0.255722239906549
11.379226519337017,-0.2524297919988566
11.412596685082875,-0.22838338910716668
11.44596685082873,-0.18573598255124657
11.479337016574586,-0.12811054005913627
11.512707182320442,-0.05995850408759681
11.5460773480663,0.0135450925827803
11.579447513812156,0.08687251334529508
11.612817679558011,0.15527589353784874
11.646187845303869,0.21626884948069142
11.679558011049725,0.270323150317699
11.71292817679558,0.31981553042095234
11.746298342541436,0.3663405089987884
11.779668508287294,0.4077805357970854
11.81303867403315,0.4370676600427286
11.846408839779006,0.4439077253148945
11.879779005524863,0.4191571121456543
11.91314917127072,0.35990515812917845
11.946519337016575,0.27257014164144
11.979889502762433,0.17199221514102203
12.013259668508288,0.07640430685914702
12.046629834254144,0.0003749330220653755
12.08,-0.050870124076295736
12.113370165745858,-0.08278881846958665
12.146740331491714,-0.10770459064305793
12.18011049723757,-0.13773697251647543
12.213480662983427,-0.1781696750820638
12.246850828729283,-0.22471460700618742
12.280220994475139,-0.2659911681189909
12.313591160220996,-0.28971462921705443
12.346961325966852,-0.2891721638287874
12.380331491712708,-0.26657566379034825
12.413701657458564,-0.2316968160847992
12.447071823204421,-0.19671458245023207
12.480441988950277,-0.17006877701736536
12.513812154696133,-0.15243946812703008
12.54718232044199,-0.136753932884168
12.580552486187846,-0.11209230266169275
12.613922651933702,-0.06953993260811686
12.64729281767956,-0.007235517593621957
12.680662983425416,0.06763725511968868
12.714033149171271,0.14071365487447993
12.747403314917127,0.19529912559375212
12.780773480662985,0.21819278753341156
12.81414364640884,0.20423107782672198
12.847513812154697,0.15792358583600183
12.880883977900554,0.09170057479808837
12.91425414364641,0.021538351671053977
12.947624309392266,-0.0383205039280623
12.980994475138122,-0.07950424703830858
13.01436464088398,-0.1009275630009642
13.047734806629835,-0.10708116849163019
13.081104972375691,-0.10422872417629499
13.114475138121549,-0.0965721188597394
13.147845303867404,-0.08447431986936532
13.18121546961326,-0.06571341587372903
13.214585635359118,-0.038965481059798
13.247955801104974,-0.007230453748782734
13.28132596685083,0.02133585046277233
13.314696132596685,0.03639911772681689
13.348066298342543,0.03114699811524203
13.381436464088399,0.0076527311426090655
13.414806629834255,-0.021515295030243173
13.448176795580112,-0.037165153285349604
13.481546961325968,-0.021618207308932005
13.514917127071824,0.03266941122378396
13.548287292817681,0.11843630757445944
13.581657458563537,0.21556598542402194
13.615027624309393,0.29899412296555655
13.648397790055249,0.34878823291935807
13.681767955801106,0.35743281844009755
13.715138121546962,0.33081336068651723
13.748508287292818,0.2827459746314019
13.781878453038676,0.2263187632339667
13.815248618784532,0.1669041922253863
13.848618784530387,0.10060688953220408
13.881988950276245,0.01879320323722533
13.9153591160221,-0.08401795815254681
13.948729281767957,-0.20340335347283547
13.982099447513813,-0.32323512222282474
14.01546961325967,-0.41998251590968516
14.048839779005526,-0.471146707323581
14.082209944751382,-0.463927024470354
14.11558011049724,-0.4003260247658428
14.148950276243095,-0.29673516904675135
14.182320441988951,-0.17847911707906985
14.215690607734807,-0.07167680748317144
14.249060773480664,0.004511824302586983
14.28243093922652,0.04263989008219828
14.315801104972376,0.04737728354390101
14.349171270718234,0.03181603473888791
14.38254143646409,0.01138609579955343
14.415911602209945,-0.0020742489531932243
14.449281767955803,-0.0036892472841363547
14.482651933701659,0.0048881419618098
14.516022099447515,0.019183934193356744
14.54939226519337,0.03672001765936626
14.582762430939228,0.06009898776580706
14.616132596685084,0.09626125566514913
14.64950276243094,0.15180232909953834
14.682872928176797,0.22658612816974416
14.716243093922653,0.309349913545001
14.749613259668509,0.3785556899410422
14.782983425414367,0.4092981430328935
14.816353591160222,0.38371957709096954
14.849723756906078,0.2999641781412488
14.883093922651934,0.17481339418105643
14.916464088397792,0.03803583495526677
14.949834254143648,-0.07926478265707929
14.983204419889503,-0.15678977924094586
15.016574585635361,-0.19185694660435001
15.049944751381217,-0.19791493532968296
15.083314917127073,-0.19615967810695048
15.116685082872928,-0.20504424454374
15.150055248618786,-0.23304102915091154
15.183425414364642,-0.27761856386652295
15.216795580110498,-0.32961298261369854
15.250165745856355,-0.3792963627550289
15.283535911602211,-0.42008539855483523
15.316906077348067,-0.44800279628413725
15.350276243093925,-0.45817790845143364
15.38364640883978,-0.4417992319596573
15.417016574585636,-0.38669939259783825
15.450386740331492,-0.2823513909922489
15.48375690607735,-0.1269870520047806
15.517127071823205,0.06730374942721129
15.550497237569061,0.2751051668949093
15.583867403314919,0.46472613145375413
15.617237569060775,0.6091581641730165
15.65060773480663,0.6959393678314486
15.683977900552488,0.7309846652273428
15.717348066298344,0.7340460774287089
15.7507182320442,0.7274189360207508
15.784088397790056,0.7229365496793019
15.817458563535913,0.7135407754029812
15.85082872928177,0.6740825441506141
15.884198895027625,0.5720520273922081
15.917569060773483,0.3842689888156838
15.950939226519338,0.11224598063864973
15.984309392265194,-0.21131605175366353
16.01767955801105,-0.5291034041505622
16.051049723756908,-0.7772863332000138
16.084419889502765,-0.908022102554759
16.11779005524862,-0.9067225407047805
16.151160220994477,-0.7964564799869358
16.18453038674033,-0.6275889332560857
16.21790055248619,-0.457422138988003
16.251270718232046,-0.32893529854899917
16.2846408839779,-0.2576850734564568
16.318011049723758,-0.23169143309561074
16.351381215469615,-0.22287893527830005
16.38475138121547,-0.20345097427320852
16.418121546961327,-0.15890862278539009
16.451491712707185,-0.09193894783965244
16.48486187845304,-0.016613973374248737
16.518232044198896,0.05257173573193349
16.551602209944754,0.11001132587567469
16.584972375690608,0.1614064504275328
16.618342541436466,0.2184052662078197
16.651712707182323,0.2891136898913768
16.685082872928177,0.3703564168053799
16.718453038674035,0.44636238575358334
16.751823204419892,0.49479685449412786
16.785193370165747,0.4969780499695248
16.818563535911604,0.44693534279090047
16.851933701657458,0.35471329372308763
16.885303867403316,0.24238752365079003
16.918674033149173,0.13489197328491587
16.952044198895027,0.05012452013781405
16.985414364640885,-0.0071221642290854896
17.018784530386743,-0.04490759014351504
17.052154696132597,-0.07814095178874148
17.085524861878454,-0.12001279834380427
17.118895027624312,-0.1750177013877539
17.152265193370166,-0.23669385113872682
17.185635359116024,-0.2907701088669295
17.21900552486188,-0.3218259648609095
