Frequency (Hz),Amplitude
0.0,4.222703790856203
0.019801980198019802,4.220937671142482
0.039603960396039604,4.215641860925947
0.0594059405940594,4.206824011379918
0.07920792079207921,4.194496889229534
0.09900990099009901,4.178678399275153
0.1188118811881188,4.159391616672396
0.13861386138613863,4.136664829736119
0.15841584158415842,4.1105315942855505
0.1782178217821782,4.081030800820594
0.19801980198019803,4.048206756122589
0.21782178217821782,4.012109281213927
0.2376237623762376,3.972793827997453
0.25742574257425743,3.9303216173394047
0.27722772277227725,3.8847598018680936
0.297029702970297,3.8361816573484075
0.31683168316831684,3.7846668071728202
0.33663366336633666,3.7303014852989933
0.3564356435643564,3.6731788438797066
0.37623762376237624,3.6133993128915423
0.39603960396039606,3.5510710202935165
0.4158415841584158,3.4863102826547636
0.43564356435643564,3.4192421777960216
0.45544554455445546,3.3500012128015673
0.4752475247524752,3.2787321027712655
0.495049504950495,3.2055906778670162
0.5148514851485149,3.130744938497521
0.5346534653465347,3.0543762807508585
0.5544554455445545,2.9766809162014556
0.5742574257425742,2.8978715116177547
0.594059405940594,2.8181790742936754
0.613861386138614,2.737855106821939
0.6336633663366337,2.6571740497736775
0.6534653465346534,2.5764360199845444
0.6732673267326733,2.4959698331952564
0.6930693069306931,2.416136268862823
0.7128712871287128,2.337331487111907
0.7326732673267327,2.2599904370507384
0.7524752475247525,2.1845899955843673
0.7722772277227723,2.1116514410394145
0.7920792079207921,2.0417416951367935
0.8118811881188118,1.9754725683598053
0.8316831683168316,1.913497043137327
0.8514851485148516,1.8565014787522847
0.8712871287128713,1.805192607385013
0.891089108910891,1.760278428051442
0.9108910891089109,1.7224427137513862
0.9306930693069307,1.6923138906710045
0.9504950495049505,1.6704304495117017
0.9702970297029703,1.6572065169772843
0.99009900990099,1.6529022571956187
1.00990099009901,1.6576038512962772
1.0297029702970297,1.6712166160185917
1.0495049504950495,1.6934725470255287
1.0693069306930694,1.7239508800025691
1.0891089108910892,1.7621080260530761
1.108910891089109,1.807312109410381
1.1287128712871286,1.8588774681545672
1.1485148514851484,1.9160955526241927
1.1683168316831685,1.9782601308708239
1.188118811881188,2.044686099919792
1.2079207920792079,2.1147222253557305
1.227722772277228,2.1877587210265057
1.2475247524752475,2.263230803570868
1.2673267326732673,2.3406193332684113
1.2871287128712872,2.4194494982142594
1.3069306930693068,2.4992882973392456
1.3267326732673268,2.579741380159192
1.3465346534653466,2.660449631915069
1.3663366336633662,2.741085759611923
1.3861386138613863,2.8213510358557796
1.405940594059406,2.9009722878385378
1.4257425742574257,2.9796991718794392
1.4455445544554455,3.057301743653393
1.4653465346534653,3.13356831573889
1.4851485148514851,3.2083035836597738
1.504950495049505,3.2813269964406238
1.5247524752475248,3.352471345914657
1.5445544554455446,3.4215815492943706
1.5643564356435644,3.4885136009554767
1.5841584158415842,3.553133671421448
1.6039603960396038,3.615317333807816
1.6237623762376237,3.674948900273093
1.6435643564356437,3.7319208532021624
1.6633663366336633,3.7861333578525254
1.683168316831683,3.8374938449966223
1.7029702970297032,3.885916653690657
1.7227722772277227,3.931322725699306
1.7425742574257426,3.9736393443233085
1.7623762376237624,4.0127999114306485
1.782178217821782,4.0487437574016765
1.801980198019802,4.081415979483293
1.8217821782178218,4.1107673047230495
1.8415841584158414,4.1367539742384976
1.8613861386138615,4.15933764608277
1.881188118811881,4.178485314407272
1.900990099009901,4.194169243007278
1.920792079207921,4.206366911675378
1.9405940594059405,4.2150609740901395
1.9603960396039604,4.220239226238982
1.98019801980198,4.221894584623591
2.0,4.220025073726914
2.01980198019802,4.214633822440363
2.0396039603960396,4.205729069361534
2.0594059405940595,4.1933241770828635
2.0792079207920793,4.177437655803886
2.099009900990099,4.158093196819527
2.118811881188119,4.135319716669201
2.1386138613861387,4.1091514129813556
2.1584158415841586,4.079627833321901
2.1782178217821784,4.046793958658746
2.1980198019801978,4.01070030339573
2.217821782178218,3.971403034316102
2.237623762376238,3.928964111217392
2.257425742574257,3.883451452526345
2.2772277227722775,3.8349391297675153
2.297029702970297,3.7835075954343482
2.3168316831683167,3.7292439495932
2.336633663366337,3.6722422514545516
2.3564356435643563,3.6126038831886436
2.376237623762376,3.5504379744630405
2.3960396039603964,3.485861897551643
2.4158415841584158,3.419001844421073
2.4356435643564356,3.3499934989433786
2.455445544554456,3.278982819301962
2.4752475247524752,3.2061269477129404
2.495049504950495,3.131595266697494
2.514851485148515,3.0555706231697086
2.5346534653465347,2.978250743305415
2.5544554455445545,2.899849862140359
2.5742574257425743,2.8206005915010763
2.594059405940594,2.740756047274764
2.6138613861386135,2.660592250810464
2.633663366336634,2.5804108074473513
2.6534653465346536,2.5005418450451997
2.673267326732673,2.4213471632563692
2.6930693069306932,2.3432234954195446
2.712871287128713,2.2666057138047595
2.7326732673267324,2.19196970975423
2.7524752475247527,2.119834548737914
2.7722772277227725,2.0507633367209417
2.792079207920792,1.9853620484830894
2.811881188118812,1.9242753876387366
2.8316831683168315,1.8681786243359837
2.8514851485148514,1.8177643726113657
2.8712871287128716,1.7737235323960847
2.891089108910891,1.736720235675294
2.910891089108911,1.7073616475553537
2.9306930693069306,1.6861647902662493
2.9504950495049505,1.6735238957114908
2.9702970297029703,1.6696826919870773
2.99009900990099,1.6747160139324915
3.00990099009901,1.6885239517222868
3.0297029702970297,1.7108396086668902
3.0495049504950495,1.7412490555440852
3.0693069306930694,1.7792200324929293
3.089108910891089,1.8241349367778683
3.108910891089109,1.8753237716725735
3.128712871287129,1.932093724490465
3.148514851485148,1.9937534016344374
3.1683168316831685,2.059631035480824
3.1881188118811883,2.1290869349194486
3.2079207920792077,2.2015210114757777
3.227722772277228,2.2763764342161052
3.2475247524752473,2.3531404567160696
3.267326732673267,2.431343323125375
3.2871287128712874,2.5105559761632152
3.3069306930693068,2.59038710599335
3.3267326732673266,2.670479919449614
3.346534653465347,2.7505088822038837
3.366336633663366,2.8301765915256443
3.386138613861386,2.9092108696143013
3.4059405940594063,2.9873621212981996
3.4257425742574257,3.0644009697145256
3.4455445544554455,3.1401161648383953
3.4653465346534653,3.2143127488714303
3.485148514851485,3.2868104569033907
3.504950495049505,3.3574423290572857
3.5247524752475248,3.426053510222312
3.5445544554455446,3.492500214598542
3.564356435643564,3.55664883404773
3.5841584158415842,3.6183751713006065
3.603960396039604,3.677563781185845
3.6237623762376234,3.734107405088012
3.6435643564356437,3.7879064857384015
3.6633663366336635,3.838868751161775
3.683168316831683,3.8869088581332636
3.702970297029703,3.9319480868482737
3.722772277227723,3.973914079686288
3.7425742574257423,4.012740617973133
3.762376237623762,4.048367431532715
3.7821782178217824,4.080740036585811
3.801980198019802,4.109809598216272
3.8217821782178216,4.135532814198824
3.841584158415842,4.1578718174805935
3.8613861386138613,4.176794095042856
3.881188118811881,4.192272421250069
3.9009900990099013,4.204284804129681
3.9207920792079207,4.212814443326265
3.9405940594059405,4.217849698744451
3.96039603960396,4.219384069143119
3.98019801980198,4.217416180174493
4.0,4.211949781581116
4.01980198019802,4.20299375347585
4.03960396039604,4.1905621218408005
4.0594059405940595,4.174674083593965
4.079207920792079,4.155354041792851
4.099009900990099,4.132631651777208
4.118811881188119,4.106541879303123
4.138613861386139,4.077125071994621
4.158415841584159,4.044427045741531
4.178217821782178,4.008499188012148
4.198019801980198,3.969398580432492
4.217821782178218,3.927188143420749
4.237623762376238,3.8819368061644925
4.257425742574258,3.833719705801466
4.2772277227722775,3.782618420323297
4.297029702970297,3.7287212404797407
4.316831683168317,3.672123486831455
4.336633663366336,3.6129278790973234
4.356435643564357,3.551244966079611
4.376237623762377,3.4871936257377847
4.3960396039603955,3.420901646422945
4.415841584158416,3.352506401873328
4.435643564356436,3.2821556342823515
4.455445544554455,3.210008361530668
4.475247524752476,3.1362359264237996
4.4950495049504955,3.0610232073293893
4.514851485148514,2.984570010691616
4.534653465346535,2.9070926660928262
4.554455445544555,2.828825843193105
4.574257425742574,2.7500246060612152
4.594059405940594,2.670966712749167
4.613861386138614,2.5919551545402735
4.633663366336633,2.5133209075086804
4.653465346534653,2.4354258354650526
4.673267326732674,2.358665633847801
4.693069306930693,2.283472633974467
4.712871287128713,2.210318191925608
4.732673267326733,2.139714263818752
4.752475247524752,2.072213621979779
4.772277227722772,2.008408006844369
4.792079207920793,1.9489233654493276
4.811881188118812,1.894411249109625
4.8316831683168315,1.8455355043869424
4.851485148514852,1.802953682430269
4.871287128712871,1.7672931905031515
4.891089108910891,1.73912313374889
4.910891089108912,1.7189239418317526
4.930693069306931,1.7070579821800353
4.9504950495049505,1.7037450423827738
4.97029702970297,1.7090464424589873
4.99009900990099,1.7228604471310602
5.00990099009901,1.7449297828691228
5.02970297029703,1.7748599532328753
5.0495049504950495,1.812145330699885
5.069306930693069,1.856199145320807
5.089108910891089,1.9063835908461966
5.108910891089109,1.9620370920913761
5.128712871287129,2.0224969268524884
5.148514851485149,2.0871165065783046
5.1683168316831685,2.155277469310599
5.188118811881188,2.2263972574674713
5.207920792079208,2.299933079866456
5.227722772277227,2.375383176809668
5.247524752475248,2.452286206688763
5.267326732673268,2.530219420906491
5.2871287128712865,2.6087961352261737
5.306930693069307,2.68766286363323
5.326732673267327,2.7664963648627237
5.346534653465346,2.8450007629611602
5.366336633663367,2.9229048385234897
5.3861386138613865,2.999959542013763
5.405940594059405,3.0759357502283207
5.425742574257426,3.150622267486492
5.445544554455446,3.2238240613284384
5.465346534653465,3.295360715933147
5.485148514851486,3.365065083369431
5.504950495049505,3.432782111907118
5.524752475247524,3.498367831080532
5.544554455445545,3.5616884744323642
5.564356435643565,3.6226197224919345
5.584158415841584,3.6810460503166054
5.603960396039604,3.736860165699037
5.623762376237624,3.7899625258316423
5.643564356435643,3.840260921776592
5.663366336633663,3.887670121496316
5.683168316831684,3.932111563452146
5.702970297029703,3.9735130938832106
5.7227722772277225,4.011808741845319
5.742574257425743,4.0469385269331015
5.762376237623762,4.078848295343274
5.782178217821782,4.107489580574752
5.801980198019803,4.132819485617281
5.821782178217822,4.154800583964388
5.841584158415841,4.173400837210998
5.861386138613861,4.188593527369285
5.881188118811881,4.200357202367852
5.900990099009901,4.2086756334957816
5.920792079207921,4.2135377838220265
5.9405940594059405,4.214937786867207
5.96039603960396,4.212874935035549
5.98019801980198,4.207353677533881
6.0,4.198383627717171
6.01980198019802,4.185979580011033
6.03960396039604,4.17016153677498
6.0594059405940595,4.150954745690803
6.079207920792079,4.128389748492904
6.099009900990099,4.102502442106938
6.118811881188119,4.073334153534448
6.138613861386139,4.040931730121085
6.158415841584159,4.005347647179614
6.178217821782178,3.9666401353146856
6.198019801980198,3.9248733302207572
6.217821782178218,3.8801174482068483
6.237623762376237,3.8324489912514164
6.257425742574258,3.7819509860167124
6.2772277227722775,3.7287132619655026
6.297029702970296,3.672832774533439
6.316831683168317,3.614413980227236
6.336633663366337,3.5535692715473957
6.356435643564356,3.490419480777192
6.376237623762377,3.425094462929117
6.396039603960396,3.357733769475356
6.415841584158415,3.2884874258683023
6.435643564356436,3.2175168272043795
6.455445544554456,3.144995767574648
6.475247524752475,3.0711116194806456
6.495049504950495,2.996066679868791
6.514851485148515,2.9200796983970885
6.534653465346534,2.8433876008293772
6.554455445544554,2.7662474150070544
6.574257425742575,2.6889383973554177
6.594059405940594,2.6117643425529993
6.6138613861386135,2.5350560354961456
6.633663366336634,2.459173770131968
6.653465346534653,2.3845098107850857
6.673267326732673,2.3114906049207353
6.693069306930694,2.240578469411012
6.712871287128713,2.1722723654036686
6.732673267326732,2.1071072551886707
6.752475247524753,2.0456514124147143
6.772277227722772,1.9885009624397736
6.792079207920792,1.9362709070579152
6.811881188118813,1.8895819975559967
6.8316831683168315,1.8490431275624664
6.851485148514851,1.8152294690426078
6.871287128712871,1.7886573608089604
6.891089108910891,1.7697578720755418
6.910891089108911,1.7588517843458416
6.930693069306931,1.7561291706674365
6.9504950495049505,1.7616365428645702
6.97029702970297,1.7752735976191123
6.99009900990099,1.7968000961767956
7.00990099009901,1.8258517630002673
7.02970297029703,1.8619627551335078
7.0495049504950495,1.90459157079718
7.069306930693069,1.9531473103256958
7.089108910891089,2.00701381131487
7.108910891089109,2.0655700658689287
7.128712871287128,2.1282062155731443
7.148514851485149,2.1943351288765385
7.1683168316831685,2.263400027356834
7.188118811881187,2.334878856895742
7.207920792079208,2.4082861543184904
7.227722772277228,2.483173105255017
7.247524752475247,2.5591263801170436
7.267326732673268,2.6357662105455786
7.287128712871287,2.7127440509992513
7.306930693069306,2.7897400699905983
7.326732673267327,2.866460635921822
7.346534653465347,2.942635902446775
7.366336633663366,3.0180175548616344
7.3861386138613865,3.0923767487839604
7.405940594059406,3.1655022521117626
7.425742574257425,3.23719878825866
7.445544554455446,3.3072855708054014
7.465346534653466,3.3755950153784204
7.485148514851485,3.4419716125870163
7.504950495049505,3.506270945383238
7.524752475247524,3.568358834671441
7.544554455445544,3.6281105979928685
7.564356435643565,3.685410407382227
7.584158415841584,3.740150733868936
7.603960396039604,3.792231867471376
7.623762376237624,3.8415615028447196
7.643564356435643,3.8880543819600506
7.663366336633663,3.9316319862977065
7.683168316831684,3.9722222720293123
7.702970297029703,4.009759442543285
7.7227722772277225,4.044183753445778
7.742574257425743,4.075441345852311
7.762376237623762,4.1034841043851
7.782178217821782,4.128269536817261
7.801980198019803,4.149760672767884
7.821782178217822,4.167925979259522
7.841584158415841,4.182739291311491
7.861386138613862,4.1941797560644964
7.881188118811881,4.202231789222992
7.900990099009901,4.20688504286556
7.92079207920792,4.208134383917852
7.9405940594059405,4.205979882810936
7.96039603960396,4.200426812065799
7.980198019801979,4.191485654756622
8.0,4.179172123015136
8.01980198019802,4.163507186950881
8.03960396039604,4.14451711458084
8.05940594059406,4.122233523592288
8.07920792079208,4.096693446007629
8.099009900990099,4.067939407086254
8.118811881188119,4.036019520089439
8.138613861386139,4.00098759885642
8.158415841584159,3.9629032904988297
8.178217821782178,3.9218322309225533
8.198019801980198,3.87784622633784
8.217821782178218,3.83102346442648
8.237623762376238,3.7814487594061803
8.257425742574258,3.729213835872194
8.277227722772277,3.6744176570103417
8.297029702970297,3.617166803564746
8.316831683168317,3.557575910805907
8.336633663366337,3.4957681716702567
8.356435643564357,3.4318759152096576
8.376237623762377,3.3660412704605496
8.396039603960396,3.298416926753917
8.415841584158416,3.2291670022388295
8.435643564356436,3.1584680328300707
8.455445544554456,3.0865100936868197
8.475247524752476,3.013498064352409
8.495049504950495,2.939653046361916
8.514851485148515,2.865213937794437
8.534653465346535,2.7904391620097724
8.554455445544555,2.7156085364673315
8.574257425742575,2.641025250542979
8.594059405940595,2.5670178967540687
8.613861386138613,2.493942465626001
8.633663366336634,2.422184168403626
8.653465346534654,2.352158892224354
8.673267326732672,2.2843140189200417
8.693069306930694,2.219128253873997
8.712871287128714,2.1571100228913345
8.732673267326732,2.098793917964567
8.752475247524753,2.044734632148414
8.772277227722773,1.9954978550363578
8.792079207920791,1.9516477461186603
8.811881188118813,1.913730902747802
8.831683168316832,1.8822572093728036
8.85148514851485,1.8576785650301253
8.871287128712872,1.8403671393731211
8.891089108910892,1.8305953395159635
8.91089108910891,1.828519886300871
8.930693069306932,1.834172147644669
8.950495049504951,1.8474561311079056
8.97029702970297,1.8681544379460968
8.990099009900991,1.8959413015141588
9.00990099009901,1.9304008804803439
9.029702970297029,1.9710484695479562
9.04950495049505,2.017352283664565
9.06930693069307,2.0687538683068065
9.089108910891088,2.1246858048769277
9.10891089108911,2.184586029734947
9.12871287128713,2.247908634479795
9.148514851485148,2.31413140125719
9.16831683168317,2.382760546361784
9.188118811881187,2.4533332290006293
9.207920792079207,2.5254183725360733
9.227722772277229,2.5986162827938193
9.247524752475247,2.6725574626006368
9.267326732673267,2.746900933523961
9.287128712871288,2.821332295884404
9.306930693069306,2.8955616912960727
9.326732673267326,2.969321779176305
9.346534653465348,3.0423657987035027
9.366336633663366,3.114465758555693
9.386138613861386,3.1854107762185007
9.405940594059407,3.2550055746684565
9.425742574257425,3.3230691350989243
9.445544554455445,3.389433498692854
9.465346534653467,3.4539427072144235
9.485148514851485,3.516451870612906
9.504950495049505,3.576826349346049
9.524752475247526,3.634941039337399
9.544554455445544,3.6906797481064664
9.564356435643564,3.74393465146412
9.584158415841586,3.7946058211230254
9.603960396039604,3.8426008145543062
9.623762376237623,3.8878343193771103
9.643564356435645,3.930227845467998
9.663366336633663,3.9697094588086044
9.683168316831683,4.006213551845114
9.702970297029704,4.039680645813596
9.722772277227723,4.070057221093586
9.742574257425742,4.097295572193917
9.762376237623764,4.121353684456807
9.782178217821782,4.142195129994462
9.801980198019802,4.159788980754582
9.821782178217823,4.1741097369525395
9.841584158415841,4.185137269415829
9.861386138613861,4.192856774665427
9.881188118811881,4.197258741814396
9.900990099009901,4.198338930601479
9.92079207920792,4.196098360101017
9.94059405940594,4.190543307863536
9.96039603960396,4.181685319449932
9.98019801980198,4.169541228527573
10.0,4.154133187904447
10.01980198019802,4.135488712091176
10.03960396039604,4.113640732203013
10.05940594059406,4.0886276642501125
10.07920792079208,4.0604934921173275
10.099009900990099,4.029287866808961
10.118811881188119,3.9950662238335504
10.138613861386139,3.9578899209329124
10.158415841584159,3.9178263987223247
10.178217821782178,3.8749493672093474
10.198019801980198,3.829339021599833
10.217821782178218,3.7810822912842807
10.237623762376238,3.730273126425504
10.257425742574258,3.6770128271381957
10.277227722772277,3.6214104208544047
10.297029702970297,3.563583094094572
10.316831683168317,3.503656685486822
10.336633663366337,3.441766247462633
10.356435643564357,3.378056684547023
10.376237623762377,3.3126834764723285
10.396039603960396,3.245813494353263
10.415841584158416,3.177625917692854
10.435643564356436,3.108313258797222
10.455445544554454,3.038082498925735
10.475247524752476,2.967156336733799
10.495049504950495,2.8957745436773283
10.514851485148514,2.824195412263721
10.534653465346535,2.7526972703924564
10.554455445544555,2.681580017387455
10.574257425742573,2.61116661342852
10.594059405940595,2.5418044227233287
10.613861386138614,2.4738662710436503
10.633663366336632,2.4077510301480025
10.653465346534654,2.343883486733553
10.673267326732674,2.282713196237299
10.693069306930692,2.224711970419195
10.712871287128714,2.1703696158607815
10.732673267326733,2.1201875477377836
10.752475247524751,2.074669973439185
10.772277227722773,2.034312497968728
