Frequency (Hz),Amplitude
0.0,4.4130108950197915
0.01978021978021978,4.412491067084749
0.03956043956043956,4.410933243274155
0.05934065934065934,4.408342401531565
0.07912087912087912,4.404726831603173
0.0989010989010989,4.400098124705804
0.11868131868131868,4.394471158877154
0.13846153846153844,4.387864079822847
0.15824175824175823,4.3802982770208025
0.17802197802197803,4.371798354789626
0.1978021978021978,4.362392097973029
0.21758241758241756,4.352110431837446
0.23736263736263735,4.340987375725609
0.2571428571428572,4.3290599899545805
0.2769230769230769,4.316368315393817
0.2967032967032967,4.302955305107656
0.31648351648351647,4.288866747398374
0.3362637362637363,4.274151179541915
0.35604395604395606,4.258859791469651
0.3758241758241758,4.243046318618282
0.3956043956043956,4.22676692314814
0.4153846153846154,4.2100800627193316
0.4351648351648351,4.193046346019319
0.45494505494505494,4.175728374255516
0.4747252747252747,4.158190567867013
0.4945054945054945,4.140498977772336
0.5142857142857143,4.122721080558831
0.5340659340659341,4.104925557136769
0.5538461538461538,4.087182054529578
0.5736263736263736,4.069560930653898
0.5934065934065934,4.0521329821597885
0.6131868131868132,4.034969155653824
0.6329670329670329,4.018140242915026
0.6527472527472528,4.001716561033805
0.6725274725274726,3.9857676187536875
0.6923076923076923,3.970361770669632
0.7120879120879121,3.9555658613275315
0.7318681318681318,3.94144486166841
0.7516483516483516,3.928061500656615
0.7714285714285715,3.915475895311557
0.7912087912087912,3.9037451827129246
0.810989010989011,3.8929231578555217
0.8307692307692308,3.8830599214763653
0.8505494505494506,3.874201542149009
0.8703296703296702,3.8663897370251927
0.8901098901098901,3.859661575590184
0.9098901098901099,3.8540492106781445
0.9296703296703297,3.8495796407623195
0.9494505494505494,3.8462745071927618
0.9692307692307692,3.8441499296049475
0.989010989010989,3.8432163821770695
1.0087912087912088,3.8434786127843825
1.0285714285714287,3.8449356064050946
1.0483516483516484,3.847580593394491
1.0681318681318681,3.8514011024862427
1.087912087912088,3.8563790576267243
1.1076923076923075,3.8624909170240604
1.1274725274725275,3.869707852121194
1.1472527472527472,3.877995963602455
1.1670329670329669,3.8873165310314803
1.1868131868131868,3.897626292308533
1.2065934065934065,3.9088777488333664
1.2263736263736265,3.9210194920706054
1.2461538461538462,3.9339965471341065
1.2659340659340659,3.947750729031481
1.2857142857142858,3.9622210073283544
1.3054945054945055,3.9773438751937116
1.3252747252747252,3.993053719058025
1.3450549450549452,4.009283185439937
1.3648351648351649,4.0259635418605315
1.3846153846153846,4.043025029151748
1.4043956043956045,4.060397202863478
1.4241758241758242,4.078009261871249
1.443956043956044,4.095790362671403
1.4637362637362636,4.113669918216571
1.4835164835164834,4.131577880483288
1.5032967032967033,4.149445006271713
1.523076923076923,4.167203106011879
1.542857142857143,4.184785275589961
1.5626373626373626,4.202126111411647
1.5824175824175823,4.219161909089332
1.6021978021978023,4.235830846276167
1.621978021978022,4.252073150276601
1.6417582417582417,4.267831251141859
1.6615384615384616,4.283049921012685
1.6813186813186813,4.297676400504519
1.7010989010989013,4.311660512943921
1.720879120879121,4.32495476726329
1.7406593406593405,4.337514450345943
1.7604395604395604,4.349297709587774
1.7802197802197801,4.360265626407676
1.7999999999999998,4.370382281397953
1.8197802197802198,4.379614811760221
1.8395604395604395,4.3879334616227705
1.8593406593406594,4.395311625783633
1.879120879120879,4.401725887369838
1.8989010989010988,4.407156049849484
1.9186813186813187,4.411585163778022
1.9384615384615385,4.414999548606089
1.9582417582417584,4.417388809821495
1.978021978021978,4.418745851644235
1.9978021978021978,4.419066885440005
2.0175824175824175,4.418351433964397
2.0373626373626372,4.416602331497458
2.0571428571428574,4.413825719875753
2.076923076923077,4.410031040376504
2.096703296703297,4.405231021355918
2.1164835164835165,4.399441661491293
2.1362637362637362,4.392682208423099
2.1560439560439564,4.3849751325402755
2.175824175824176,4.376346095598062
2.195604395604396,4.3668239138039
2.215384615384615,4.356440514953048
2.2351648351648348,4.345230889142021
2.254945054945055,4.333233032535169
2.2747252747252746,4.320487883608544
2.2945054945054943,4.307039251246244
2.314285714285714,4.292933734018836
2.3340659340659338,4.278220629932745
2.353846153846154,4.2629518359046505
2.3736263736263736,4.247181736188559
2.3934065934065933,4.230967078966585
2.413186813186813,4.214366840310344
2.4329670329670328,4.197442074730822
2.452747252747253,4.180255751563029
2.4725274725274726,4.1628725764808925
2.4923076923076923,4.1453587975104025
2.512087912087912,4.127781995008102
2.5318681318681318,4.110210855199912
2.5516483516483515,4.092714927034846
2.5714285714285716,4.075364362300867
2.5912087912087913,4.058229639177004
2.610989010989011,4.0413812696575615
2.6307692307692307,4.024889491578659
2.6505494505494505,4.008823946303223
2.6703296703296706,3.9932533434728232
2.6901098901098903,3.978245114607675
2.70989010989011,3.963865057722749
2.7296703296703297,3.9501769755172753
2.7494505494505495,3.937242310077253
2.769230769230769,3.9251197773913615
2.7890109890109893,3.9138650053079105
2.808791208791209,3.903530178837428
2.8285714285714287,3.8941636969196884
2.8483516483516484,3.885809844910312
2.8681318681318677,3.8785084870887445
2.887912087912088,3.872294783437113
2.9076923076923076,3.867198934780977
2.9274725274725273,3.863245960115831
2.947252747252747,3.8604555095692756
2.9670329670329667,3.858841715973958
2.986813186813187,3.8584130874614884
3.0065934065934066,3.8591724428478082
3.0263736263736263,3.8611168908849396
3.046153846153846,3.864237853723553
3.0659340659340657,3.868521134189498
3.085714285714286,3.8739470257490263
3.1054945054945056,3.880490463344916
3.1252747252747253,3.888121212651036
3.145054945054945,3.896804094733926
3.1648351648351647,3.906499242642416
3.184615384615385,3.917162386079733
3.2043956043956046,3.928745160053109
3.2241758241758243,3.941195433245616
3.243956043956044,3.9544576518094483
3.2637362637362637,3.968473194333516
3.2835164835164834,3.983180733880493
3.3032967032967036,3.9985166032070008
3.3230769230769233,4.014415159562028
3.342857142857143,4.03080914578802
3.3626373626373627,4.047630044811834
3.3824175824175824,4.06480842499552
3.4021978021978025,4.082274274206307
3.4219780219780223,4.099957320850432
3.441758241758242,4.117787340487166
3.4615384615384617,4.13569444698952
3.481318681318681,4.153609367541545
3.501098901098901,4.171463701054194
3.520879120879121,4.189190159840691
3.5406593406593405,4.206722794616526
3.5604395604395602,4.223997203079561
3.58021978021978,4.240950722482563
3.5999999999999996,4.257522606736536
3.61978021978022,4.273654188679962
3.6395604395604395,4.289289028219973
3.659340659340659,4.3043730470990775
3.679120879120879,4.318854651068027
3.6989010989010986,4.332684840255483
3.718681318681319,4.345817308519701
3.7384615384615385,4.358208532550468
3.758241758241758,4.369817851462264
3.7780219780219784,4.380607537584493
3.7978021978021976,4.390542859113435
3.8175824175824173,4.399592135244923
3.8373626373626375,4.407726784357629
3.8571428571428568,4.414921365765493
3.876923076923077,4.421153615505282
3.896703296703296,4.4264044765717845
3.916483516483517,4.430658123959259
3.936263736263736,4.433901984814465
3.956043956043956,4.436126753952815
3.9758241758241755,4.4373264049366075
3.9956043956043956,4.437498196861524
4.015384615384615,4.436642676945469
4.035164835164835,4.434763678961918
4.054945054945055,4.431868317508495
4.0747252747252745,4.427966978049567
4.094505494505494,4.423073302620439
4.114285714285715,4.417204171028376
4.134065934065934,4.410379677334392
4.153846153846154,4.402623101347
4.173626373626373,4.393960874806944
4.193406593406594,4.38442254188979
4.213186813186813,4.374040713600804
4.232967032967033,4.362851015585507
4.252747252747253,4.3508920288287465
4.2725274725274724,4.338205222667123
4.292307692307692,4.324834879493917
4.312087912087913,4.310828010494142
4.331868131868132,4.29623426171123
4.351648351648352,4.2811058097172
4.371428571428571,4.265497246137643
4.391208791208792,4.249465450272617
4.410989010989011,4.233069449057858
4.43076923076923,4.216370263629002
4.450549450549451,4.199430741788299
4.4703296703296695,4.182315375731202
4.49010989010989,4.1650901044709965
4.50989010989011,4.14782210050773
4.52967032967033,4.130579540423515
4.549450549450549,4.113431359253607
4.569230769230769,4.096446988681402
4.589010989010989,4.079696079337414
4.608791208791209,4.063248207746165
4.628571428571428,4.047172568760015
4.648351648351649,4.031537654641029
4.6681318681318675,4.016410922298165
4.687912087912088,4.001858450549074
4.707692307692308,3.987944589647647
4.7274725274725276,3.974731605688532
4.747252747252747,3.962279322858584
4.767032967032967,3.9506447668386504
4.786813186813187,3.939881812954821
4.806593406593407,3.9300408429220313
4.826373626373626,3.921168414201181
4.846153846153847,3.9133069460918075
4.8659340659340655,3.9064944266939317
4.885714285714286,3.9007641447886487
4.905494505494506,3.8961444504998295
4.9252747252747255,3.892658548310667
4.945054945054945,3.8903243256187974
4.964835164835165,3.8891542195319335
4.984615384615385,3.889155124042384
5.004395604395604,3.8903283390898573
5.024175824175824,3.892669562344794
5.043956043956045,3.896168923842382
5.0637362637362635,3.900811062889627
5.083516483516483,3.906575245979746
5.103296703296703,3.9134355237992757
5.123076923076923,3.9213609248241807
5.142857142857143,3.9303156824881946
5.162637362637362,3.9402594924823435
5.182417582417583,3.951147796418652
5.2021978021978015,3.962932087866847
5.221978021978022,3.975560236651667
5.241758241758242,3.9889768272758235
5.2615384615384615,4.003123507403146
5.281318681318681,4.017939342487311
5.301098901098901,4.033361172853031
5.320879120879121,4.049323969814236
5.340659340659341,4.06576118773482
5.36043956043956,4.082605109287862
5.380219780219781,4.099787181536207
5.3999999999999995,4.117238340828839
5.41978021978022,4.13488932487403
5.43956043956044,4.152670970701899
5.4593406593406595,4.1705144975605775
5.479120879120879,4.188351774094668
5.498901098901099,4.206115569430034
5.518681318681319,4.223739788032211
5.538461538461538,4.241159688416259
5.558241758241758,4.258312085964451
5.578021978021979,4.275135540254931
5.5978021978021975,4.291570527422443
5.617582417582418,4.3075595981625385
5.637362637362637,4.323047522056748
5.6571428571428575,4.337981418940054
5.676923076923077,4.3523108780570725
5.696703296703297,4.365988065761741
5.716483516483517,4.378967822509746
5.736263736263735,4.391207749876163
5.756043956043956,4.40266828830413
5.775824175824176,4.41331278625676
5.795604395604395,4.423107561404674
5.815384615384615,4.432021954437576
5.835164835164835,4.440028376041024
5.854945054945055,4.447102347530194
5.874725274725275,4.45322253558161
5.894505494505494,4.458370781452177
5.914285714285715,4.46253212502298
5.934065934065933,4.4656948239533785
5.953846153846154,4.4678503681791915
5.973626373626374,4.468993489937298
5.993406593406593,4.469122169448041
6.013186813186813,4.468237636335927
6.032967032967033,4.466344366818863
6.052747252747253,4.463450076645679
6.072527472527473,4.459565709711757
6.092307692307692,4.454705422232139
6.112087912087913,4.448886562301612
6.131868131868131,4.442129644620644
6.151648351648352,4.434458320115969
6.171428571428572,4.425899340134215
6.191208791208791,4.416482514837032
6.210989010989011,4.406240665376715
6.230769230769231,4.395209569382878
6.2505494505494505,4.383427899243943
6.270329670329671,4.370937152622549
6.29010989010989,4.357781574602975
6.309890109890111,4.3440080708314
6.329670329670329,4.329666110979117
6.349450549450549,4.314807621834572
6.36923076923077,4.2994868693154915
6.3890109890109885,4.283760328688609
6.408791208791209,4.267686542293941
6.428571428571428,4.2513259640956935
6.4483516483516485,4.234740790425139
6.468131868131868,4.217994776344579
6.487912087912088,4.201153037148219
6.507692307692308,4.184281834628303
6.527472527472527,4.167448347874348
6.547252747252747,4.150720428542293
6.567032967032967,4.1341663407290365
6.5868131868131865,4.117854485817153
6.606593406593407,4.101853112913116
6.626373626373626,4.0862300157886455
6.6461538461538465,4.071052217545144
6.665934065934065,4.056385644551282
6.685714285714286,4.042294791546965
6.705494505494506,4.028842380155107
6.725274725274725,4.016089013387236
6.745054945054945,4.004092829058
6.764835164835165,3.9929091553266076
6.7846153846153845,3.982590171846589
6.804395604395605,3.9731845802169885
6.824175824175824,3.9647372875762614
6.8439560439560445,3.9572891072525405
6.863736263736263,3.950876480372888
6.883516483516484,3.9455312222313417
6.903296703296704,3.941280297018356
6.923076923076923,3.938145624221509
6.942857142857143,3.936143919623423
6.962637362637362,3.93528657335466
6.9824175824175825,3.9355795669186127
7.002197802197802,3.9370234305065943
7.021978021978022,3.939613241281918
7.041758241758242,3.9433386626516223
7.061538461538461,3.9481840238833867
7.081318681318681,3.9541284387846627
7.101098901098901,3.9611459615596036
7.1208791208791204,3.969205777415664
7.140659340659341,3.9782724250194046
7.16043956043956,3.9883060475131047
7.1802197802197805,3.999262668505985
7.199999999999999,4.011094489251951
7.21978021978022,4.023750203117993
7.23956043956044,4.037175323431563
7.259340659340659,4.051312520863214
7.279120879120879,4.066101966644972
7.298901098901099,4.081481678132849
7.318681318681318,4.097387863482493
7.338461538461539,4.113755262507305
7.358241758241758,4.130517481115653
7.3780219780219785,4.147607317066872
7.397802197802197,4.164957075133472
7.417582417582418,4.182498870099484
7.437362637362638,4.200164916355231
7.457142857142857,4.217887803159582
7.476923076923077,4.235600754927668
7.496703296703297,4.253237876161646
7.516483516483516,4.270734380872399
7.536263736263736,4.288026806539905
7.556043956043957,4.305053212830324
7.575824175824176,4.3217533654287195
7.595604395604395,4.338068905459657
7.615384615384615,4.3539435050564945
7.635164835164835,4.369323009704469
7.654945054945055,4.384155568027503
7.674725274725275,4.398391749714416
7.694505494505494,4.411984652290669
7.7142857142857135,4.424889997438966
7.734065934065935,4.437066217557745
7.753846153846154,4.448474533223547
7.7736263736263735,4.459079022192523
7.793406593406592,4.468846680539945
7.813186813186814,4.477747476496072
7.832967032967034,4.48575439749232
7.852747252747252,4.492843490885496
7.872527472527472,4.498993898779895
7.892307692307693,4.504187887318106
7.912087912087912,4.50841087076192
7.931868131868132,4.511651430635365
7.951648351648351,4.513901330152075
7.971428571428572,4.515155524100101
7.991208791208791,4.5154121643080565
8.010989010989011,4.514672600767774
8.03076923076923,4.512941378440002
8.05054945054945,4.510226229721232
8.07032967032967,4.50653806250163
8.09010989010989,4.501890943695697
8.10989010989011,4.496302078079233
8.129670329670331,4.489791782218108
8.149450549450549,4.482383453226376
8.169230769230769,4.4741035320435945
8.189010989010988,4.464981460874147
8.20879120879121,4.455049634384869
8.22857142857143,4.4443433442122755
8.248351648351647,4.432900716287498
8.268131868131867,4.420762640446373
8.287912087912087,4.407972691754985
8.307692307692308,4.394577042948397
8.327472527472528,4.380624367353924
8.347252747252746,4.366165731650478
8.367032967032966,4.351254477805815
8.386813186813187,4.335946093533733
8.406593406593407,4.32029807062701
8.426373626373627,4.304369750550341
8.446153846153845,4.288222156723535
8.465934065934066,4.271917812990556
8.485714285714286,4.255520547857416
8.505494505494505,4.239095284192606
8.525274725274725,4.222707814220624
8.545054945054945,4.2064245598020875
8.564835164835165,4.1903123181850885
8.584615384615384,4.1744379936305425
8.604395604395604,4.158868315559427
8.624175824175826,4.143669544139014
8.643956043956043,4.128907164516033
8.663736263736263,4.11464557121206
8.683516483516483,4.100947744514482
8.703296703296704,4.087874921017775
8.723076923076924,4.075486260786074
8.742857142857142,4.063838513908595
8.762637362637362,4.052985689494622
8.782417582417583,4.042978730392409
8.802197802197803,4.03386519710566
8.821978021978023,4.025688964510983
8.84175824175824,4.018489935040689
8.86153846153846,4.0123037719781385
8.881318681318682,4.007161656413385
8.901098901098901,4.003090071219853
8.920879120879121,4.000110615139735
8.940659340659339,3.9982398497096767
8.96043956043956,3.997489181324948
8.98021978021978,3.997864780241857
9.0,3.9993675377658273
9.01978021978022,4.001993062283197
9.03956043956044,4.005731714186032
9.05934065934066,4.01056867912848
9.079120879120879,4.016484078459931
9.098901098901099,4.023453115121852
9.11868131868132,4.031446252787305
9.138461538461538,4.0404294255788145
9.158241758241758,4.050364275332123
9.178021978021977,4.061208413087201
9.197802197802199,4.072915701288359
9.217582417582419,4.085436553061958
9.237362637362637,4.0987182449112005
9.257142857142856,4.11270523921626
9.276923076923078,4.127339513047375
9.296703296703297,4.142560889978745
9.316483516483517,4.15830737182128
9.336263736263735,4.174515467461028
9.356043956043957,4.191120516286795
9.375824175824176,4.208057004003682
9.395604395604396,4.225258868949051
9.415384615384616,4.242659797345712
9.435164835164835,4.260193506235103
9.454945054945055,4.277794013125977
9.474725274725275,4.295395891665972
9.494505494505495,4.312934512891436
9.514285714285714,4.330346271832655
9.534065934065934,4.347568799446179
9.553846153846154,4.364541160012875
9.573626373626373,4.381204034280601
9.593406593406593,4.3974998887450605
9.613186813186815,4.413373131552725
9.632967032967032,4.4287702555787645
9.652747252747252,4.443639969281421
9.672527472527472,4.457933315965597
9.692307692307693,4.471603782104537
9.712087912087913,4.484607395370811
9.731868131868131,4.496902813019873
9.75164835164835,4.508451401251376
9.771428571428572,4.519217306148444
9.791208791208792,4.529167516763782
9.810989010989012,4.538271920885298
9.83076923076923,4.546503353974598
9.850549450549451,4.5538376417289905
9.87032967032967,4.560253636673878
9.89010989010989,4.565733249146472
9.90989010989011,4.5702614729859325
9.92967032967033,4.573826406197962
9.94945054945055,4.576419266815291
9.96923076923077,4.578034404128523
9.989010989010989,4.578669305415026
10.008791208791209,4.578324598247128
10.028571428571428,4.577004048414329
10.048351648351648,4.574714553448191
10.068131868131868,4.571466131692256
10.08791208791209,4.567271906813557
10.107692307692307,4.562148087606432
10.127472527472527,4.556113942893579
10.147252747252747,4.549191771283969
10.167032967032966,4.541406865502163
10.186813186813188,4.532787470959103
10.206593406593406,4.5233647381910576
10.226373626373626,4.513172668751146
10.246153846153845,4.502248054097687
10.265934065934067,4.490630406985954
10.285714285714286,4.478361884835626
10.305494505494504,4.465487204516506
10.325274725274724,4.452053547970697
10.345054945054946,4.438110458072242
10.364835164835165,4.423709724116271
10.384615384615385,4.408905256331023
10.404395604395603,4.393752948819192
10.424175824175824,4.3783105303620795
10.443956043956044,4.3626374025630845
10.463736263736264,4.346794464867545
10.483516483516484,4.330843926076743
10.503296703296703,4.314849102076111
10.523076923076923,4.298874199622818
10.542857142857143,4.2829840861879935
10.562637362637362,4.267244046023172
10.582417582417584,4.2517195228204985
10.602197802197802,4.236475849559929
10.621978021978022,4.221577966382861
10.641758241758241,4.207090127597489
10.661538461538463,4.193075599202503
10.681318681318682,4.179596348607274
10.7010989010989,4.166712728522492
10.72087912087912,4.154483157286588
10.740659340659342,4.14296379817297
10.760439560439561,4.132208240480152
10.780219780219781,4.122267185432402
10.799999999999999,4.113188140101735
10.819780219780219,4.105015122693577
