Time (s),Filtered Signal
0.0,-0.030551999376249497
0.033370535714285714,-0.15427631299593697
0.06674107142857143,-0.37290992904889214
0.10011160714285713,-0.7346221217756095
0.13348214285714285,-1.2134571882104015
0.16685267857142858,-1.7146944315959232
0.20022321428571427,-2.1098713068749606
0.23359375,-2.2862209435541323
0.2669642857142857,-2.1896037942811897
0.30033482142857143,-1.843577076489369
0.33370535714285715,-1.3380410714363877
0.36707589285714287,-0.7938753887881743
0.40044642857142854,-0.3194580902936247
0.43381696428571426,0.022885949242533375
0.4671875,0.22814826373403602
0.5005580357142857,0.33589542497700464
0.5339285714285714,0.4023765439801059
0.5672991071428571,0.47190708289059163
0.6006696428571429,0.5601689248656055
0.6340401785714286,0.6544439882270301
0.6674107142857143,0.7269077656744424
0.70078125,0.7517939002468458
0.7341517857142857,0.7177123022817982
0.7675223214285715,0.6311774329997432
0.8008928571428571,0.5127392372745542
0.8342633928571428,0.3897795724713993
0.8676339285714285,0.28938068068993333
0.9010044642857142,0.23252372257747408
0.934375,0.2296179596967229
0.9677455357142857,0.27780049430737536
1.0011160714285714,0.3613283146467115
1.0344866071428571,0.4559319719494345
1.0678571428571428,0.5359309999399613
1.1012276785714286,0.5808782917190631
1.1345982142857143,0.5785043609050428
1.16796875,0.5231474994621944
1.2013392857142857,0.4120188757910065
1.2347098214285714,0.24324592268567385
1.2680803571428572,0.01845412601863651
1.3014508928571429,-0.25067476903110336
1.3348214285714286,-0.5359130456139473
1.3681919642857143,-0.7915809904151953
1.4015625,-0.962972028748369
1.4349330357142858,-1.0033073172129248
1.4683035714285715,-0.893220250616501
1.5016741071428572,-0.6538134440455695
1.535044642857143,-0.34570673797559953
1.5684151785714286,-0.05213048186799755
1.6017857142857141,0.14850533279630695
1.6351562499999999,0.20977570630187334
1.6685267857142856,0.1328885980576847
1.7018973214285713,-0.03566852451611876
1.735267857142857,-0.2233191636301821
1.7686383928571427,-0.35929707205456335
1.8020089285714285,-0.39979384924941336
1.8353794642857142,-0.3404109277006687
1.86875,-0.2116573033683644
1.9021205357142856,-0.06080099227019796
1.9354910714285714,0.07048569287476954
1.968861607142857,0.1616773712421285
2.002232142857143,0.2152805216691556
2.0356026785714287,0.24603021925194654
2.0689732142857142,0.2654588094562365
2.10234375,0.2719942315663025
2.1357142857142857,0.25264579691276545
2.169084821428571,0.1946828694218561
2.202455357142857,0.09930455387109967
2.2358258928571426,-0.011965133072490513
2.2691964285714286,-0.10293751328824274
2.302566964285714,-0.13797809114029327
2.3359375,-0.09874132821852451
2.3693080357142855,0.006275859190651087
2.4026785714285714,0.1439161750102149
2.436049107142857,0.26880365869986783
2.469419642857143,0.34012388401217847
2.5027901785714284,0.33579511914178467
2.5361607142857143,0.2590727148994416
2.56953125,0.1359813450367256
2.6029017857142858,0.005141971791034358
2.6362723214285713,-0.09622459170091106
2.669642857142857,-0.14529186631294558
2.7030133928571427,-0.14104512007675993
2.7363839285714286,-0.10324368648286925
2.769754464285714,-0.06301561055832408
2.803125,-0.04853854605914829
2.8364955357142856,-0.0716186848040926
2.8698660714285715,-0.12108430707522949
2.903236607142857,-0.16642032396093853
2.936607142857143,-0.170798365237929
2.9699776785714285,-0.10829223983265374
3.0033482142857144,0.022403940259194892
3.03671875,0.1945117475403014
3.070089285714286,0.36226861892999834
3.1034598214285714,0.47876003962542085
3.1368303571428573,0.514051502836666
3.170200892857143,0.46497845137804966
3.2035714285714283,0.3525529563456115
3.2369419642857142,0.2097107956745522
3.2703124999999997,0.06691228664137162
3.3036830357142857,-0.05689544554964933
3.337053571428571,-0.15482123519818108
3.370424107142857,-0.22647162889382733
3.4037946428571426,-0.2717733380589585
3.4371651785714286,-0.28876970370204763
3.470535714285714,-0.27635798474579265
3.50390625,-0.23932625443270036
3.5372767857142855,-0.19168215533099073
3.5706473214285714,-0.15552255488108133
3.604017857142857,-0.15529547238571403
3.637388392857143,-0.20953113844676854
3.6707589285714284,-0.3229709103456236
3.7041294642857143,-0.48159984057160066
3.7375,-0.6521549511219875
3.7708705357142858,-0.7869104162794558
3.8042410714285713,-0.8339480690179989
3.837611607142857,-0.7520589982503505
3.8709821428571427,-0.5272804819081962
3.9043526785714286,-0.185318784286392
3.937723214285714,0.20730876905167656
3.97109375,0.5583016267674957
4.004464285714286,0.7790873448391021
4.0378348214285715,0.8188718643144233
4.0712053571428575,0.688241409267076
4.1045758928571425,0.45954800447039007
4.1379464285714285,0.2409023153943483
4.171316964285714,0.1331198591288858
4.2046875,0.18785240462678268
4.238058035714285,0.38552079702468384
4.271428571428571,0.6431337090487957
4.304799107142857,0.8487722562585917
4.338169642857142,0.9078048790529156
4.371540178571428,0.7810836680269599
4.404910714285714,0.4993104251979169
4.43828125,0.14832512853677413
4.471651785714285,-0.16752122674549574
4.505022321428571,-0.3677479329928034
4.538392857142857,-0.42579869003652043
4.571763392857143,-0.37456915737538227
4.605133928571428,-0.2863012684138165
4.638504464285714,-0.23705833085255523
4.671875,-0.2723395756297552
4.705245535714286,-0.3889094962730757
4.738616071428571,-0.539632994689633
4.771986607142857,-0.6573478354227281
4.805357142857143,-0.6857781707628672
4.838727678571429,-0.6035590634115482
4.872098214285714,-0.43172485515121495
4.90546875,-0.2228842529607295
4.938839285714286,-0.03805046461088494
4.972209821428572,0.07835586275340138
5.005580357142857,0.11486808518540315
5.038950892857143,0.09445534934417753
5.072321428571429,0.06137215694280446
5.105691964285715,0.05974786706450221
5.1390625,0.11355526973358387
5.172433035714286,0.2166378652676329
5.2058035714285715,0.33671995112549574
5.2391741071428575,0.4309218856951215
5.2725446428571425,0.4651924461027785
5.3059151785714285,0.42860821960817613
5.339285714285714,0.33631324522127465
5.3726562499999995,0.22055847951840227
5.406026785714285,0.1150441728969989
5.439397321428571,0.04075038405411131
5.472767857142857,0.0001984158331118936
5.506138392857142,-0.017765627927923796
5.539508928571428,-0.02655269856047856
5.572879464285714,-0.03152824630152114
5.60625,-0.02795592015343901
5.639620535714285,-0.009171514190590311
5.672991071428571,0.02004978663850209
5.706361607142857,0.034674087652408474
5.739732142857143,-0.006144326775701015
5.773102678571428,-0.13973184866026683
5.806473214285714,-0.37375051122118014
5.83984375,-0.6678233305534523
5.873214285714286,-0.9361704661391629
5.906584821428571,-1.0748815956671278
5.939955357142857,-1.004235196065746
5.973325892857143,-0.7070062575232482
6.006696428571429,-0.24368269952698776
6.040066964285714,0.26450325863740737
6.0734375,0.678832123721433
6.106808035714286,0.8944224126161814
6.140178571428572,0.877804257802815
6.173549107142857,0.6754439837969454
6.206919642857143,0.39100963671268685
6.240290178571429,0.14245772937698023
6.273660714285715,0.01755661295709299
6.30703125,0.04541060532953603
6.340401785714286,0.1932521346672805
6.3737723214285715,0.38666015033131845
6.407142857142857,0.5424694168404971
6.4405133928571425,0.6002136062732977
6.4738839285714285,0.5404841020576023
6.507254464285714,0.38523699267510825
6.5406249999999995,0.18277047118349413
6.573995535714285,-0.014281152098913733
6.607366071428571,-0.16808808889750979
6.640736607142857,-0.26488023714659653
6.674107142857142,-0.31271742100957134
6.707477678571428,-0.33136661429767567
6.740848214285714,-0.3404322167721856
6.77421875,-0.3510584289109411
6.807589285714285,-0.3634579807310048
6.840959821428571,-0.3693403598697073
6.874330357142857,-0.356712499574165
6.907700892857143,-0.31482671858010375
6.941071428571428,-0.23828633687583017
6.974441964285714,-0.13017239033739006
7.0078125,-0.003885133732401894
7.041183035714286,0.1173671295522315
7.074553571428571,0.20475978976743478
7.107924107142857,0.2319530932821978
7.141294642857143,0.18506364990838362
7.174665178571429,0.07040298286558114
7.208035714285714,-0.0842803111088263
7.24140625,-0.23690852902525847
7.274776785714286,-0.34450642318896524
7.308147321428572,-0.37777991057452276
7.341517857142857,-0.3310043496553094
7.374888392857143,-0.22342596376013565
7.408258928571429,-0.09190941111890072
7.441629464285715,0.022114532116241842
7.475,0.08651933623523615
7.508370535714286,0.08843003171692533
7.5417410714285715,0.03730250737842961
7.575111607142857,-0.039208881722676975
7.6084821428571425,-0.10455240615165991
7.6418526785714285,-0.12435827906803189
7.675223214285714,-0.07595799017974075
7.7085937499999995,0.04578829374398564
7.741964285714285,0.22691702571596498
7.775334821428571,0.4365879897418023
7.808705357142857,0.6325948282697846
7.842075892857142,0.7699542351522305
7.875446428571428,0.8119653855829335
7.908816964285714,0.7415266959701967
7.9421875,0.5686313011047479
7.975558035714285,0.3297196203133344
8.008928571428571,0.07718970684125766
8.042299107142856,-0.13791773155483356
8.075669642857143,-0.28291544481243436
8.109040178571428,-0.3523591769787052
8.142410714285715,-0.36484515222003905
8.17578125,-0.3500270781460219
8.209151785714285,-0.33316638373531177
8.242522321428572,-0.3251408695428141
8.275892857142857,-0.3218548697228466
8.309263392857142,-0.3112622446651203
8.342633928571429,-0.2825099162619967
8.376004464285714,-0.23199376877681135
8.409375,-0.1643493015725758
8.442745535714286,-0.08976490301113611
8.47611607142857,-0.02030566330866047
8.509486607142858,0.03297057487448543
8.542857142857143,0.06195722639939133
8.576227678571428,0.06315890506714937
8.609598214285715,0.039248966902429135
8.64296875,-0.0003017289672578853
8.676339285714285,-0.04074681643117161
8.709709821428572,-0.06614332238225147
8.743080357142857,-0.06479001117179152
8.776450892857143,-0.0335930569825893
8.809821428571428,0.020906519347846955
8.843191964285714,0.08544926005465764
8.8765625,0.14536901213231063
8.909933035714285,0.1895222638532636
8.94330357142857,0.21256197821689352
8.976674107142857,0.21411305916215426
9.010044642857142,0.19625170833237668
9.04341517857143,0.1613384079842803
9.076785714285714,0.11145831864711749
9.11015625,0.049263175319221614
9.143526785714286,-0.021006516780051544
9.176897321428571,-0.09348824822507566
9.210267857142856,-0.16190503104196066
9.243638392857143,-0.22123899912816225
9.277008928571428,-0.26868281961558466
9.310379464285715,-0.30311030436655
9.34375,-0.32327522501295214
9.377120535714285,-0.325881938543201
9.410491071428572,-0.3050331264085554
9.443861607142857,-0.254051028707246
9.477232142857142,-0.16940545611057703
9.510602678571429,-0.055049061904911545
9.543973214285714,0.07532163479402118
9.57734375,0.20009598860190453
9.610714285714286,0.2959847113070342
9.64408482142857,0.3467153109337524
9.677455357142858,0.35049959281376636
9.710825892857143,0.32237841095940495
9.744196428571428,0.28932182371776566
9.777566964285715,0.2792117202069861
9.8109375,0.3081114683774488
9.844308035714285,0.3717214409360466
9.877678571428572,0.445479983942829
9.911049107142857,0.4938002061912773
9.944419642857143,0.4844202067295377
9.977790178571428,0.4012805004671033
10.011160714285714,0.25017745693032856
10.04453125,0.055163427404966846
10.077901785714285,-0.15183500673774047
10.11127232142857,-0.342796191959402
10.144642857142857,-0.5013512362473297
10.178013392857142,-0.6235741173932314
10.21138392857143,-0.712468405946194
10.244754464285714,-0.7697740527162253
10.278125,-0.7898966350858977
10.311495535714286,-0.7597398204153404
10.344866071428571,-0.6653219508078118
10.378236607142856,-0.502308224456498
10.411607142857143,-0.2846744504041677
10.444977678571428,-0.045494494582833396
10.478348214285715,0.17276271938661625
10.51171875,0.335153458950701
10.545089285714285,0.42991361142570195
10.578459821428572,0.47340097270324183
10.611830357142857,0.4996899905915732
10.645200892857142,0.5387574997739355
10.678571428571429,0.5947117905754291
10.711941964285714,0.6371078172473041
10.745312499999999,0.6123368021526956
10.778683035714286,0.4712639806360797
10.81205357142857,0.1997637377907399
10.845424107142858,-0.16383323819625611
10.878794642857143,-0.5344258982427348
10.912165178571428,-0.8077353666013984
10.945535714285715,-0.8980946724497895
10.97890625,-0.770358062012939
11.012276785714285,-0.45323017328305415
11.045647321428572,-0.029925697952407248
11.079017857142857,0.38877789342151364
11.112388392857143,0.6983536265149544
11.145758928571428,0.8297312481536057
11.179129464285714,0.7656021473760668
11.2125,0.5404777068144541
11.245870535714285,0.22605881282026583
11.27924107142857,-0.09266872573032545
11.312611607142857,-0.34292605498799833
11.345982142857142,-0.4833294549653196
11.37935267857143,-0.5110464569158553
11.412723214285714,-0.45534734465220544
11.44609375,-0.36084918714492326
11.479464285714286,-0.2675232479310104
11.512834821428571,-0.19563847099685042
11.546205357142856,-0.1416054109236919
11.579575892857143,-0.08584397889749348
11.612946428571428,-0.008263767658471716
11.646316964285715,0.096716184402912
11.6796875,0.2134817003047203
11.713058035714285,0.31051199756471476
11.746428571428572,0.35504500857066573
11.779799107142857,0.3295566957566275
11.813169642857142,0.2414899971028657
11.846540178571429,0.12117386655559786
11.879910714285714,0.008971442297361019
11.913281249999999,-0.061876465801936974
11.946651785714286,-0.07830342476715325
11.98002232142857,-0.050378162858270036
12.013392857142858,-0.0035258623589508875
12.046763392857143,0.035306578833364285
12.080133928571428,0.05028757568194924
12.113504464285715,0.042173271445379565
12.146875,0.024775578097621785
12.180245535714285,0.015198351072381553
12.213616071428572,0.02340351957831629
12.246986607142857,0.04650028552538945
12.280357142857143,0.07041253620702456
12.313727678571428,0.07777323268534886
12.347098214285714,0.05782955677878327
12.38046875,0.013176104808902056
12.413839285714285,-0.04031923588505107
12.44720982142857,-0.08067475913998626
12.480580357142857,-0.0907597753905324
12.513950892857142,-0.067825693278173
12.54732142857143,-0.026998832436162037
12.580691964285714,0.003074078610135854
12.6140625,-0.009153830111067017
12.647433035714286,-0.08516540276134632
12.680803571428571,-0.22556573391566467
12.714174107142856,-0.40510926470041136
12.747544642857143,-0.5758493931153461
12.780915178571428,-0.6789436713581003
12.814285714285713,-0.6632286322561184
12.84765625,-0.5055471496149363
12.881026785714285,-0.2251313320152279
12.914397321428572,0.11574209551216606
12.947767857142857,0.4285173492301523
12.981138392857142,0.6286879820514152
13.014508928571429,0.6682326540689753
13.047879464285714,0.5555714265292173
13.081249999999999,0.3525790802628541
13.114620535714286,0.14845656154206832
13.14799107142857,0.02172768759442648
13.181361607142858,0.008059470758603427
13.214732142857143,0.08906473677741888
13.248102678571428,0.20664510561069757
13.281473214285715,0.2943753829566955
13.31484375,0.3091632599303549
13.348214285714285,0.24750283965498912
13.381584821428572,0.1401065154163849
13.414955357142857,0.030700382302135433
13.448325892857143,-0.04764064799080585
13.481696428571428,-0.08582784931715662
13.515066964285714,-0.09641308912776744
13.5484375,-0.09951445064470119
13.581808035714285,-0.10684937911604579
13.61517857142857,-0.11353343875295449
13.648549107142857,-0.10196093313557981
13.681919642857142,-0.054946915719955
13.71529017857143,0.02979185500497937
13.748660714285714,0.13236265945110565
13.78203125,0.21524966422126998
13.815401785714286,0.23801258374793008
13.848772321428571,0.17507123966599253
13.882142857142856,0.027867833720117634
13.915513392857143,-0.17435561937007626
13.948883928571428,-0.38503137069898447
13.982254464285713,-0.5563576637171
14.015625,-0.6533678390205838
14.048995535714285,-0.6607042126627948
14.082366071428572,-0.581643874779135
14.115736607142857,-0.43285363308485325
14.149107142857142,-0.2390515916598882
14.182477678571429,-0.02948529777368646
14.215848214285714,0.1647223821431033
14.249218749999999,0.31435663674234376
14.282589285714286,0.39769869203808494
14.31595982142857,0.4063398562103773
14.349330357142858,0.3484407924466628
14.382700892857143,0.2474011318421424
14.416071428571428,0.13592402157214697
14.449441964285715,0.04732512329314262
14.4828125,0.006671796323195121
14.516183035714285,0.024006324047270555
14.549553571428572,0.09122339165248548
14.582924107142857,0.18362707513589682
14.616294642857143,0.2665244987057161
14.649665178571428,0.305820545505601
14.683035714285714,0.2795364903385907
14.71640625,0.18572742405264875
14.749776785714285,0.0429963803652649
14.78314732142857,-0.1169627923890199
14.816517857142857,-0.26128289951926836
14.849888392857142,-0.3665405595492692
14.88325892857143,-0.42349051897262824
14.916629464285714,-0.4350960331863003
14.95,-0.41070182934514265
14.983370535714286,-0.3603725568225466
15.016741071428571,-0.2917960670418297
15.050111607142856,-0.20952553737986773
15.083482142857143,-0.11495474792144406
15.116852678571428,-0.006135802436665907
15.150223214285713,0.12172792209631773
15.18359375,0.2734849414131499
15.216964285714285,0.448517177647639
15.250334821428572,0.6345898031738321
15.283705357142857,0.8049832251140439
15.317075892857142,0.9222214955148124
15.350446428571429,0.9485723279678756
15.383816964285714,0.8595731899317286
15.417187499999999,0.6546406728831213
15.450558035714286,0.3598402617632607
15.48392857142857,0.021541173009417557
15.517299107142858,-0.30625602445658656
15.550669642857143,-0.5758942205443518
15.584040178571428,-0.7567256404201498
15.617410714285715,-0.8400502974249684
15.65078125,-0.83822265212388
15.684151785714285,-0.7790984676882046
15.717522321428572,-0.6972757746097539
15.750892857142857,-0.6237571284914115
15.784263392857143,-0.5763656380405541
15.817633928571428,-0.5540438400633032
15.851004464285714,-0.5378052617748484
15.884375,-0.4988088146749553
15.917745535714285,-0.41058263054259175
15.95111607142857,-0.26000710629340795
15.984486607142857,-0.052221291662345695
16.017857142857142,0.1918867301373376
16.05122767857143,0.44281377069036143
16.084598214285712,0.6695764871942951
16.11796875,0.8438754617187879
16.151339285714286,0.9418468117041429
16.18470982142857,0.9462840598697884
16.218080357142856,0.8513388175500284
16.251450892857143,0.66838068150941
16.28482142857143,0.42877294769970375
16.318191964285713,0.17946515068377614
16.3515625,-0.029129460601779025
16.384933035714287,-0.15877110717223128
16.41830357142857,-0.19565552682696577
16.451674107142857,-0.15362936202372118
16.485044642857144,-0.06710723555055308
16.518415178571427,0.022612383242923677
16.551785714285714,0.08126532728423573
16.58515625,0.09024154552245973
16.618526785714284,0.047816099752880606
16.65189732142857,-0.0352900664026457
16.685267857142858,-0.14225464898535004
16.71863839285714,-0.2551613293585729
16.752008928571428,-0.35766276574601447
16.785379464285715,-0.43639394129538234
16.81875,-0.4826526996804576
16.852120535714285,-0.4944750387582168
16.88549107142857,-0.47744134817946277
16.91886160714286,-0.44221445139872295
16.95223214285714,-0.39866335541347425
16.98560267857143,-0.3493030068534128
17.018973214285715,-0.28638868852283733
17.05234375,-0.19568934770444626
17.085714285714285,-0.06608394063289758
17.119084821428572,0.10000715298720902
17.152455357142856,0.2819060595605013
17.185825892857142,0.44577565366904476
17.21919642857143,0.5581990603459416
17.252566964285712,0.6015809599505031
17.2859375,0.5828501754592881
17.319308035714286,0.5300532597778629
17.35267857142857,0.4780063998353808
17.386049107142856,0.4504055496986362
17.419419642857143,0.44788720458045295
17.45279017857143,0.4481966507469232
17.486160714285713,0.41794738161240036
17.51953125,0.32947925869030154
17.552901785714287,0.1743353657765931
17.58627232142857,-0.03254322520699986
17.619642857142857,-0.25873814797267913
17.653013392857144,-0.4666460606372387
