Time (s),Filtered Signal
0.0,0.015106108939421636
0.03337000366703337,0.005905035160186439
0.06674000733406674,-0.04983958353782374
0.1001100110011001,-0.1723938874181893
0.13348001466813347,-0.3412925677697888
0.16685001833516683,-0.4992803185765029
0.2002200220022002,-0.5739059064335542
0.2335900256692336,-0.5082006373828732
0.26696002933626695,-0.287414868351945
0.3003300330033003,0.0501254890420134
0.33370003667033366,0.4233959175023928
0.36707004033736707,0.7363321095080134
0.4004400440044004,0.9112117780996691
0.4338100476714338,0.9140588673904275
0.4671800513384672,0.7626127775239314
0.5005500550055005,0.5155402003357774
0.5339200586725339,0.2492703793333768
0.5672900623395672,0.03258363571766925
0.6006600660066006,-0.09203391996954825
0.634030069673634,-0.11562369757684507
0.6674000733406673,-0.05889224510382293
0.7007700770077008,0.03899046120227507
0.7341400806747341,0.13407009614038026
0.7675100843417675,0.18972464775400288
0.8008800880088008,0.184853348399036
0.8342500916758342,0.11724222330922951
0.8676200953428675,0.0020241856688284652
0.9009900990099009,-0.1343483478420604
0.9343601026769344,-0.2633302659263913
0.9677301063439677,-0.3640248351984168
1.001100110011001,-0.42969281423301453
1.0344701136780343,-0.46788318819653285
1.0678401173450678,-0.49377728196168374
1.1012101210121013,-0.5199983927488327
1.1345801246791345,-0.5483991609576244
1.167950128346168,-0.5684705906683505
1.2013201320132012,-0.5632998390635602
1.2346901356802347,-0.5196476254716188
1.268060139347268,-0.43635241185966445
1.3014301430143014,-0.3262300342787608
1.3348001466813346,-0.21025635482930766
1.368170150348368,-0.10703033818645788
1.4015401540154016,-0.02310399757703853
1.4349101576824348,0.05053986790375471
1.4682801613494683,0.13361796021700753
1.5016501650165015,0.2453322212236687
1.535020168683535,0.39227320664408777
1.5683901723505682,0.5616516643716228
1.6017601760176017,0.7236419782139407
1.6351301796846351,0.84215687749665
1.6685001833516684,0.889146306028713
1.7018701870187019,0.8557369938168677
1.735240190685735,0.7551192763690991
1.7686101943527686,0.616153389736292
1.8019801980198018,0.4710535220317898
1.8353502016868353,0.34302478083075216
1.8687202053538687,0.2392898388520145
1.902090209020902,0.15199482863572134
1.9354602126879354,0.06562512273036501
1.9688302163549687,-0.033326687077755705
2.002200220022002,-0.1493275083491005
2.0355702236890356,-0.276498869939248
2.0689402273560686,-0.40291349302226676
2.102310231023102,-0.5174172498644496
2.1356802346901356,-0.6148009018061856
2.169050238357169,-0.6964642922570707
2.2024202420242025,-0.7665949506593495
2.2357902456912355,-0.8265233131607678
2.269160249358269,-0.8707485012458043
2.3025302530253025,-0.8868399136153079
2.335900256692336,-0.8590595137714572
2.369270260359369,-0.7736825547790462
2.4026402640264024,-0.6236143918277631
2.436010267693436,-0.4108893526779244
2.4693802713604693,-0.14704342612213595
2.502750275027503,0.14783265795168052
2.536120278694536,0.44671484602833084
2.5694902823615693,0.7180397782047796
2.6028602860286028,0.929511812656398
2.636230289695636,1.0537227257592756
2.6696002933626692,1.0749379660728977
2.7029702970297027,0.9950658251616408
2.736340300696736,0.8359864142484392
2.7697103043637696,0.6358216374931274
2.803080308030803,0.4387105329431789
2.836450311697836,0.28075614371678215
2.8698203153648696,0.17763349655386834
2.903190319031903,0.12002773956685102
2.9365603226989365,0.08038277273974699
2.96993032636597,0.028960132849268055
3.003300330033003,-0.048426569706133286
3.0366703337000365,-0.14091607546623977
3.07004033736707,-0.21798156345641956
3.1034103410341034,-0.24841001013115716
3.1367803447011364,-0.22311255577058198
3.17015034836817,-0.1681171346879332
3.2035203520352034,-0.13792453063371066
3.236890355702237,-0.18970779910907765
3.2702603593692703,-0.35022188532875526
3.3036303630363033,-0.5931282873505134
3.3370003667033368,-0.8407726227139344
3.3703703703703702,-0.9925825705995657
3.4037403740374037,-0.9682927525681607
3.4371103777044367,-0.7457496177248504
3.47048038137147,-0.37486805749658036
3.5038503850385037,0.03942586037069534
3.537220388705537,0.3776687575964548
3.5705903923725706,0.5515266340393842
3.6039603960396036,0.5350132831744161
3.637330399706637,0.3693799069550916
3.6707004033736705,0.14211695087367998
3.704070407040704,-0.048863620248825936
3.7374404107077375,-0.13038059793701706
3.7708104143747705,-0.07566387769330801
3.804180418041804,0.09293559860837268
3.8375504217088374,0.31775840993499627
3.870920425375871,0.528512653123713
3.904290429042904,0.6650441431672058
3.9376604327099374,0.6936415260704023
3.971030436376971,0.6138610039286492
4.004400440044004,0.45588383603308125
4.037770443711038,0.2701569495844241
4.071140447378071,0.11187796644356678
4.104510451045105,0.023589422460290922
4.137880454712137,0.0201280401040089
4.171250458379171,0.08090617013135598
4.204620462046204,0.15380360020191203
4.237990465713238,0.1718845622366269
4.271360469380271,0.07905740942443963
4.304730473047305,-0.14433339997606073
4.338100476714338,-0.467190657405083
4.3714704803813715,-0.8128704314754642
4.404840484048405,-1.084292664984839
4.438210487715438,-1.1998507989917286
4.471580491382471,-1.124853144931781
4.5049504950495045,-0.884224858568751
4.538320498716538,-0.5505280830163167
4.571690502383571,-0.21301587663163582
4.605060506050605,0.057675044220805806
4.638430509717638,0.2331575792142727
4.671800513384672,0.3298032843668736
4.705170517051705,0.3914448827044526
4.738540520718738,0.4626615558600738
4.771910524385771,0.565943343818779
4.805280528052805,0.6921488990117682
4.838650531719838,0.8061401548457365
4.872020535386872,0.8628012627281312
4.905390539053905,0.8257655222506237
4.938760542720939,0.6820897322023889
4.972130546387972,0.44883568663176476
5.005500550055006,0.17014017813437463
5.038870553722038,-0.09457963470636171
5.072240557389072,-0.2885144168613877
5.105610561056105,-0.37624197354215805
5.138980564723139,-0.3565146169784354
5.172350568390172,-0.2630292120653031
5.2057205720572055,-0.15139481914305003
5.239090575724239,-0.07675268969105727
5.272460579391272,-0.0715061701658012
5.305830583058306,-0.13326420712421125
5.3392005867253385,-0.22856004643552144
5.372570590392372,-0.3103721849193683
5.405940594059405,-0.34090834339037823
5.439310597726439,-0.3088842686796339
5.472680601393472,-0.23356424122893152
5.506050605060506,-0.15433726230880182
5.539420608727539,-0.11128823924276232
5.572790612394573,-0.1260593050127277
5.606160616061606,-0.1918059965412
5.63953061972864,-0.27665435772461644
5.672900623395672,-0.33869756241951066
5.706270627062706,-0.3450129284932047
5.739640630729739,-0.2851352433511761
5.773010634396773,-0.17228428165519374
5.806380638063806,-0.032359271623942525
5.83975064173084,0.11224227725915345
5.873120645397873,0.2537894953361212
5.9064906490649065,0.39818692689876156
5.93986065273194,0.5522303211752622
5.9732306563989725,0.7074193472053786
6.006600660066006,0.8316827496194727
6.0399706637330395,0.8765798696110312
6.073340667400073,0.7987129146053539
6.106710671067106,0.5851445331516876
6.14008067473414,0.2688598211459334
6.173450678401173,-0.07570011653220023
6.206820682068207,-0.3571403292797141
6.24019068573524,-0.5013791757949773
6.273560689402273,-0.48024389674488965
6.306930693069306,-0.3217082370505328
6.34030069673634,-0.09798780020687176
6.373670700403373,0.10218962242650058
6.407040704070407,0.20465515174305676
6.44041070773744,0.17200751300130254
6.473780711404474,0.010346732022465431
6.507150715071507,-0.2387976379620726
6.540520718738541,-0.5153958678388738
6.573890722405573,-0.7592357160170187
6.607260726072607,-0.9238246568838492
6.64063072973964,-0.9831725752085784
6.6740007334066735,-0.9317426357576462
6.707370737073707,-0.779933561897819
6.7407407407407405,-0.5482600449855239
6.774110744407774,-0.2627903359180047
6.807480748074807,0.04732133751992908
6.840850751741841,0.3512544414569276
6.8742207554088735,0.6187636421885001
6.907590759075907,0.8242461405595659
6.94096076274294,0.9516719138017286
6.974330766409974,0.9978623774567134
7.007700770077007,0.9718170857209655
7.041070773744041,0.8898556582150449
7.074440777411074,0.7689045711916721
7.107810781078108,0.6214836470116304
7.141180784745141,0.4549222102484971
7.174550788412174,0.2747354095157105
7.207920792079207,0.08961035639134853
7.241290795746241,-0.08544721499976116
7.274660799413274,-0.2302234599203853
7.308030803080308,-0.32485327494079985
7.341400806747341,-0.3577419094531831
7.3747708104143745,-0.33240346044551183
7.408140814081408,-0.2698007407319264
7.4415108177484415,-0.2042411424473314
7.474880821415475,-0.17335998077503526
7.5082508250825075,-0.2053035892109515
7.541620828749541,-0.3077746184417946
7.5749908324165744,-0.46329022743524
7.608360836083608,-0.6328305145281684
7.641730839750641,-0.7669431400433079
7.675100843417675,-0.820673878397666
7.708470847084708,-0.7674518798775517
7.741840850751742,-0.6075542661358893
7.775210854418775,-0.36861788614466723
7.808580858085808,-0.09815696004873779
7.841950861752841,0.1495663161983535
7.875320865419875,0.32837954418700577
7.908690869086908,0.4124934424205506
7.942060872753942,0.40297927565721287
7.975430876420975,0.32691968160719487
8.008800880088009,0.22953860224656364
8.042170883755041,0.16107185573032928
8.075540887422076,0.16131420344790207
8.108910891089108,0.24585014229305022
8.142280894756142,0.39861243065557733
8.175650898423175,0.5746685970547727
8.20902090209021,0.7142000412277545
8.242390905757242,0.7639410873836042
8.275760909424275,0.6979866776561842
8.309130913091309,0.5286845988762131
8.342500916758341,0.3019229052226679
8.375870920425376,0.07835594947335908
8.409240924092408,-0.09077090191049778
8.442610927759443,-0.1817681062985668
8.475980931426475,-0.2026688536537324
8.50935093509351,-0.18326009817858605
8.542720938760542,-0.15820994020942666
8.576090942427575,-0.1530370575998402
8.60946094609461,-0.17910415054194473
8.642830949761642,-0.23702784574855948
8.676200953428676,-0.3227113172947575
8.709570957095709,-0.4299734344677166
8.742940960762743,-0.548058931915977
8.776310964429776,-0.6575322352842571
8.80968096809681,-0.7301544980489588
8.843050971763843,-0.7358283008154219
8.876420975430875,-0.6545169954873011
8.90979097909791,-0.4869782105151279
8.943160982764942,-0.2580191334775581
8.976530986431976,-0.009801247680969603
9.009900990099009,0.2120579422782157
9.043270993766043,0.37340090467122256
9.076640997433076,0.46132212826778696
9.11001100110011,0.4856127980097796
9.143381004767143,0.4723591029744248
9.176751008434175,0.4528266398478513
9.21012101210121,0.4516510788884407
9.243491015768242,0.47795864100125746
9.276861019435277,0.5220298045570178
9.31023102310231,0.5587103261861441
9.343601026769344,0.5568514358664792
9.376971030436376,0.49181937230987666
9.41034103410341,0.35642730053526595
9.443711037770443,0.1656719464841076
9.477081041437476,-0.04708258011433197
9.51045104510451,-0.24115445623037643
9.543821048771543,-0.3822788602710362
9.577191052438577,-0.4534388244832876
9.61056105610561,-0.45879624898298577
9.643931059772644,-0.41989396041105015
9.677301063439677,-0.366338537602522
9.710671067106711,-0.32484566164210116
9.744041070773743,-0.31054023585105
9.777411074440776,-0.32314906242364255
9.81078107810781,-0.34882568251376916
9.844151081774843,-0.3664122960615344
9.877521085441877,-0.35553745535666825
9.91089108910891,-0.3035267792041549
9.944261092775944,-0.20882843906029508
9.977631096442977,-0.08024559074335312
10.011001100110011,0.06694259526544648
10.044371103777044,0.21570770947589693
10.077741107444076,0.3506063736675574
10.11111111111111,0.4587456844722915
10.144481114778143,0.5292087746892912
10.177851118445178,0.5529403428534131
10.21122112211221,0.5246935801823566
10.244591125779245,0.4467379491784251
10.277961129446277,0.33186436583854595
10.311331133113312,0.20251151178601598
10.344701136780344,0.08453093697299358
10.378071140447377,-0.0024744355909582273
10.411441144114411,-0.053310544293896776
10.444811147781444,-0.0786721274813526
10.478181151448478,-0.09806816583147746
10.51155115511551,-0.1275605169769032
10.544921158782545,-0.1694993304807589
10.578291162449577,-0.2109054213810338
10.611661166116612,-0.2320666335429444
10.645031169783644,-0.22033429430429385
10.678401173450677,-0.18040780783389074
10.711771177117711,-0.13421626507236836
10.745141180784744,-0.10982910594838323
10.778511184451778,-0.12564376006124486
10.81188118811881,-0.17909326495834565
10.845251191785845,-0.24648546039373806
10.878621195452878,-0.29410326089073163
10.911991199119912,-0.29443059518297654
10.945361202786945,-0.23897902162766016
10.978731206453979,-0.14167040477955906
11.012101210121012,-0.032080411616436516
11.045471213788044,0.05729579672916774
11.078841217455079,0.10368718085362875
11.112211221122111,0.10183715417644132
11.145581224789145,0.06513171965555763
11.178951228456178,0.0208965139527329
11.212321232123212,0.0019756411035886275
11.245691235790245,0.036845403371676744
11.27906123945728,0.14035701286688027
11.312431243124312,0.3072670546145971
11.345801246791344,0.5107377128318835
11.379171250458379,0.7072530050924954
11.412541254125411,0.8475327417170678
11.445911257792446,0.8905700543394383
11.479281261459478,0.8161410408351923
11.512651265126513,0.6312234596559169
11.546021268793545,0.36795200514224796
11.57939127246058,0.0740460437565184
11.612761276127612,-0.20057326620987068
11.646131279794645,-0.4163044712149742
11.67950128346168,-0.551937758030971
11.712871287128712,-0.6069367716548165
11.746241290795746,-0.598680814552039
11.779611294462779,-0.5564057550016138
11.812981298129813,-0.513408295019056
11.846351301796846,-0.4985048626980879
11.87972130546388,-0.5277101438059504
11.913091309130913,-0.5979227194928305
11.946461312797945,-0.6853225055223369
11.97983131646498,-0.7508497913075767
12.013201320132012,-0.752759487936582
12.046571323799046,-0.6625661844636322
12.079941327466079,-0.4778525841301342
12.113311331133113,-0.22559057467424842
12.146681334800146,0.04658565503573236
12.18005133846718,0.2879821692116736
12.213421342134213,0.4635597026304063
12.246791345801245,0.5652072904292542
12.28016134946828,0.610644287144613
12.313531353135312,0.6311925537578555
12.346901356802347,0.6550826011534183
12.38027136046938,0.6947353105317788
12.413641364136414,0.7437328462387194
12.447011367803446,0.7836134789128691
12.48038137147048,0.795404962131976
12.513751375137513,0.7688372735316042
12.547121378804546,0.7043539738614486
12.58049138247158,0.6078671435731344
12.613861386138613,0.4827477231735677
12.647231389805647,0.325180470340904
12.68060139347268,0.12683800553510413
12.713971397139714,-0.11589327638793505
12.747341400806746,-0.3914412454597708
12.78071140447378,-0.6682758728069383
12.814081408140813,-0.9003489792488762
12.847451411807846,-1.0418669798233455
12.88082141547488,-1.065070739289641
12.914191419141913,-0.9723166644931464
12.947561422808947,-0.7960020076826566
12.98093142647598,-0.5857707355312372
13.014301430143014,-0.38888087792222037
13.047671433810047,-0.2331028014789192
13.081041437477081,-0.12012997286850026
13.114411441144114,-0.03198099226098004
13.147781444811146,0.053772995610241466
13.18115144847818,0.14841715359827456
13.214521452145213,0.24440980512329946
13.247891455812248,0.3194521540006417
13.28126145947928,0.34987448740542876
13.314631463146315,0.32599367527059553
13.348001466813347,0.2610105859986935
13.381371470480381,0.18825850844548958
13.414741474147414,0.147540185286154
13.448111477814447,0.16692196359532552
13.481481481481481,0.2488380244629487
13.514851485148514,0.3674065915621329
13.548221488815548,0.47843262861847163
13.58159149248258,0.5374209899084812
13.614961496149615,0.5171785535643736
13.648331499816647,0.41708747270543833
13.681701503483682,0.260476091390622
13.715071507150714,0.08233993797903305
13.748441510817747,-0.08597961094256207
13.781811514484781,-0.22766822697019515
13.815181518151814,-0.3421555526405871
13.848551521818848,-0.4379186391331296
13.88192152548588,-0.5213096782777376
13.915291529152915,-0.5884423050779684
13.948661532819948,-0.6254061619327872
13.982031536486982,-0.6170822601372487
14.015401540154015,-0.5592240065282067
14.048771543821047,-0.4657105620136421
14.082141547488082,-0.36511628256155904
14.115511551155114,-0.28706158076395116
14.148881554822148,-0.245456330369483
14.182251558489181,-0.2284294963650442
14.215621562156215,-0.2015220935251515
14.248991565823248,-0.12339377753555425
14.282361569490282,0.0337365032180614
14.315731573157315,0.26923183120324856
14.349101576824348,0.5517856619505753
14.382471580491382,0.8299427884758953
14.415841584158414,1.0493668690835318
14.449211587825449,1.1687181192117342
14.482581591492481,1.168503547610118
14.515951595159516,1.0520175922589285
14.549321598826548,0.8411823565519458
14.582691602493583,0.5707749433952959
14.616061606160615,0.28271228213665933
14.649431609827648,0.019937516322907443
14.682801613494682,-0.18102553164459986
14.716171617161715,-0.29833626453554823
14.749541620828749,-0.33141133620059976
14.782911624495782,-0.30251988495761123
14.816281628162816,-0.25136272478810756
14.849651631829849,-0.2233453429888783
14.883021635496883,-0.25511888083544876
14.916391639163916,-0.3625260528520196
14.94976164283095,-0.535502252725211
14.983131646497982,-0.7418281241923937
15.016501650165015,-0.9379998640405844
15.04987165383205,-1.0825913669708767
15.083241657499082,-1.1468036522763019
15.116611661166116,-1.1187767481174709
15.149981664833149,-1.0015990518858193
15.183351668500183,-0.8078814720190172
15.216721672167216,-0.5546854815441238
15.25009167583425,-0.2612153529933475
15.283461679501283,0.050871414618298534
15.316831683168315,0.3566837428562351
15.35020168683535,0.6292443751235134
15.383571690502382,0.843474193652903
15.416941694169417,0.9817734205586123
15.45031169783645,1.0385419242318836
15.483681701503484,1.0211794387017143
15.517051705170516,0.9468259278543721
15.55042170883755,0.8363388161154506
15.583791712504583,0.7084246317018328
15.617161716171616,0.5765777669598501
15.65053171983865,0.44966333165425626
15.683901723505683,0.33470046818881816
15.717271727172717,0.2390671626897068
15.75064173083975,0.16985199416572042
15.784011734506784,0.1302131134879818
15.817381738173816,0.115073847743024
15.85075174184085,0.10960946117059803
15.884121745507883,0.09277460804150717
15.917491749174916,0.04507725242217361
15.95086175284195,-0.0432211847655891
15.984231756508983,-0.16817968561535895
16.017601760176017,-0.3150250956770694
16.05097176384305,-0.4660982663511464
16.084341767510082,-0.6087322650593374
16.117711771177117,-0.7376148140631593
16.15108177484415,-0.849716461146183
16.184451778511182,-0.9352350057616715
16.217821782178216,-0.9717278610609608
16.25119178584525,-0.9278452018342244
16.284561789512285,-0.7776298120834695
16.317931793179316,-0.5191152947210226
16.35130179684635,-0.18645354811583037
16.384671800513384,0.15358377843243945
16.41804180418042,0.4222887189722459
16.45141180784745,0.5588387344784626
16.484781811514484,0.5452232043409773
16.51815181518152,0.4136954987017692
16.55152181884855,0.23260257010377658
16.584891822515583,0.07727144429329268
16.618261826182618,-0.00011028625495417444
16.651631829849652,0.012173028147233372
16.685001833516683,0.08749288120917663
16.718371837183717,0.17925760259738763
16.75174184085075,0.2450688626643843
16.785111844517782,0.2649400080897901
16.818481848184817,0.24645053600064412
16.85185185185185,0.2168828302306743
16.885221855518886,0.20813741357843468
16.918591859185916,0.24209016415477141
16.95196186285295,0.3220924132584627
16.985331866519985,0.43244446002922354
17.01870187018702,0.5441938746888203
17.05207187385405,0.6239233142144693
17.085441877521085,0.6423716926905986
17.11881188118812,0.580918209170847
17.15218188485515,0.43514558177224577
17.185551888522184,0.21538703423989503
17.21892189218922,-0.05550040706592436
17.252291895856253,-0.34650624804821006
17.285661899523284,-0.623819908210649
17.319031903190318,-0.8557265518443564
17.352401906857352,-1.0160491374731353
