Frequency (Hz),Amplitude
0.0,3.3629502823968798
0.019801980198019802,3.3623087405837357
0.039603960396039604,3.3603858969980087
0.0594059405940594,3.357187097548504
0.07920792079207921,3.3527212532183346
0.09900990099009901,3.3470008416826635
0.1188118811881188,3.3400419094018434
0.13861386138613863,3.3318640740125747
0.15841584158415842,3.322490526781571
0.1782178217821782,3.3119480348219814
0.19801980198019803,3.3002669427015694
0.21782178217821782,3.2874811729917224
0.2376237623762376,3.273628225217255
0.25742574257425743,3.25874917256606
0.27722772277227725,3.2428886556056007
0.297029702970297,3.226094872127211
0.31683168316831684,3.208419562100233
0.33663366336633666,3.1899179865639122
0.3564356435643564,3.1706488991176456
0.37623762376237624,3.1506745084886196
0.39603960396039606,3.1300604304626876
0.4158415841584158,3.1088756272615465
0.43564356435643564,3.0871923322403947
0.45544554455445546,3.065085957571013
0.4752475247524752,3.0426349823722143
0.495049504950495,3.0199208185618365
0.5148514851485149,2.9970276515435357
0.5346534653465347,2.974042252720897
0.5544554455445545,2.9510537607672322
0.5742574257425742,2.928153428590431
0.594059405940594,2.9054343330387438
0.613861386138614,2.8829910446179463
0.6336633663366337,2.860919254854643
0.6534653465346534,2.839315359467171
0.6732673267326733,2.818275996212283
0.6930693069306931,2.7978975371773633
0.7128712871287128,2.7782755363903124
0.7326732673267327,2.75950413491815
0.7524752475247525,2.741675427104198
0.7722772277227723,2.7248787932196885
0.7920792079207921,2.709200205528336
0.8118811881188118,2.694721516515358
0.8316831683168316,2.68151973973007
0.8514851485148516,2.6696663352369536
0.8712871287128713,2.659226512956719
0.891089108910891,2.650258568099917
0.9108910891089109,2.642813263350645
0.9306930693069307,2.6369332723658494
0.9504950495049505,2.632652698461133
0.9702970297029703,2.6299966810392346
0.99009900990099,2.628981100403905
1.00990099009901,2.629612389157776
1.0297029702970297,2.6318874555138962
1.0495049504950495,2.635793720700423
1.0693069306930694,2.6413092693707627
1.0891089108910892,2.648403108723534
1.108910891089109,2.6570355290573096
1.1287128712871286,2.667158555886534
1.1485148514851484,2.6787164816458326
1.1683168316831685,2.6916464634919395
1.188118811881188,2.705879172811604
1.2079207920792079,2.721339481755921
1.227722772277228,2.737947172401201
1.2475247524752475,2.7556176549125055
1.2673267326732673,2.774262682260923
1.2871287128712872,2.793791050515492
1.3069306930693068,2.814109275387261
1.3267326732673268,2.835122237445619
1.3465346534653466,2.856733790165851
1.3663366336633662,2.878847326629808
1.3861386138613863,2.901366302231583
1.405940594059406,2.9241947121002045
1.4257425742574257,2.9472375231188184
1.4455445544554455,2.970401061387075
1.4653465346534653,2.9935933567427977
1.4851485148514851,3.0167244465438294
1.504950495049505,3.0397066413265597
1.5247524752475248,3.062454755226248
1.5445544554455446,3.084886304188103
1.5643564356435644,3.1069216750388446
1.5841584158415842,3.1284842684474476
1.6039603960396038,3.1495006187009134
1.6237623762376237,3.1699004930720007
1.6435643564356437,3.1896169733763595
1.6633663366336633,3.208586522118501
1.683168316831683,3.226749035417884
1.7029702970297032,3.244047884697846
1.7227722772277227,3.2604299489153132
1.7425742574257426,3.275845638912568
1.7623762376237624,3.2902489152877927
1.782178217821782,3.3035973010085367
1.801980198019802,3.3158518898348253
1.8217821782178218,3.3269773514743406
1.8415841584158414,3.336941934262324
1.8613861386138615,3.3457174660426525
1.881188118811881,3.3532793538215317
1.900990099009901,3.3596065826733867
1.920792079207921,3.364681714294848
1.9405940594059405,3.3684908855294258
1.9603960396039604,3.3710238071188057
1.98019801980198,3.372273762876592
2.0,3.372237609425119
2.01980198019802,3.370915776584249
2.0396039603960396,3.3683122684517715
2.0594059405940595,3.3644346651668067
2.0792079207920793,3.3592941252989
2.099009900990099,3.352905388755545
2.118811881188119,3.34528678004797
2.1386138613861387,3.336460211697802
2.1584158415841586,3.3264511875050418
2.1782178217821784,3.3152888053282386
2.1980198019801978,3.303005758950682
2.217821782178218,3.289638338519547
2.237623762376238,3.275226428947802
2.257425742574257,3.259813505559284
2.2772277227722775,3.243446626135555
2.297029702970297,3.2261764183874564
2.3168316831683167,3.208057061724147
2.336633663366337,3.1891462620285713
2.3564356435643563,3.169505217969818
2.376237623762376,3.1491985771924047
2.3960396039603964,3.1282943805208765
2.4158415841584158,3.1068639921097434
2.4356435643564356,3.0849820132575676
2.455445544554456,3.062726177396729
2.4752475247524752,3.0401772235753626
2.495049504950495,3.0174187455759993
2.514851485148515,2.994537013678696
2.5346534653465347,2.9716207659917413
2.5544554455445545,2.94876096625665
2.5742574257425743,2.926050525108008
2.594059405940594,2.9035839819524623
2.6138613861386135,2.8814571449498083
2.633663366336634,2.8597666870521703
2.6534653465346536,2.8386096967073535
2.673267326732673,2.818083182673083
2.6930693069306932,2.7982835334310483
2.712871287128713,2.779305932931443
2.7326732673267324,2.761243735828943
2.7524752475247527,2.7441878069607437
2.7722772277227725,2.7282258315237664
2.792079207920792,2.7134416041672704
2.811881188118812,2.6999143069517757
2.8316831683168315,2.6877177877391016
2.8514851485148514,2.6769198519681314
2.8712871287128716,2.667581581828224
2.891089108910891,2.659756697462403
2.910891089108911,2.6534909749285083
2.9306930693069306,2.648821735151251
2.9504950495049505,2.6457774169824253
2.9702970297029703,2.6443772457582733
2.99009900990099,2.6446310064542584
3.00990099009901,2.6465389277844737
3.0297029702970297,2.6500916805063843
3.0495049504950495,2.6552704899324686
3.0693069306930694,2.662047359391881
3.089108910891089,2.6703853983019417
3.108910891089109,2.680239245760784
3.128712871287129,2.691555578289354
3.148514851485148,2.7042736886286134
3.1683168316831685,2.7183261213873107
3.1881188118811883,2.7336393508452868
3.2079207920792077,2.750134486315743
3.227722772277228,2.7677279910911405
3.2475247524752473,2.7863324020539144
3.267326732673267,2.805857038419705
3.2871287128712874,2.8262086896907226
3.3069306930693068,2.84729227462529
3.3267326732673266,2.869011464782772
3.346534653465347,2.891269267902362
3.366336633663366,2.913968567957442
3.386138613861386,2.937012620150975
3.4059405940594063,2.960305500353681
3.4257425742574257,2.9837525095240904
3.4455445544554455,3.0072605344866226
3.4653465346534653,3.030738367090759
3.485148514851485,3.054096984246163
3.504950495049505,3.077249791645539
3.5247524752475248,3.1001128341712816
3.5445544554455446,3.122604976055613
3.564356435643564,3.1446480538489348
3.5841584158415842,3.166167005167196
3.603960396039604,3.1870899760543834
3.6237623762376234,3.207348409625747
3.6435643564356437,3.2268771184639635
3.6633663366336635,3.2456143430352764
3.683168316831683,3.263501798183086
3.702970297029703,3.2804847095495204
3.722772277227723,3.29651184157589
3.7425742574257423,3.3115355185433675
3.762376237623762,3.325511639938599
3.7821782178217824,3.338399691265857
3.801980198019802,3.3501627512781917
3.8217821782178216,3.360767496465673
3.841584158415842,3.3701842035169944
3.8613861386138613,3.378386750362615
3.881188118811881,3.3853526163103993
3.9009900990099013,3.3910628816986135
3.9207920792079207,3.3955022274139126
3.9405940594059405,3.398658934552835
3.96039603960396,3.400524884443018
3.98019801980198,3.401095559183047
4.0,3.4003700428068386
4.01980198019802,3.3983510231280567
4.03960396039604,3.3950447942710635
4.0594059405940595,3.3904612598461297
4.079207920792079,3.3846139366765473
4.099009900990099,3.3775199589328144
4.118811881188119,3.3692000824729527
4.138613861386139,3.3596786891265276
4.158415841584159,3.348983790592278
4.178217821782178,3.337147031543817
4.198019801980198,3.324203691453139
4.217821782178218,3.3101926845469567
4.237623762376238,3.295156557204226
4.257425742574258,3.279141481984083
4.2772277227722775,3.2621972473407577
4.297029702970297,3.244377241934931
4.316831683168317,3.225738432289647
4.336633663366336,3.206341332363205
4.356435643564357,3.186249963422568
4.376237623762377,3.1655318024004635
4.3960396039603955,3.1442577167105634
4.415841584158416,3.1225018832820792
4.435643564356436,3.100341689363953
4.455445544554455,3.077857612446869
4.475247524752476,3.0551330764692066
4.4950495049504955,3.03225428132267
4.514851485148514,3.0093100025693365
4.534653465346535,2.9863913582422104
4.554455445544555,2.9635915396449675
4.574257425742574,2.941005503215328
4.594059405940594,2.9187296207930413
4.613861386138614,2.896861286059927
4.633663366336633,2.8754984755176203
4.653465346534653,2.854739263155439
4.673267326732674,2.8346812889477913
4.693069306930693,2.8154211825112427
4.712871287128713,2.7970539446360267
4.732673267326733,2.779672290964221
4.752475247524752,2.7633659637757386
4.772277227722772,2.748221019608987
4.792079207920793,2.734319102208853
4.811881188118812,2.7217367119713547
4.8316831683168315,2.7105444845383873
4.851485148514852,2.70080649237926
4.871287128712871,2.692579583971119
4.891089108910891,2.685912775462802
4.910891089108912,2.680846709402286
4.930693069306931,2.677413194183554
4.9504950495049505,2.675634836320273
4.97029702970297,2.6755247755201625
4.99009900990099,2.6770865298970032
5.00990099009901,2.6803139556396944
5.02970297029703,2.685191322212544
5.0495049504950495,2.6916935008593823
5.069306930693069,2.699786261004634
5.089108910891089,2.70942666625151
5.108910891089109,2.7205635592153135
5.128712871287129,2.7331381225049176
5.148514851485149,2.747084501844556
5.1683168316831685,2.7623304766328305
5.188118811881188,2.7787981631469836
5.207920792079208,2.7964047360627347
5.227722772277227,2.81506315488993
5.247524752475248,2.834682883222141
5.267326732673268,2.855170590255907
5.2871287128712865,2.8764308257453166
5.306930693069307,2.8983666613226933
5.326732673267327,2.9208802928504745
5.346534653465346,2.943873600106731
5.366336633663367,2.967248661595303
5.3861386138613865,2.99090822358016
5.405940594059405,3.0147561235540703
5.425742574257426,3.038697669260411
5.445544554455446,3.062639975100462
5.465346534653465,3.086492258289951
5.485148514851486,3.11016609749806
5.504950495049505,3.133575656929983
5.524752475247524,3.15663787892359
5.544554455445545,3.179272648144156
5.564356435643565,3.2014029303984244
5.584158415841584,3.222954888969664
5.603960396039604,3.2438579812151227
5.623762376237624,3.2640450379797907
5.643564356435643,3.2834523281772947
5.663366336633663,3.3020196106790998
5.683168316831684,3.319690175443959
5.702970297029703,3.336410875615926
5.7227722772277225,3.3521321521253515
5.742574257425743,3.3668080521447954
5.762376237623762,3.3803962425835326
5.782178217821782,3.392858019649322
5.801980198019803,3.4041583153659807
5.821782178217822,3.4142657018086595
5.841584158415841,3.4231523937050885
5.861386138613861,3.4307942499498534
5.881188118811881,3.4371707744879845
5.900990099009901,3.4422651169436245
5.920792079207921,3.4460640732970877
5.9405940594059405,3.448558086848357
5.96039603960396,3.449741249645709
5.98019801980198,3.44961130450297
6.0,3.448169647677122
6.01980198019802,3.445421332227834
6.03960396039604,3.4413750720308203
6.0594059405940595,3.43604324636663
6.079207920792079,3.4294419049538356
6.099009900990099,3.4215907732397564
6.118811881188119,3.412513257700826
6.138613861386139,3.402236450838333
6.158415841584159,3.3907911354803133
6.178217821782178,3.378211787917866
6.198019801980198,3.3645365793103195
6.217821782178218,3.3498073746895867
6.237623762376237,3.334069728776349
6.257425742574258,3.3173728776903912
6.2772277227722775,3.299769725492329
6.297029702970296,3.2813168243344246
6.316831683168317,3.2620743468240643
6.336633663366337,3.2421060490158293
6.356435643564356,3.221479222247752
6.376237623762377,3.200264631828129
6.396039603960396,3.1785364403638225
6.415841584158415,3.1563721133057916
6.435643564356436,3.133852304079556
6.455445544554456,3.111060715976793
6.475247524752475,3.0880839378212412
6.495049504950495,3.0650112503019185
6.514851485148515,3.0419343998055672
6.534653465346534,3.0189473365982575
6.554455445544554,2.996145914323732
6.574257425742575,2.9736275480263386
6.594059405940594,2.9514908282922008
6.6138613861386135,2.9298350896556133
6.633663366336634,2.9087599321570266
6.653465346534653,2.888364695878866
6.673267326732673,2.868747889430486
6.693069306930694,2.85000657469992
6.712871287128713,2.832235711717962
6.732673267326732,2.8155274691557732
6.752475247524753,2.799970507748086
6.772277227722772,2.7856492457295032
6.792079207920792,2.7726431171049213
6.811881188118813,2.7610258351455523
6.8316831683168315,2.7508646748011913
6.851485148514851,2.7422197886372612
6.871287128712871,2.7351435713420917
6.891089108910891,2.7296800877230973
6.910891089108911,2.7258645783665396
6.930693069306931,2.7237230557585788
6.9504950495049505,2.723272001680073
6.97029702970297,2.7245181741650994
6.99009900990099,2.727458529364999
7.00990099009901,2.732080260431964
7.02970297029703,2.7383609521979775
7.0495049504950495,2.7462688471553656
7.069306930693069,2.755763215215958
7.089108910891089,2.7667948170902905
7.108910891089109,2.7793064490060115
7.128712871287128,2.79323355495563
7.148514851485149,2.8085048917645596
7.1683168316831685,2.8250432319928813
7.188118811881187,2.8427660899838267
7.207920792079208,2.861586457172079
7.227722772277228,2.8814135339694475
7.247524752475247,2.902153447046052
7.267326732673268,2.9237099425136215
7.287128712871287,2.9459850472912765
7.306930693069306,2.9688796927027146
7.326732673267327,2.9922942960440064
7.346534653465347,3.0161292974163354
7.366336633663366,3.0402856505001643
7.3861386138613865,3.0646652671337073
7.405940594059406,3.0891714165422637
7.425742574257425,3.113709080847731
7.445544554455446,3.1381852690831504
7.465346534653466,3.162509292361123
7.485148514851485,3.186593003120213
7.504950495049505,3.2103510015211185
7.524752475247524,3.23370081210844
7.544554455445544,3.2565630338140137
7.564356435643565,3.2788614662751265
7.584158415841584,3.3005232152916495
7.603960396039604,3.3214787800650893
7.623762376237624,3.3416621246622857
7.643564356435643,3.361010735936835
7.663366336633663,3.3794656699292753
7.683168316831684,3.3969715885600156
7.702970297029703,3.413476788229459
7.7227722772277225,3.4289332217520214
7.742574257425743,3.443296514875727
7.762376237623762,3.456525978478652
7.782178217821782,3.468584617386426
7.801980198019803,3.4794391366230872
7.821782178217822,3.4890599457881772
7.841584158415841,3.497421162146553
7.861386138613862,3.504500612922277
7.881188118811881,3.510279837202836
7.900990099009901,3.514744087784102
7.92079207920792,3.517882333217654
7.9405940594059405,3.519687260260071
7.96039603960396,3.52015527686608
7.980198019801979,3.5192865158138447
8.0,3.517084838998694
8.01980198019802,3.5135578423808975
8.03960396039604,3.5087168615216426
8.05940594059406,3.5025769775883866
8.07920792079208,3.4951570236543215
8.099009900990099,3.4864795910559843
8.118811881188119,3.476571035506385
8.138613861386139,3.465461482587135
8.158415841584159,3.4531848321606375
8.178217821782178,3.439778761150784
8.198019801980198,3.4252847240371445
8.217821782178218,3.4097479502912824
8.237623762376238,3.393217437854415
8.257425742574258,3.375745941611376
8.277227722772277,3.3573899556576463
8.297029702970297,3.33820968798199
8.316831683168317,3.3182690260001744
8.336633663366337,3.297635491174052
8.356435643564357,3.2763801807396415
8.376237623762377,3.254577694349737
8.396039603960396,3.232306043217137
8.415841584158416,3.209646539130353
8.435643564356436,3.186683660513759
8.455445544554456,3.1635048925297946
8.475247524752476,3.1402005380862956
8.495049504950495,3.1168634965326687
8.514851485148515,3.0935890068248333
8.534653465346535,3.070474352030185
8.554455445544555,3.0476185222538605
8.574257425742575,3.02512183341944
8.594059405940595,3.0030854998534227
8.613861386138613,2.9816111593234376
8.633663366336634,2.9608003500810285
8.653465346534654,2.940753940568672
8.673267326732672,2.9215715137657376
8.693069306930694,2.9033507096542057
8.712871287128714,2.8861865309516275
8.732673267326732,2.8701706190374052
8.752475247524753,2.855390508823499
8.772277227722773,2.841928873106925
8.792079207920791,2.8298627685913607
8.811881188118813,2.819262897169414
8.831683168316832,2.8101928971050083
8.85148514851485,2.802708679340994
8.871287128712872,2.7968578241921236
8.891089108910892,2.792679053104358
8.91089108910891,2.7902017889411046
8.930693069306932,2.789445816408764
8.950495049504951,2.7904210518174106
8.97029702970297,2.793127428488973
8.990099009900991,2.7975549009145637
9.00990099009901,2.8036835673903013
9.029702970297029,2.811483907507034
9.04950495049505,2.8209171277109553
9.06930693069307,2.831935605351336
9.089108910891088,2.8444834193190927
9.10891089108911,2.858496953650297
9.12871287128713,2.8739055593695415
9.148514851485148,2.8906322593857245
9.16831683168317,2.9085944813907165
9.188118811881187,2.927704804381594
9.207920792079207,2.9478717055364405
9.227722772277229,2.9690002956159587
9.247524752475247,2.990993032727499
9.267326732673267,3.01375040606889
9.287128712871288,3.0371715830707
9.306930693069306,3.061155015098481
9.326732673267326,3.0855989984979373
9.346534653465348,3.1104021892225844
9.366336633663366,3.135464070547482
9.386138613861386,3.160685374432523
9.405940594059407,3.1859684579538934
9.425742574257425,3.2112176368832186
9.445544554455445,3.236339478975872
9.465346534653467,3.261243059854056
9.485148514851485,3.285840184558741
9.504950495049505,3.3100455779205977
9.524752475247526,3.3337770468848165
9.544554455445544,3.35695561784025
9.564356435643564,3.3795056518653652
9.584158415841586,3.4013549406304024
9.603960396039604,3.4224347854973116
9.623762376237623,3.442680062149729
9.643564356435645,3.462029272870787
9.663366336633663,3.4804245883751377
9.683168316831683,3.497811880896936
9.702970297029704,3.5141407500412805
9.722772277227723,3.5293645427254927
9.742574257425742,3.5434403683689553
9.762376237623764,3.5563291103370207
9.782178217821782,3.5679954345060705
9.801980198019802,3.5784077956910854
9.821782178217823,3.5875384425655703
9.841584158415841,3.5953634216029178
9.861386138613861,3.6018625804788
9.881188118811881,3.6070195712939177
9.900990099009901,3.6108218539040933
9.92079207920792,3.613260699579199
9.94059405940594,3.6143311951519443
9.96039603960396,3.6140322477613593
9.98019801980198,3.6123665902417956
10.0,3.6093407871557446
10.01980198019802,3.6049652414158797
10.03960396039604,3.599254201387509
10.05940594059406,3.5922257683052745
10.07920792079208,3.583901903776463
10.099009900990099,3.5743084370762523
10.118811881188119,3.563475071865669
10.138613861386139,3.5514353918806645
10.158415841584159,3.5382268650478044
10.178217821782178,3.5238908453784976
10.198019801980198,3.5084725718774474
10.217821782178218,3.492021163571153
10.237623762376238,3.474589609618232
10.257425742574258,3.4562347533041553
10.277227722772277,3.4370172685486193
10.297029702970297,3.4170016273649257
10.316831683168317,3.3962560565084075
10.336633663366337,3.3748524813372036
10.356435643564357,3.3528664546874896
10.376237623762377,3.330377068340963
10.396039603960396,3.3074668444419304
10.415841584158416,3.28422160401352
10.435643564356436,3.2607303095381943
10.455445544554454,3.237084878420501
10.475247524752476,3.213379964055993
10.495049504950495,3.189712701208053
10.514851485148514,3.1661824124651643
10.534653465346535,3.142890272737397
10.554455445544555,3.119938929076692
10.574257425742573,3.09743207359357
10.594059405940595,3.075473967914913
10.613861386138614,3.0541689185002805
10.633663366336632,3.0336207032174265
10.653465346534654,3.01393195087282
10.673267326732674,2.99520347688657
10.693069306930692,2.97753357996704
10.712871287128714,2.9610173064327565
10.732673267326733,2.945745690685422
10.752475247524751,2.9318049821758776
10.772277227722773,2.9192758709280713
