Frequency (Hz),Amplitude
0.0,8.634678639201695
0.019801980198019802,8.630994315811472
0.039603960396039604,8.619946429651655
0.0594059405940594,8.601550240705519
0.07920792079207921,8.575831208986898
0.09900990099009901,8.542825035329106
0.1188118811881188,8.502577719960614
0.13861386138613863,8.455145640382499
0.15841584158415842,8.400595650558989
0.1782178217821782,8.339005203980388
0.19801980198019803,8.270462503770103
0.21782178217821782,8.195066683702107
0.2376237623762376,8.11292802479065
0.25742574257425743,8.024168213033258
0.27722772277227725,7.928920644956546
0.297029702970297,7.827330788863733
0.31683168316831684,7.7195566111490415
0.33663366336633666,7.605769078769509
0.3564356435643564,7.48615275099906
0.37623762376237624,7.360906475990013
0.39603960396039606,7.230244210497228
0.4158415841584158,7.094395984453106
0.43564356435643564,6.953609035993186
0.45544554455445546,6.808149147099402
0.4752475247524752,6.658302215321528
0.495049504950495,6.504376103102866
0.5148514851485149,6.346702813073275
0.5346534653465347,6.185641045193363
0.5544554455445545,6.021579199595854
0.5742574257425742,5.8549388968800695
0.594059405940594,5.686179094569382
0.613861386138614,5.515800882896492
0.6336633663366337,5.34435304251183
0.6534653465346534,5.172438437126847
0.6732673267326733,5.000721289393165
0.6930693069306931,4.829935339408895
0.7128712871287128,4.660892799163003
0.7326732673267327,4.494493875295612
0.7524752475247525,4.331736414276367
0.7722772277227723,4.1737249029539685
0.7920792079207921,4.0216776105125485
0.8118811881188118,3.876930077576946
0.8316831683168316,3.7409324754052817
0.8514851485148516,3.6152376776221633
0.8712871287128713,3.50147642984561
0.891089108910891,3.401316133379497
0.9108910891089109,3.31640095170538
0.9306930693069307,3.248273626960274
0.9504950495049505,3.198283614979174
0.9702970297029703,3.167491214650558
0.99009900990099,3.156581655836519
1.00990099009901,3.1658044841244912
1.0297029702970297,3.1949504911699718
1.0495049504950495,3.243371140568471
1.0693069306930694,3.3100363079033963
1.0891089108910892,3.3936185753108163
1.108910891089109,3.4925888232298075
1.1287128712871286,3.6053088907161115
1.1485148514851484,3.7301111958799926
1.1683168316831685,3.865360283738888
1.188118811881188,4.00949560418342
1.2079207920792079,4.1610576410532
1.227722772277228,4.318700820820345
1.2475247524752475,4.4811968329745895
1.2673267326732673,4.647431571864738
1.2871287128712872,4.81639823814639
1.3069306930693068,4.987188450019795
1.3267326732673268,5.1589826233578755
1.3465346534653466,5.331040421344848
1.3663366336633662,5.502691743018303
1.3861386138613863,5.67332849394664
1.405940594059406,5.842397235584567
1.4257425742574257,6.009392719775256
1.4455445544554455,6.173852263299758
1.4653465346534653,6.335350890962089
1.4851485148514851,6.4934971650706546
1.504950495049505,6.647929617999218
1.5247524752475248,6.798313708638757
1.5445544554455446,6.944339230355152
1.5643564356435644,7.085718105931081
1.5841584158415842,7.2221825129492485
1.6039603960396038,7.353483290640184
1.6237623762376237,7.479388586117796
1.6435643564356437,7.599682704056034
1.6633663366336633,7.714165129217479
1.683168316831683,7.82264969587078
1.7029702970297032,7.92496388209828
1.7227722772277227,8.020948210374005
1.7425742574257426,8.110455738662273
1.7623762376237624,8.193351628721533
1.782178217821782,8.269512780361099
1.801980198019802,8.338827522148483
1.8217821782178218,8.401195350551289
1.8415841584158414,8.456526710764322
1.8613861386138615,8.504742813555197
1.881188118811881,8.545775483392951
1.900990099009901,8.57956703392872
1.920792079207921,8.60607016760087
1.9405940594059405,8.625247896755429
1.9603960396039604,8.637073484225558
1.98019801980198,8.641530401814475
2.0,8.638612305588113
2.01980198019802,8.6283230273182
2.0396039603960396,8.610676581835255
2.0594059405940595,8.585697190463177
2.0792079207920793,8.55341932112395
2.099009900990099,8.513887746132568
2.118811881188119,8.467157619158476
2.1386138613861387,8.413294573323965
2.1584158415841586,8.352374842952806
2.1782178217821784,8.284485412090277
2.1980198019801978,8.209724193602982
2.217821782178218,8.128200243454982
2.237623762376238,8.040034015665075
2.257425742574257,7.945357664507318
2.2772277227722775,7.844315401751282
2.297029702970297,7.737063918187788
2.3168316831683167,7.623772880390759
2.336633663366337,7.504625515675918
2.3564356435643563,7.37981930058923
2.376237623762376,7.2495667710551785
2.3960396039603964,7.114096475610982
2.4158415841584158,6.973654097021788
2.4356435643564356,6.828503772094365
2.455445544554456,6.678929644752026
2.4752475247524752,6.525237693453567
2.495049504950495,6.367757880838148
2.514851485148515,6.20684668097991
2.5346534653465347,6.042890047616122
2.5544554455445545,5.876306894705574
2.5742574257425743,5.707553167819536
2.594059405940594,5.537126589690344
2.6138613861386135,5.365572163316512
2.633663366336634,5.193488507503398
2.6534653465346536,5.021535076693781
2.673267326732673,4.850440270612395
2.6930693069306932,4.681010356974916
2.712871287128713,4.514138994975653
2.7326732673267324,4.3508169362610305
2.7524752475247527,4.192141168053609
2.7722772277227725,4.03932232632101
2.792079207920792,3.8936886354988665
2.811881188118812,3.7566839514287955
2.8316831683168315,3.6298567927094654
2.8514851485148514,3.514836752660186
2.8712871287128716,3.4132947432159444
2.891089108910891,3.3268846043000067
2.910891089108911,3.2571661595684906
2.9306930693069306,3.2055139186104635
2.9504950495049505,3.173020695992742
2.9702970297029703,3.160409881554277
2.99009900990099,3.167971814905518
3.00990099009901,3.1955370263832914
3.0297029702970297,3.242492071738656
3.0495049504950495,3.3078345386080485
3.0693069306930694,3.3902559292572727
3.089108910891089,3.4882372088010705
3.108910891089109,3.6001424908746293
3.128712871287129,3.724300292162729
3.148514851485148,3.8590668836291826
3.1683168316831685,4.002870727843933
3.1881188118811883,4.154239958787317
3.2079207920792077,4.311816287458686
3.227722772277228,4.474358993862587
3.2475247524752473,4.640742277019055
3.267326732673267,4.809948569651665
3.2871287128712874,4.981059728762456
3.3069306930693068,5.153247409494624
3.3267326732673266,5.325763458211301
3.346534653465347,5.497930818449022
3.366336633663366,5.669135208760257
3.386138613861386,5.838817678676389
3.4059405940594063,6.0064680547870095
3.4257425742574257,6.171619234643791
3.4455445544554455,6.333842258081558
3.4653465346534653,6.492742073905968
3.485148514851485,6.64795391815506
3.504950495049505,6.799140223989511
3.5247524752475248,6.945987989962813
3.5445544554455446,7.08820654128122
3.564356435643564,7.225525626690281
3.5841584158415842,7.357693801268475
3.603960396039604,7.484477052392456
3.6237623762376234,7.605657632355331
3.6435643564356437,7.721033066555614
3.6633663366336635,7.830415310873403
3.683168316831683,7.93363003587788
3.702970297029703,8.030516018943494
3.722772277227723,8.120924628269812
3.7425742574257423,8.204719385273446
3.762376237623762,8.28177559391749
3.7821782178217824,8.35198002732158
3.801980198019802,8.415230663505977
3.8217821782178216,8.47143646340873
3.841584158415842,8.520517185414576
3.8613861386138613,8.56240323157818
3.881188118811881,8.597035521540949
3.9009900990099013,8.624365390852113
3.9207920792079207,8.644354511031576
3.9405940594059405,8.656974829270602
3.96039603960396,8.662208526171677
3.98019801980198,8.660047990394753
4.0,8.650495809514256
4.01980198019802,8.633564776811372
4.03960396039604,8.609277914139916
4.0594059405940595,8.577668511420827
4.079207920792079,8.538780183751141
4.099009900990099,8.492666947568658
4.118811881188119,8.4393933178047
4.138613861386139,8.379034428497713
4.158415841584159,8.311676179943523
4.178217821782178,8.237415416140598
4.198019801980198,8.156360137069596
4.217821782178218,8.068629751247292
4.237623762376238,7.9743553750418625
4.257425742574258,7.873680186459861
4.2772277227722775,7.766759842549919
4.297029702970297,7.653762971257124
4.316831683168317,7.534871750552894
4.336633663366336,7.410282590014705
4.356435643564357,7.280206932802757
4.376237623762377,7.144872199247232
4.3960396039603955,7.004522897098974
4.415841584158416,6.859421927985885
4.435643564356436,6.709852124831968
4.455445544554455,6.556118060989455
4.475247524752476,6.398548178619852
4.4950495049504955,6.2374972913703415
4.514851485148514,6.073349524422642
4.534653465346535,5.906521763102808
4.554455445544555,5.737467688617105
4.574257425742574,5.566682484706644
4.594059405940594,5.3947082997613505
4.613861386138614,5.222140541488582
4.633663366336633,5.049635059867589
4.653465346534653,4.877916230276226
4.673267326732674,4.707785870003509
4.693069306930693,4.5401327908399125
4.712871287128713,4.375942586057277
4.732673267326733,4.216306946158039
4.752475247524752,4.062431369717908
4.772277227722772,3.915639571286274
4.792079207920793,3.7773722092313267
4.811881188118812,3.649176851930973
4.8316831683168315,3.5326855707602602
4.851485148514852,3.4295765369273106
4.871287128712871,3.3415169758279544
4.891089108910891,3.270087257729658
4.910891089108912,3.2166899326257785
4.930693069306931,3.182452602586203
4.9504950495049505,3.1681381720211337
4.97029702970297,3.174078078716275
4.99009900990099,3.200141806769597
5.00990099009901,3.245749194635205
5.02970297029703,3.309922864886466
5.0495049504950495,3.391369916614121
5.069306930693069,3.488577678875882
5.089108910891089,3.599908660675902
5.108910891089109,3.723683640576079
5.128712871287129,3.858246969601986
5.148514851485149,4.002012761695043
5.1683168316831685,4.153493770636699
5.188118811881188,4.311316303028488
5.207920792079208,4.474224868270282
5.227722772277227,4.641079909208225
5.247524752475248,4.810851296169288
5.267326732673268,4.982609561669226
5.2871287128712865,5.155516234518602
5.306930693069307,5.328814146126033
5.326732673267327,5.501818227528793
5.346534653465346,5.673907071980089
5.366336633663367,5.844515378736111
5.3861386138613865,6.01312729515005
5.405940594059405,6.179270617133468
5.425742574257426,6.342511778243038
5.445544554455446,6.502451545035261
5.465346534653465,6.658721334076762
5.485148514851486,6.810980069618819
5.504950495049505,6.958911507582641
5.524752475247524,7.102221959398425
5.544554455445545,7.240638357353884
5.564356435643565,7.373906610858193
5.584158415841584,7.501790210122005
5.603960396039604,7.624069040076206
5.623762376237624,7.740538372885597
5.643564356435643,7.851008012196816
5.663366336633663,7.955301566362175
5.683168316831684,8.053255831377362
5.702970297029703,8.144720267242306
5.7227722772277225,8.229556553973534
5.742574257425743,8.307638215631082
5.762376237623762,8.37885030253248
5.782178217821782,8.443089123363231
5.801980198019803,8.500262020200859
5.821782178217822,8.550287180587326
5.841584158415841,8.593093481743967
5.861386138613861,8.628620362852066
5.881188118811881,8.656817722044194
5.900990099009901,8.677645835386661
5.920792079207921,8.691075295698749
5.9405940594059405,8.697086969565698
5.96039603960396,8.69567197137213
5.98019801980198,8.686831653623736
6.0,8.670577613247227
6.01980198019802,8.646931713974453
6.03960396039604,8.6159261253338
6.0594059405940595,8.577603379203351
6.079207920792079,8.532016445334792
6.099009900990099,8.479228827747185
6.118811881188119,8.419314684427658
6.138613861386139,8.352358973376502
6.158415841584159,8.278457628712653
6.178217821782178,8.197717771331524
6.198019801980198,8.1102579595022
6.217821782178218,8.016208485830278
6.237623762376237,7.915711728227391
6.257425742574258,7.808922563953001
6.2772277227722775,7.696008857470347
6.297029702970296,7.577152034836217
6.316831683168317,7.452547759677287
6.336633663366337,7.3224067285613685
6.356435643564356,7.186955606819859
6.376237623762377,7.04643812969729
6.396039603960396,6.90111639817578
6.415841584158415,6.7512724040225205
6.435643564356436,6.597209824596716
6.455445544554456,6.439256134747784
6.475247524752475,6.277765090685592
6.495049504950495,6.113119648816738
6.514851485148515,5.945735390808245
6.534653465346534,5.776064533784784
6.554455445544554,5.604600610235091
6.574257425742575,5.431883903651131
6.594059405940594,5.258507719559245
6.6138613861386135,5.085125551862684
6.633663366336634,4.912459162946636
6.653465346534653,4.7413075206961715
6.673267326732673,4.572556409654818
6.693069306930694,4.407188335110964
6.712871287128713,4.246292042019899
6.732673267326732,4.091070549817413
6.752475247524753,3.9428460448683453
6.772277227722772,3.8030592916969392
6.792079207920792,3.673260504492421
6.811881188118813,3.555088052371015
6.8316831683168315,3.4502312911991093
6.851485148514851,3.360374690811209
6.871287128712871,3.2871227389616613
6.891089108910891,3.231909055420484
6.910891089108911,3.195898263819854
6.930693069306931,3.1798940078532087
6.9504950495049505,3.1842689042612378
6.97029702970297,3.2089303007447443
6.99009900990099,3.253329145862744
7.00990099009901,3.316510030831331
7.02970297029703,3.39719194613413
7.0495049504950495,3.4938645167669637
7.069306930693069,3.6048844738812433
7.089108910891089,3.7285607885015595
7.108910891089109,3.8632220736469947
7.128712871287128,4.007264614976231
7.148514851485149,4.159182681543502
7.1683168316831685,4.317584446262036
7.188118811881187,4.48119727075541
7.207920792079208,4.648865781153904
7.227722772277228,4.819545501368306
7.247524752475247,4.992294092140923
7.267326732673268,5.166261608685444
7.287128712871287,5.340680687853758
7.306930693069306,5.514857208564325
7.326732673267327,5.688161715940761
7.346534653465347,5.860021733760823
7.366336633663366,6.029914986885368
7.3861386138613865,6.197363495529345
7.405940594059406,6.361928471792815
7.425742574257425,6.523205935346317
7.445544554455446,6.680822962466302
7.465346534653466,6.834434486073259
7.485148514851485,6.983720571062247
7.504950495049505,7.128384097197304
7.524752475247524,7.26814879007964
7.544554455445544,7.40275754858837
7.564356435643565,7.531971024424795
7.584158415841584,7.655566415839267
7.603960396039604,7.77333644326666
7.623762376237624,7.885088479478683
7.643564356435643,7.990643811047449
7.663366336633663,8.08983701148403
7.683168316831684,8.182515409446692
7.702970297029703,8.268538637984106
7.7227722772277225,8.347778252955159
7.742574257425743,8.420117410612612
7.762376237623762,8.485450595903343
7.782178217821782,8.543683394370413
7.801980198019803,8.594732301679906
7.821782178217822,8.63852456577173
7.841584158415841,8.674998057476413
7.861386138613862,8.70410116617335
7.881188118811881,8.72579271771079
7.900990099009901,8.74004191238081
7.92079207920792,8.746828281260344
7.9405940594059405,8.746141659704271
7.96039603960396,8.737982177221303
7.980198019801979,8.722360263389804
8.0,8.699296669887852
8.01980198019802,8.668822509131356
8.03960396039604,8.630979310446467
8.05940594059406,8.585819095156968
8.07920792079208,8.533404472457372
8.099009900990099,8.473808758479603
8.118811881188119,8.407116121559673
8.138613861386139,8.333421757387296
8.158415841584159,8.252832098494281
8.178217821782178,8.16546506342865
8.198019801980198,8.071450351996495
8.217821782178218,7.970929794162604
8.237623762376238,7.864057761619042
8.257425742574258,7.751001652700352
8.277227722772277,7.631942463293029
8.297029702970297,7.507075458712304
8.316831683168317,7.37661096426513
8.336633663366337,7.24077529545868
8.356435643564357,7.099811852626514
8.376237623762377,6.953982409214081
8.396039603960396,6.803568628169951
8.415841584158416,6.648873846894479
8.435643564356436,6.490225178029529
8.455445544554456,6.327975980990232
8.475247524752476,6.1625087673710315
8.495049504950495,5.994238611819131
8.514851485148515,5.8236171479212
8.534653465346535,5.651137234795847
8.554455445544555,5.477338382257881
8.574257425742575,5.302813017136556
8.594059405940595,5.128213655166558
8.613861386138613,4.954261003650948
8.633663366336634,4.781752947903233
8.653465346534654,4.611574252684629
8.673267326732672,4.444706616584823
8.693069306930694,4.282238426294847
8.712871287128714,4.125373142401243
8.732673267326732,3.975434691879249
8.752475247524753,3.8338675578066326
8.772277227722773,3.7022285196034126
8.792079207920791,3.5821663897550633
8.811881188118813,3.4753859443614075
8.831683168316832,3.383593025930589
8.85148514851485,3.3084200077012453
8.871287128712872,3.251334699407455
8.891089108910892,3.2135409336487073
8.91089108910891,3.1958841138919927
8.930693069306932,3.1987777536621698
8.950495049504951,3.2221654744416566
8.97029702970297,3.2655265689501123
8.990099009900991,3.3279238990951496
9.00990099009901,3.4080840269747084
9.029702970297029,3.504494253429802
9.04950495049505,3.615500896745795
9.06930693069307,3.7393966899573714
9.089108910891088,3.874490426045171
9.10891089108911,4.019156903223049
9.12871287128713,4.171868689637749
9.148514851485148,4.331213034515857
9.16831683168317,4.495897749715121
9.188118811881187,4.66474958291994
9.207920792079207,4.836707940705003
9.227722772277229,5.010816085401313
9.247524752475247,5.186211274941269
9.267326732673267,5.362114795526935
9.287128712871288,5.537822455952814
9.306930693069306,5.712695849101004
9.326732673267326,5.886154513442529
9.346534653465348,6.057669020032057
9.366336633663366,6.226754947971986
9.386138613861386,6.392967678324171
9.405940594059407,6.555897922112558
9.425742574257425,6.715167895006863
9.445544554455445,6.870428054650421
9.465346534653467,7.021354323298111
9.485148514851485,7.16764572655153
9.504950495049505,7.3090223873873
9.524752475247526,7.445223822737553
9.544554455445544,7.57600749727779
9.564356435643564,7.7011475956749535
9.584158415841586,7.820433980325457
9.603960396039604,7.933671306607412
9.623762376237623,8.040678271953283
9.643564356435645,8.141286978698398
9.663366336633663,8.235342393759517
9.683168316831683,8.3227018908235
9.702970297029704,8.403234862950246
9.722772277227723,8.476822395376875
9.742574257425742,8.543356989909235
9.762376237623764,8.602742333644482
9.782178217821782,8.654893105929414
9.801980198019802,8.699734818452844
9.821782178217823,8.737203684228703
9.841584158415841,8.767246511972738
9.861386138613861,8.789820623030351
9.881188118811881,8.804893788595276
9.900990099009901,8.812444185483463
9.92079207920792,8.812460369207388
9.94059405940594,8.804941263545754
9.96039603960396,8.789896166233467
9.98019801980198,8.767344770817589
10.0,8.737317205146663
10.01980198019802,8.69985408739518
10.03960396039604,8.655006600980485
10.05940594059406,8.602836590221035
10.07920792079208,8.543416679121515
10.099009900990099,8.47683041626976
10.118811881188119,8.40317244950568
10.138613861386139,8.32254873479533
10.158415841584159,8.235076784632643
10.178217821782178,8.140885962325102
10.198019801980198,8.040117829727286
10.217821782178218,7.932926557402096
10.237623762376238,7.819479407857807
10.257425742574258,7.6999573044763485
10.277227722772277,7.5745555010732435
10.297029702970297,7.443484369776863
10.316831683168317,7.3069703281585525
10.336633663366337,7.16525693036637
10.356435643564357,7.018606151499885
10.376237623762377,6.86729989969398
10.396039603960396,6.711641796426686
10.415841584158416,6.551959272464934
10.435643564356436,6.388606034582141
10.455445544554454,6.221964966570052
10.475247524752476,6.052451536764315
10.495049504950495,5.880517792607046
10.514851485148514,5.706657029433321
10.534653465346535,5.531409223592278
10.554455445544555,5.355367315806469
10.574257425742573,5.179184414027276
10.594059405940595,5.003581947917045
10.613861386138614,4.829358737696635
10.633663366336632,4.6574008218870615
10.653465346534654,4.488691699479784
10.673267326732674,4.32432235557442
10.693069306930692,4.165500027769
10.712871287128714,4.013554114405546
10.732673267326733,3.869936934016416
10.752475247524751,3.7362162876071507
10.772277227722773,3.6140561270688076
10.792079207920793,3.505181417895363
10.81188118811881,3.411323977237343
10.831683168316832,3.334148191154284
10.851485148514852,3.275159363944541
10.87128712871287,3.235602678249258
10.891089108910892,3.2163660041908764
10.910891089108912,3.217902885883268
