Frequency (Hz),Amplitude
0.0,1.5166109613350218
0.019801980198019802,1.51586428186541
0.039603960396039604,1.5136249907983197
0.0594059405940594,1.5098953295199988
0.07920792079207921,1.504679031547044
0.09900990099009901,1.4979813193455866
0.1188118811881188,1.4898088998980303
0.13861386138613863,1.4801699590380064
0.15841584158415842,1.4690741545809947
0.1782178217821782,1.456532608285613
0.19801980198019803,1.4425578966894355
0.21782178217821782,1.427164040873141
0.2376237623762376,1.4103664952186392
0.25742574257425743,1.3921821352411488
0.27722772277227725,1.3726292445922126
0.297029702970297,1.3517275013515997
0.31683168316831684,1.3294979637523494
0.33663366336633666,1.3059630555153683
0.3564356435643564,1.2811465510115452
0.37623762376237624,1.2550735605216201
0.39603960396039606,1.2277705159318821
0.4158415841584158,1.199265157291608
0.43564356435643564,1.169586520773741
0.45544554455445546,1.1387649287334902
0.4752475247524752,1.1068319827644097
0.495049504950495,1.0738205609288838
0.5148514851485149,1.039764820719748
0.5346534653465347,1.0047002098346816
0.5544554455445545,0.9686634875818062
0.5742574257425742,0.9316927607802888
0.594059405940594,0.89382753952671
0.613861386138614,0.8551088204027133
0.6336633663366337,0.8155792079796447
0.6534653465346534,0.7752830904462548
0.6732673267326733,0.7342668928683059
0.6930693069306931,0.6925794437254043
0.7128712871287128,0.6502725100109764
0.7326732673267327,0.6074015888224581
0.7524752475247525,0.5640270992488515
0.7722772277227723,0.520216217248682
0.7920792079207921,0.4760457778325592
0.8118811881188118,0.43160701673459206
0.8316831683168316,0.38701362241840315
0.8514851485148516,0.34241604971512185
0.8712871287128713,0.2980283776103428
0.891089108910891,0.25418199569772904
0.9108910891089109,0.21144091277383775
0.9306930693069307,0.17086830253641255
0.9504950495049505,0.13467007029001482
0.9702970297029703,0.10756952790283168
0.99009900990099,0.09760902708788091
1.00990099009901,0.10960441765484356
1.0297029702970297,0.13790670328128146
1.0495049504950495,0.1746862377964392
1.0693069306930694,0.2155430480657945
1.0891089108910892,0.258429601314881
1.108910891089109,0.3023510184966118
1.1287128712871286,0.3467741729843685
1.1485148514851484,0.3913827770724259
1.1683168316831685,0.4359707169874764
1.188118811881188,0.4803920276127128
1.2079207920792079,0.5245357009427732
1.227722772277228,0.568312184118075
1.2475247524752475,0.6116457473872424
1.2673267326732673,0.6544699714485483
1.2871287128712872,0.6967249759734374
1.3069306930693068,0.7383556623437744
1.3267326732673268,0.7793105694774745
1.3465346534653466,0.8195411124747725
1.3663366336633662,0.8590010671997775
1.3861386138613863,0.8976462168617073
1.405940594059406,0.9354341076841752
1.4257425742574257,0.9723238794687544
1.4455445544554455,1.0082761484543372
1.4653465346534653,1.0432529272298536
1.4851485148514851,1.0772175712269503
1.504950495049505,1.1101347444719725
1.5247524752475248,1.1419703993998693
1.5445544554455446,1.172691766985183
1.5643564356435644,1.202267354455707
1.5841584158415842,1.2306669485661366
1.6039603960396038,1.2578616229178754
1.6237623762376237,1.2838237481789891
1.6435643564356437,1.3085270043275021
1.6633663366336633,1.3319463942405296
1.683168316831683,1.354058258100447
1.7029702970297032,1.3748402882018955
1.7227722772277227,1.3942715438291322
1.7425742574257426,1.4123324659390677
1.7623762376237624,1.42900489143704
1.782178217821782,1.4442720668720272
1.801980198019802,1.458118661410474
1.8217821782178218,1.4705307789729434
1.8415841584158414,1.4814959694387342
1.8613861386138615,1.4910032388402805
1.881188118811881,1.4990430584832286
1.900990099009901,1.5056073729397224
1.920792079207921,1.5106896068724593
1.9405940594059405,1.5142846706557536
1.9603960396039604,1.5163889647673516
1.98019801980198,1.5170003829318042
2.0,1.5161183140023358
2.01980198019802,1.5137436425744022
2.0396039603960396,1.5098787483295797
2.0594059405940595,1.5045275041145856
2.0792079207920793,1.4976952727658475
2.099009900990099,1.4893889026964369
2.118811881188119,1.4796167222685404
2.1386138613861387,1.468388532982502
2.1584158415841586,1.455715601521032
2.1782178217821784,1.441610650697193
2.1980198019801978,1.426087849365412
2.217821782178218,1.409162801367858
2.237623762376238,1.3908525336042
2.257425742574257,1.3711754833315717
2.2772277227722775,1.35015148482489
2.297029702970297,1.3278017555564887
2.3168316831683167,1.3041488820904832
2.336633663366337,1.2792168059327218
2.3564356435643563,1.2530308096362053
2.376237623762376,1.2256175035370587
2.3960396039603964,1.1970048135949345
2.4158415841584158,1.1672219709405292
2.4356435643564356,1.136299503904823
2.455445544554456,1.1042692335343656
2.4752475247524752,1.0711642739082146
2.495049504950495,1.0370190389983902
2.514851485148515,1.0018692584064153
2.5346534653465347,0.96575200513653
2.5544554455445545,0.9287057397439437
2.5742574257425743,0.8907703768942066
2.594059405940594,0.8519873828564376
2.6138613861386135,0.8123999161560599
2.633663366336634,0.7720530292287607
2.6534653465346536,0.7309939576056644
2.673267326732673,0.6892725368984447
2.6930693069306932,0.6469418101063746
2.712871287128713,0.6040589247840229
2.7326732673267324,0.5606864830305942
2.7524752475247527,0.516894619568715
2.7722772277227725,0.47276428953481575
2.792079207920792,0.42839264282672745
2.811881188118812,0.3839021549680321
2.8316831683168315,0.33945686139863096
2.8514851485148514,0.29529279812438286
2.8712871287128716,0.2517786909315775
2.891089108910891,0.20954541632361012
2.910891089108911,0.16978035607625472
2.9306930693069306,0.134909582947502
2.9504950495049505,0.10989610310465635
2.9702970297029703,0.10236913241904708
2.99009900990099,0.1158186315688584
3.00990099009901,0.14446205215844357
3.0297029702970297,0.18115223999385632
3.0495049504950495,0.2218275273225213
3.0693069306930694,0.2645347081624008
3.089108910891089,0.3082980195864638
3.108910891089109,0.35258429181097384
3.128712871287129,0.39707317849065815
3.148514851485148,0.44155436260554287
3.1683168316831685,0.48587838087620155
3.1881188118811883,0.5299314873615842
3.2079207920792077,0.5736220244385509
3.227722772277228,0.6168726478603742
3.2475247524752473,0.659615695007882
3.267326732673267,0.7017903223197586
3.2871287128712874,0.7433406803627537
3.3069306930693068,0.7842147197807486
3.3267326732673266,0.8243633931117662
3.346534653465347,0.8637401120016424
3.366336633663366,0.902300373274795
3.386138613861386,0.9400014990862006
3.4059405940594063,0.9768024556299418
3.4257425742574257,1.012663726852852
3.4455445544554455,1.0475472272438822
3.4653465346534653,1.0814162427268312
3.485148514851485,1.114235391970592
3.504950495049505,1.145970602649226
3.5247524752475248,1.1765890987059882
3.5445544554455446,1.2060593957353567
3.564356435643564,1.2343513023457326
3.5841584158415842,1.2614359259011838
3.603960396039604,1.287285681428833
3.6237623762376234,1.3118743027626625
3.6435643564356437,1.335176855205312
3.6633663366336635,1.357169749147091
3.683168316831683,1.377830754200565
3.702970297029703,1.3971390135001422
3.722772277227723,1.4150750578861022
3.7425742574257423,1.4316208197470606
3.762376237623762,1.4467596463376564
3.7821782178217824,1.4604763124221811
3.801980198019802,1.4727570321219825
3.8217821782178216,1.483589469866525
3.841584158415842,1.4929627503658502
3.8613861386138613,1.5008674675372526
3.881188118811881,1.5072956923312912
3.9009900990099013,1.5122409794131533
3.9207920792079207,1.515698372664469
3.9405940594059405,1.5176644094790195
3.96039603960396,1.5181371238331605
3.98019801980198,1.5171160481185901
4.0,1.5146022137317907
4.01980198019802,1.510598150420671
4.03960396039604,1.5051078843955017
4.0594059405940595,1.4981369352176814
4.079207920792079,1.4896923114870706
4.099009900990099,1.4797825053559477
4.118811881188119,1.468417485906312
4.138613861386139,1.4556086914366329
4.158415841584159,1.4413690207152174
4.178217821782178,1.4257128232702472
4.198019801980198,1.4086558888018834
4.217821782178218,1.3902154358203864
4.237623762376238,1.3704100996366495
4.257425742574258,1.349259919859522
4.2772277227722775,1.326786327588775
4.297029702970297,1.3030121325361774
4.316831683168317,1.2779615103623443
4.336633663366336,1.2516599905877006
4.356435643564357,1.2241344455271348
4.376237623762377,1.1954130808169432
4.3960396039603955,1.1655254282590153
4.415841584158416,1.1345023419149638
4.435643564356436,1.1023759986614106
4.455445544554455,1.0691799047950632
4.475247524752476,1.0349489107931504
4.4950495049504955,0.9997192370511852
4.514851485148514,0.9635285144253133
4.534653465346535,0.9264158448356541
4.554455445544555,0.8884218892481457
4.574257425742574,0.8495889933711863
4.594059405940594,0.8099613658982302
4.613861386138614,0.769585330943234
4.633663366336633,0.7285096868563847
4.653465346534653,0.6867862202644952
4.673267326732674,0.6444704511355779
4.693069306930693,0.6016227294455121
4.712871287128713,0.5583098805978944
4.732673267326733,0.5146077319755689
4.752475247524752,0.4706051005145794
4.772277227722772,0.42641029262881847
4.792079207920793,0.38216210627555997
4.811881188118812,0.3380492854823341
4.8316831683168315,0.2943466878125068
4.851485148514852,0.25148637675700714
4.871287128712871,0.21020557297720302
4.891089108910891,0.1718678993942585
4.910891089108912,0.13914085912791077
4.930693069306931,0.11701165557791005
4.9504950495049505,0.11205320906994728
4.97029702970297,0.12632314945608472
4.99009900990099,0.15454258714809038
5.00990099009901,0.19053210871531379
5.02970297029703,0.23057738878375628
5.0495049504950495,0.2727771118779153
5.069306930693069,0.31613767583839125
5.089108910891089,0.36010035334246465
5.108910891089109,0.40432384328618637
5.128712871287129,0.4485823659277371
5.148514851485149,0.49271529994775315
5.1683168316831685,0.5366008225505525
5.188118811881188,0.5801413598054243
5.207920792079208,0.623255170270027
5.227722772277227,0.6658712746106393
5.247524752475248,0.7079262924949177
5.267326732673268,0.7493624096245518
5.2871287128712865,0.7901260377170743
5.306930693069307,0.830166912402002
5.326732673267327,0.8694374753601471
5.346534653465346,0.9078924453874109
5.366336633663367,0.9454885176979009
5.3861386138613865,0.9821841519111489
5.405940594059405,1.017939422384755
5.425742574257426,1.0527159130103039
5.445544554455446,1.0864766441136673
5.465346534653465,1.1191860227775177
5.485148514851486,1.1508098103935842
5.504950495049505,1.1813151029661935
5.524752475247524,1.2106703208850316
5.544554455445545,1.2388452057328303
5.564356435643565,1.2658108223013869
5.584158415841584,1.2915395644305547
5.603960396039604,1.3160051636087358
5.623762376237624,1.3391826995137461
5.643564356435643,1.3610486118529703
5.663366336633663,1.3815807129982334
5.683168316831684,1.4007582010147928
5.702970297029703,1.418561672764348
5.7227722772277225,1.434973136824392
5.742574257425743,1.4499760260154175
5.762376237623762,1.46355520936629
5.782178217821782,1.4756970033794268
5.801980198019803,1.4863891824825886
5.821782178217822,1.4956209885746072
5.841584158415841,1.5033831395897197
5.861386138613861,1.5096678370193146
5.881188118811881,1.51446877234226
5.900990099009901,1.5177811323256658
5.920792079207921,1.519601603167296
5.9405940594059405,1.5199283734595104
5.96039603960396,1.518761135962476
5.98019801980198,1.5161010881821604
6.0,1.5119509317558957
6.01980198019802,1.506314870656129
6.03960396039604,1.4991986082305737
6.0594059405940595,1.4906093431056218
6.079207920792079,1.4805557639889952
6.099009900990099,1.4690480434178839
6.118811881188119,1.4560978305107348
6.138613861386139,1.441718242794407
6.158415841584159,1.4259238571947401
6.178217821782178,1.4087307002978446
6.198019801980198,1.390156238012859
6.217821782178218,1.370219364795695
6.237623762376237,1.3489403926288035
6.257425742574258,1.3263410399961906
6.2772277227722775,1.302444421148989
6.297029702970296,1.277275036027631
6.316831683168317,1.2508587612977682
6.336633663366337,1.2232228430746472
6.356435643564356,1.1943958920639073
6.376237623762377,1.1644078820487054
6.396039603960396,1.133290152920924
6.415841584158415,1.101075419813835
6.435643564356436,1.067797790380426
6.455445544554456,1.033492792928831
6.475247524752475,0.9981974190501312
6.495049504950495,0.961950185669986
6.514851485148515,0.9247912232965596
6.534653465346534,0.8867623998906644
6.554455445544554,0.8479074936649756
6.574257425742575,0.808272433890976
6.594059405940594,0.7679056375278319
6.6138613861386135,0.7268584829676059
6.633663366336634,0.6851859834347763
6.653465346534653,0.642947756835234
6.673267326732673,0.600209445504884
6.693069306930694,0.5570448356369683
6.712871287128713,0.5135390950138587
6.732673267326732,0.4697938536685709
6.752475247524753,0.4259354271866361
6.772277227722772,0.3821286061017172
6.792079207920792,0.33860072091607324
6.811881188118813,0.2956855224549343
6.8316831683168315,0.2539068857274971
6.851485148514851,0.2141446607287925
6.871287128712871,0.17796506345341706
6.891089108910891,0.14820945414785316
6.910891089108911,0.1295380324366623
6.930693069306931,0.1270220399682823
6.9504950495049505,0.14153597184787284
6.97029702970297,0.16869655904339056
6.99009900990099,0.20342052599228144
7.00990099009901,0.2423753565833812
7.02970297029703,0.28370388791807355
7.0495049504950495,0.32637479254285756
7.069306930693069,0.3697850942812892
7.089108910891089,0.4135580204751322
7.108910891089109,0.4574416666408539
7.128712871287128,0.5012565142221003
7.148514851485149,0.544867016899699
7.1683168316831685,0.5881655155618847
7.188118811881187,0.6310627499552288
7.207920792079208,0.6734820524565377
7.227722772277228,0.7153556788198815
7.247524752475247,0.7566224236142954
7.267326732673268,0.7972260327612295
7.287128712871287,0.8371141248062722
7.306930693069306,0.8762374451814219
7.326732673267327,0.9145493434004077
7.346534653465347,0.9520054025463953
7.366336633663366,0.9885631746856826
7.3861386138613865,1.0241819911471546
7.405940594059406,1.0588228264689508
7.425742574257425,1.0924482012947898
7.445544554455446,1.1250221138395045
7.465346534653466,1.1565099924945792
7.485148514851485,1.1868786641844649
7.504950495049505,1.2160963345142086
7.524752475247524,1.2441325767652327
7.544554455445544,1.2709583275268819
7.564356435643565,1.2965458872834703
7.584158415841584,1.3208689246679997
7.603960396039604,1.3439024833849766
7.623762376237624,1.3656229910232571
7.643564356435643,1.3860082691456792
7.663366336633663,1.4050375441690501
7.683168316831684,1.4226914586460246
7.702970297029703,1.4389520826365763
7.7227722772277225,1.4538029249168058
7.742574257425743,1.4672289438203467
7.762376237623762,1.479216557545678
7.782178217821782,1.4897536537934908
7.801980198019803,1.4988295986234157
7.821782178217822,1.5064352444403273
7.841584158415841,1.5125629370379443
7.861386138613862,1.51720652164237
7.881188118811881,1.5203613479113236
7.900990099009901,1.522024273856245
7.92079207920792,1.5221936686650115
7.9405940594059405,1.5208694144127843
7.96039603960396,1.5180529066579485
7.980198019801979,1.5137470539293125
8.0,1.5079562761203673
8.01980198019802,1.5006865018162123
8.03960396039604,1.491945164589561
8.05940594059406,1.4817411983140716
8.07920792079208,1.470085031556591
8.099009900990099,1.4569885811253613
8.118811881188119,1.4424652448691992
8.138613861386139,1.4265298938441278
8.158415841584159,1.409198863989627
8.178217821782178,1.390489947488081
8.198019801980198,1.3704223840193483
8.217821782178218,1.3490168521702295
8.237623762376238,1.3262954613182785
8.257425742574258,1.3022817443846877
8.277227722772277,1.2770006519469193
8.297029702970297,1.2504785483246694
8.316831683168317,1.2227432104116867
8.336633663366337,1.1938238302334976
8.356435643564357,1.1637510224838714
8.376237623762377,1.1325568386551248
8.396039603960396,1.100274789863103
8.415841584158416,1.0669398811248103
8.435643564356436,1.0325886607461952
8.455445544554456,0.9972592897216804
8.475247524752476,0.9609916377890055
8.495049504950495,0.9238274152530733
8.514851485148515,0.8858103532433456
8.534653465346535,0.8469864502488341
8.554455445544555,0.8074043104507843
8.574257425742575,0.7671156109440476
8.594059405940595,0.7261757527049457
8.613861386138613,0.6846447779938187
8.633663366336634,0.6425886814279449
8.653465346534654,0.6000813149566512
8.673267326732672,0.557207209650229
8.693069306930694,0.5140658490779197
8.712871287128714,0.4707783056495117
8.732673267326732,0.42749784104191446
8.752475247524753,0.3844273727705974
8.772277227722773,0.34184922531606465
8.792079207920791,0.3001775120031806
8.811881188118813,0.2600529203151812
8.831683168316832,0.22251540890925797
8.85148514851485,0.18930213068572468
8.871287128712872,0.1632438027466696
8.891089108910892,0.14828862741003215
8.91089108910891,0.14790875724534572
8.930693069306932,0.1622090402073654
8.950495049504951,0.18782073026854446
8.97029702970297,0.22076329600193614
8.990099009900991,0.25814390897687706
9.00990099009901,0.2981806049968708
9.029702970297029,0.3398070554454119
9.04950495049505,0.38236766283740653
9.06930693069307,0.42543975938880885
9.089108910891088,0.46873594821446024
9.10891089108911,0.5120501875337069
9.12871287128713,0.5552272160944302
9.148514851485148,0.598144633148697
9.16831683168317,0.6407020403070046
9.188118811881187,0.6828142539117156
9.207920792079207,0.7244069400697689
9.227722772277229,0.7654137358087694
9.247524752475247,0.8057743076244334
9.267326732673267,0.84543301653475
9.287128712871288,0.8843379847250994
9.306930693069306,0.9224404337240472
9.326732673267326,0.9596942096764791
9.346534653465348,0.9960554397535452
9.366336633663366,1.0314822818972131
9.386138613861386,1.0659347419118
9.405940594059407,1.099374539745538
9.425742574257425,1.1317650120851168
9.445544554455445,1.1630710420026908
9.465346534653467,1.1932590089093598
9.485148514851485,1.222296753840814
9.504950495049505,1.2501535563659232
9.524752475247526,1.2768001203227395
9.544554455445544,1.3022085662539549
9.564356435643564,1.3263524289070143
9.584158415841586,1.3492066585314608
9.603960396039604,1.3707476249831516
9.623762376237623,1.390953123855345
9.643564356435645,1.409802384017896
9.663366336633663,1.4272760760706116
9.683168316831683,1.4433563213142109
9.702970297029704,1.4580267009186987
9.722772277227723,1.4712722650300587
9.742574257425742,1.4830795416045381
9.762376237623764,1.493436544799578
9.782178217821782,1.5023327827823025
9.801980198019802,1.509759264843569
9.821782178217823,1.5157085077277432
9.841584158415841,1.5201745411076037
9.861386138613861,1.5231529121505591
9.881188118811881,1.5246406891369388
9.900990099009901,1.52463646410482
9.92079207920792,1.5231403545084563
9.94059405940594,1.5201540038894386
9.96039603960396,1.515680581572155
9.98019801980198,1.5097247814072075
10.0,1.5022928196000147
10.01980198019802,1.4933924316758462
10.03960396039604,1.4830328686486303
10.05940594059406,1.4712248924790465
10.07920792079208,1.4579807709282615
10.099009900990099,1.443314271938641
10.118811881188119,1.4272406577020467
10.138613861386139,1.4097766786121901
10.158415841584159,1.390940567340803
10.178217821782178,1.3707520333311094
10.198019801980198,1.3492322580684868
10.217821782178218,1.326403891571642
10.237623762376238,1.302291050652803
10.257425742574258,1.2769193196293547
10.277227722772277,1.2503157543411028
10.297029702970297,1.2225088905493322
10.316831683168317,1.1935287580830927
10.336633663366337,1.1634069024784366
10.356435643564357,1.132176416360291
10.376237623762377,1.0998719834909882
10.396039603960396,1.0665299393203678
10.415841584158416,1.0321883531153089
10.435643564356436,0.9968871384609422
10.455445544554454,0.9606682013177918
10.475247524752476,0.9235756381968585
10.495049504950495,0.8856560018473488
10.514851485148514,0.8469586588616983
10.534653465346535,0.8075362739225472
10.554455445544555,0.7674454708517314
10.574257425742573,0.7267477441006437
10.594059405940595,0.6855107306867929
10.613861386138614,0.6438100099941371
10.633663366336632,0.601731691346379
