Frequency (Hz),Amplitude
0.0,0.5191000609238247
0.01993355481727575,0.5339570220036096
0.0398671096345515,0.5761804928690198
0.059800664451827246,0.6402352838798003
0.079734219269103,0.7201069158918975
0.09966777408637874,0.810871661153403
0.11960132890365449,0.9089712504511169
0.13953488372093023,1.011946096068603
0.159468438538206,1.118100923414267
0.17940199335548174,1.2262461036622394
0.19933554817275748,1.33552330865948
0.21926910299003324,1.4452931907566036
0.23920265780730898,1.5550636389136387
0.25913621262458475,1.6644436065535788
0.27906976744186046,1.7731129596073982
0.29900332225913623,1.8808024415199678
0.318936877076412,1.987280119392704
0.3388704318936877,2.0923420531156594
0.3588039867109635,2.195805765400985
0.37873754152823924,2.2975056024535334
0.39867109634551495,2.3972893925961176
0.4186046511627907,2.495016010322167
0.4385382059800665,2.59055358147507
0.4584717607973422,2.6837781487542745
0.47840531561461797,2.7745726719979715
0.49833887043189373,2.8628262748133873
0.5182724252491695,2.948433674434387
0.5382059800664452,3.0312947491819644
0.5581395348837209,3.1113142101569204
0.5780730897009968,3.188401352484588
0.5980066445182725,3.2624698676659056
0.6179401993355482,3.3334377031125224
0.637873754152824,3.401226958259111
0.6578073089700996,3.465763809101212
0.6777408637873754,3.5269784548411116
0.6976744186046512,3.5848050817080557
0.717607973421927,3.6391818400708593
0.7375415282392027,3.690050831768249
0.7574750830564785,3.7373581052054115
0.7774086378737541,3.7810536562515944
0.7973421926910299,3.8210914333545576
0.8172757475083057,3.8574293455898614
0.8372093023255814,3.8900292726031136
0.8571428571428572,3.918857075597308
0.877076411960133,3.943882608673895
0.8970099667774087,3.9650797299648444
0.9169435215946844,3.982426312099532
0.9368770764119602,3.995904251639246
0.9568106312292359,4.005499477188111
0.9767441860465116,4.011201955954825
0.9966777408637875,4.013005698597586
1.0166112956810631,4.01090876223694
1.036544850498339,4.004913251569781
1.0564784053156147,3.9950253180645383
1.0764119601328903,3.9812551572628867
1.0963455149501662,3.963617004260425
1.1162790697674418,3.9421291274874415
1.1362126245847177,3.9168138209640846
1.1561461794019936,3.887697395262869
1.176079734219269,3.8548101674782402
1.196013289036545,3.8181864505804293
1.2159468438538206,3.7778645426216912
1.2358803986710964,3.7338867163719454
1.255813953488372,3.6862992100925553
1.275747508305648,3.635152220317687
1.2956810631229239,3.580499897711439
1.3156146179401993,3.5224003473158887
1.3355481727574752,3.4609156348156005
1.3554817275747508,3.3961118008363864
1.3754152823920267,3.328058885796489
1.3953488372093024,3.256830968470627
1.4152823920265782,3.182506222259487
1.435215946843854,3.1051669942428326
1.4551495016611296,3.0248999135227237
1.4750830564784054,2.9417960372594543
1.495016611295681,2.855951045341862
1.514950166112957,2.7674654980658455
1.5348837209302328,2.6764451758815087
1.5548172757475083,2.5830015267358317
1.5747508305647842,2.487252255558738
1.5946843853820598,2.3893221031760667
1.6146179401993357,2.2893438801343278
1.6345514950166113,2.1874598472833124
1.6544850498338872,2.0838235736730972
1.6744186046511629,1.9786024600083756
1.6943521594684385,1.8719812031959222
1.7142857142857144,1.7641666117391084
1.73421926910299,1.6553943914945946
1.754152823920266,1.5459388544894155
1.7740863787375416,1.4361270409097
1.7940199335548175,1.3263596225221803
1.8139534883720931,1.2171424019503807
1.8338870431893688,1.1091345965311503
1.8538205980066447,1.0032238915446454
1.8737541528239203,0.9006438293581682
1.893687707641196,0.8031553411022372
1.9136212624584719,0.7133133875989185
1.9335548172757475,0.6348023718270763
1.9534883720930232,0.572673444548897
1.9734219269102993,0.5329717316462604
1.993355481727575,0.5210215599319548
2.0132890365448506,0.5387229570995836
2.0332225913621262,0.5833228856787392
2.0531561461794023,0.649152652457523
2.073089700996678,0.7302783572208901
2.0930232558139537,0.821918005095811
2.1129568106312293,0.9206351658185514
2.132890365448505,1.0240557677782942
2.1528239202657806,1.1305403553732618
2.1727574750830567,1.238935012452082
2.1926910299003324,1.3484043354950652
2.212624584717608,1.4583238934290679
2.2325581395348837,1.5682114529766606
2.25249169435216,1.6776826307378119
2.2724252491694354,1.7864218687948668
2.292358803986711,1.8941631063420314
2.312292358803987,2.000676676304977
2.332225913621263,2.1057602669462137
2.352159468438538,2.2092325852890276
2.3720930232558137,2.310928847949094
2.39202657807309,2.410697528858101
2.4119601328903655,2.5083979852897813
2.431893687707641,2.6038987068000563
2.4518272425249172,2.6970760120751662
2.471760797342193,2.787813071963938
2.4916943521594686,2.8759991728310874
2.511627906976744,2.961529158855974
2.5315614617940203,3.04430300885535
2.551495016611296,3.124225515099286
2.5714285714285716,3.2012060400334503
2.5913621262458477,3.2751583328860807
2.611295681063123,3.3460003925436985
2.6312292358803986,3.41365436631202
2.6511627906976742,3.478046476574944
2.6710963455149503,3.539106969156489
2.691029900332226,3.5967700785434453
2.7109634551495017,3.6509740061563156
2.7308970099667778,3.7016609086463634
2.7508305647840534,3.748776893808053
2.770764119601329,3.792272022172902
2.7906976744186047,3.8321003127251805
2.810631229235881,3.868219751476601
2.8305647840531565,3.9005923018737074
2.850498338870432,3.9291839162022066
2.870431893687708,3.953964547307052
2.8903654485049834,3.9749081600741074
2.910299003322259,3.9919927422239754
2.9302325581395348,4.0052003140571975
2.950166112956811,4.014516936865019
2.9700996677740865,4.01993271978522
2.990033222591362,4.02144182494023
3.0099667774086383,4.019042470747096
3.029900332225914,4.01273693333757
3.0498338870431896,4.002531546073469
3.0697674418604657,3.988436697188658
3.089700996677741,3.9704668256363727
3.1096345514950166,3.9486404152705674
3.129568106312292,3.9229799875440725
3.1495016611295683,3.8935120929666236
3.169435215946844,3.860267301634547
3.1893687707641196,3.823280193223459
3.2093023255813957,3.7825893469295444
3.2292358803986714,3.7382373319573574
3.249169435215947,3.6902706992884333
3.2691029900332227,3.638739975631736
3.289036544850499,3.583699660662891
3.3089700996677744,3.525208228915868
3.32890365448505,3.4633281380130025
3.3488372093023258,3.3981258453272556
3.3687707641196014,3.32967183569115
3.388704318936877,3.2580406634356978
3.4086378737541527,3.183311012909494
3.428571428571429,3.1055657827597805
3.4485049833887045,3.0248922007478662
3.46843853820598,2.9413819778502366
3.4883720930232562,2.855131513049546
3.508305647840532,2.7662421638078727
3.5282392026578075,2.6748206021178813
3.548172757475083,2.5809792827980247
3.5681063122923593,2.4848370601512895
3.588039867109635,2.386520002462206
3.60797342192691,2.286162472911467
3.6279069767441863,2.183908573177704
3.647840531561462,2.0799140866925296
3.6677740863787376,1.9743491192075644
3.6877076411960132,1.8674017262405835
3.7076411960132893,1.7592829583668246
3.727574750830565,1.6502339763936167
3.7475083056478407,1.5405362396322915
3.7674418604651168,1.4305263366501995
3.787375415282392,1.3206179517561096
3.807308970099668,1.2113349774480597
3.8272425249169437,1.1033622590594572
3.8471760797342194,0.9976243697037652
3.867109634551495,0.8954084106676393
3.887043189368771,0.7985525317828056
3.9069767441860463,0.7097184828276728
3.9269102990033224,0.6327212108931622
3.9468438538205985,0.5727215690006563
3.9667774086378738,0.5357385050693603
3.98671096345515,0.526804916970996
4.0066445182724255,0.5473377197060041
4.026578073089701,0.5942239491535559
4.046511627906977,0.6617329359003625
4.0664451827242525,0.7440541616168505
4.086378737541528,0.8365590268584479
4.106312292358805,0.9359293155050846
4.1262458471760795,1.0398683858120343
4.146179401993356,1.1467845127099274
4.166112956810632,1.2555526898556713
4.186046511627907,1.3653550406954658
4.205980066445183,1.4755778426376807
4.225913621262459,1.5857454594802054
4.245847176079734,1.695477592170152
4.26578073089701,1.804461207011646
4.2857142857142865,1.9124317833980244
4.305647840531561,2.0191605648538635
4.325581395348838,2.124445742557514
4.345514950166113,2.228106260126543
4.365448504983389,2.329977395981506
4.385382059800665,2.429907571252627
4.40531561461794,2.5277560159448735
4.425249169435216,2.623391045006467
4.445182724252492,2.716688773739781
4.465116279069767,2.8075321536842077
4.485049833887043,2.8958102449645446
4.50498338870432,2.981417664954583
4.524916943521594,3.0642541696520853
4.544850498338871,3.14422433578708
4.5647840531561465,3.221237319953108
4.584717607973422,3.2952066770000776
4.604651162790698,3.366050224252615
4.624584717607974,3.433689941297381
4.644518272425249,3.4980518974410955
4.664451827242526,3.559066200707637
4.6843853820598005,3.616666963577279
4.704318936877076,3.6707922816881613
4.724252491694353,3.7213842225013942
4.7441860465116275,3.7683888215361563
4.764119601328904,3.8117560842533678
4.78405315614618,3.851439992037732
4.803986710963455,3.8873985110221665
4.823920265780731,3.9195936027337974
4.8438538205980075,3.947991235729867
4.863787375415282,3.972561397546072
4.883720930232559,3.9932781064058585
4.9036544850498345,4.010119422244362
4.92358803986711,4.02306745668879
4.943521594684386,4.032108381712241
4.963455149501661,4.037232436743692
4.983388704318937,4.038433934074593
5.003322259136213,4.035711262455895
5.023255813953488,4.029066888828148
5.043189368770764,4.0185073581753095
5.063122923588041,4.004043291540182
5.083056478405315,3.9856893822876587
5.102990033222592,3.9634643907537286
5.122923588039868,3.9373911374739423
5.142857142857143,3.9074964952475626
5.162790697674419,3.8738113803650913
5.182724252491695,3.8363707434096757
5.20265780730897,3.7952135601414523
5.222591362126246,3.750382823090863
5.242524916943522,3.701925534630398
5.262458471760797,3.6498927024682164
5.282392026578074,3.5943393387236005
5.3023255813953485,3.535324464013331
5.322259136212625,3.4729111183166057
5.342192691029901,3.407166380815234
5.362126245847176,3.3381614014527905
5.382059800664452,3.265971447661176
5.4019933554817285,3.1906759706149566
5.421926910299003,3.112358696567265
5.44186046511628,3.031107750391706
5.4617940199335555,2.9470158205432324
5.48172757475083,2.8601803774507566
5.501661129568107,2.7707039611447146
5.5215946843853825,2.6786945591047795
5.541528239202658,2.5842661024732507
5.561461794019934,2.4875391187828924
5.5813953488372094,2.388641593488923
5.601328903654485,2.287710112834704
5.621262458471762,2.1848913899317544
5.641196013289036,2.08034431909231
5.661129568106313,1.9742427678383758
5.681063122923589,1.8667794135309579
5.700996677740864,1.758171081589545
5.72093023255814,1.6486662767367055
5.740863787375416,1.5385559707985976
5.760797342192691,1.4281893093997666
5.780730897009967,1.3179968739025254
5.800664451827243,1.208525725422368
5.820598006644518,1.1004930284321768
5.840531561461795,0.9948690379144702
5.8604651162790695,0.8930057023283928
5.880398671096346,0.7968318746466412
5.900332225913622,0.7091291746913986
5.920265780730897,0.6338475281637744
5.940199335548173,0.5762363101980155
5.960132890365449,0.5422257320489201
5.980066445182724,0.5364761841352881
6.0,0.5598919136941176
6.0199335548172765,0.6090454370534125
6.039867109634551,0.6782064704454126
6.059800664451828,0.7617232240926369
6.0797342192691035,0.8551303181456461
6.099667774086379,0.9552255241143055
6.119601328903655,1.059783772001012
6.139534883720931,1.1672549968234045
6.159468438538206,1.276537858437152
6.179401993355482,1.3868277450490503
6.1993355481727574,1.4975182446294324
6.219269102990033,1.6081376138586616
6.23920265780731,1.7183074717556648
6.259136212624584,1.8277155550268684
6.279069767441861,1.936097445611065
6.299003322259137,2.0432241036095524
6.318936877076412,2.148893218378661
6.338870431893688,2.2529231139048775
6.3588039867109645,2.3551483919698732
6.378737541528239,2.4554167769282844
6.398671096345516,2.5535868042002976
6.418604651162791,2.649526109756841
6.438538205980066,2.7431101534598556
6.458471760797343,2.8342212594895067
6.4784053156146175,2.9227478911553675
6.498338870431894,3.0085841007544243
6.51827242524917,3.0916291113816103
6.538205980066445,3.1717869990345307
6.558139534883721,3.2489664515021572
6.578073089700998,3.3230805864002257
6.598006644518272,3.3940468149933474
6.617940199335549,3.461786741592436
6.6378737541528245,3.5262260906549523
6.6578073089701,3.587294655469748
6.677740863787376,3.6449262636353326
6.6976744186046515,3.699058755552563
6.717607973421927,3.749633972931667
6.737541528239203,3.796597754916697
6.7574750830564785,3.839899939902205
6.777408637873754,3.8794943714879646
6.797342192691031,3.915338907312013
6.8172757475083055,3.94739542973768
6.837209302325582,3.975629857560208
6.857142857142858,4.000012158053032
6.877076411960133,4.020516358800688
6.897009966777409,4.0371205588711465
6.9169435215946855,4.049806938969012
6.93687707641196,4.058561770287378
6.956810631229236,4.063375421842329
6.9767441860465125,4.064242366133169
6.996677740863787,4.061161183025278
7.016611295681064,4.054134561803157
7.036544850498339,4.043169301389958
7.056478405315615,4.028276308778857
7.076411960132891,4.009470595771807
7.096345514950166,3.9867712741746546
7.116279069767442,3.9602015496562926
7.136212624584719,3.929788714544699
7.156146179401993,3.8955641399080525
7.17607973421927,3.857563267356185
7.196013289036546,3.815825601101569
7.21594684385382,3.77039470094303
7.235880398671097,3.7213181769865136
7.2558139534883725,3.6686476871023146
7.275747508305648,3.612438938347046
7.295681063122924,3.5527516938648516
7.3156146179402,3.489649787141523
7.335548172757475,3.423201145941295
7.355481727574752,3.3534778288381815
7.3754152823920265,3.2805560780027068
7.395348837209303,3.2045163928771325
7.415282392026579,3.125443630642266
7.435215946843854,3.0434271410542895
7.45514950166113,2.958560945456536
7.475083056478406,2.8709439727592505
7.495016611295681,2.7806803692265833
7.514950166112956,2.687879904445826
7.5348837209302335,2.5926585035053695
7.554817275747508,2.49513894610355
7.574750830564784,2.395451788436014
7.5946843853820605,2.293736585365977
7.614617940199336,2.190143521796581
7.634551495016611,2.0848356083630852
7.6544850498338874,1.9779916654823964
7.674418604651163,1.8698104241549065
7.694352159468439,1.7605162323518488
7.714285714285715,1.6503671062575984
7.73421926910299,1.5396662622804822
7.754152823920266,1.4287789019971266
7.774086378737542,1.318157051753901
7.794019933554818,1.2083769256506163
7.813953488372093,1.1001959361997249
7.83388704318937,0.9946404839243985
7.853820598006645,0.8931408119233541
7.8737541528239205,0.797732468903592
7.893687707641197,0.7113321938571285
7.913621262458472,0.6380294981352421
7.9335548172757475,0.5831373937774784
7.953488372093024,0.5524291734528819
7.9734219269103,0.5501114870511447
7.9933554817275745,0.5765502207058668
8.013289036544851,0.6280442739715885
8.033222591362128,0.6989152874283544
8.053156146179402,0.7836989054234758
8.073089700996679,0.8781021614686155
8.093023255813954,0.979038834248857
8.11295681063123,1.0843523128580819
8.132890365448505,1.192530458068778
8.152823920265782,1.302492115104964
8.172757475083056,1.4134429450097905
8.192691029900331,1.5247813500281109
8.21262458471761,1.6360374150146946
8.232558139534884,1.7468329671220708
8.252491694352159,1.856855088316285
8.272425249169435,1.9658382646612267
8.292358803986712,2.0735521548302884
8.312292358803987,2.1797930724996073
8.332225913621263,2.2843779641069317
8.352159468438538,2.387140090913321
8.372093023255815,2.4879258936108664
8.392026578073091,2.5865926898379876
8.411960132890366,2.683006966647283
8.43189368770764,2.7770431035515037
8.451827242524917,2.868582410981056
8.471760797342194,2.9575124023718256
8.491694352159469,3.043726241068782
8.511627906976745,3.1271223192380373
8.53156146179402,3.2076039372772653
8.551495016611296,3.2850790602820767
8.571428571428573,3.35946013395176
8.591362126245848,3.4306639465701023
8.611295681063122,3.498611526831353
8.6312292358804,3.5632280696145457
8.651162790697676,3.624442883561234
8.67109634551495,3.6821893556393936
8.691029900332227,3.736404928889922
8.710963455149502,3.7870310903331266
8.730897009966778,3.834013366618594
8.750830564784053,3.8773013254757
8.77076411960133,3.9168485813955782
8.790697674418604,3.9526128042720035
8.81063122923588,3.9845557299661203
8.830564784053157,4.012643171951641
8.850498338870432,4.036845033353569
8.870431893687707,4.05713531882181
8.890365448504983,4.073492145788378
8.91029900332226,4.0858977547472835
8.930232558139535,4.094338518273533
8.950166112956811,4.098804948565679
8.970099667774086,4.099291703356579
8.990033222591363,4.09579759009271
9.00996677740864,4.088325568334388
9.029900332225914,4.076882750380114
9.049833887043189,4.061480400169088
9.069767441860467,4.042133930568665
9.089700996677742,4.018862899209837
9.109634551495017,3.991691003095419
9.129568106312293,3.9606460722750643
9.14950166112957,3.92576006296089
9.169435215946844,3.8870690505506755
9.189368770764121,3.8446132231357835
9.209302325581396,3.7984368762044176
9.22923588039867,3.7485884094116733
9.249169435215949,3.695120326486677
9.269102990033224,3.638089239592498
9.289036544850498,3.5775558797616616
9.308970099667773,3.5135851154158564
9.328903654485051,3.4462459814692084
9.348837209302326,3.3756117221399995
9.368770764119601,3.3017598514025996
9.388704318936878,3.224772236057994
9.408637873754152,3.1447352077703554
9.428571428571429,3.0617397122229595
9.448504983388705,2.9758815059494763
9.46843853820598,2.8872614146211033
9.488372093023255,2.795985670940052
9.508305647840533,2.7021663562704927
9.528239202657808,2.60592197840804
9.548172757475083,2.507378229454022
9.56810631229236,2.4066689841197944
9.588039867109636,2.303937622215291
9.60797342192691,2.199338793063144
9.627906976744187,2.093040789555533
9.647840531561462,1.9852287740985732
9.667774086378738,1.8761092114535451
9.687707641196015,1.7659160366315088
9.70764119601329,1.654919355731796
9.727574750830565,1.5434379035020498
9.747508305647841,1.4318571613018292
9.767441860465118,1.3206561311880716
9.787375415282392,1.2104475089467577
9.807308970099669,1.1020387256061115
9.827242524916944,0.9965252816481397
9.84717607973422,0.89543239538229
9.867109634551497,0.8009220902567791
9.887043189368772,0.7160648567044842
9.906976744186046,0.6450951242816113
9.926910299003321,0.5933602318708241
9.9468438538206,0.5664008916587417
9.966777408637874,0.5678855975325738
9.986710963455149,0.597615140740747
10.006644518272426,0.6516473297510801
10.026578073089702,0.7243963548671154
10.046511627906977,0.8106091280636801
10.066445182724253,0.9061752698290425
10.086378737541528,1.0081279065060194
10.106312292358805,1.114379218274851
10.126245847176081,1.2234540653442676
10.146179401993356,1.3342900885322857
10.16611295681063,1.4461017321954575
10.186046511627907,1.5582907837823041
10.205980066445184,1.670387849924512
10.225913621262459,1.7820137979936252
10.245847176079735,1.8928540207920959
10.26578073089701,2.0026409943841874
10.285714285714286,2.1111422668120814
10.305647840531563,2.2181520569385285
10.325581395348838,2.323485291339958
10.345514950166113,2.4269733139123213
10.36544850498339,2.528460760794985
10.385382059800666,2.6278032590354754
10.40531561461794,2.72486571556911
10.425249169435217,2.819521034671591
10.445182724252492,2.9116491501133677
10.465116279069768,3.0011362909812447
10.485049833887045,3.0878744227293304
10.50498338870432,3.171760820819075
10.524916943521594,3.2526977454894466
10.544850498338871,3.330592194203219
10.564784053156147,3.405355714110097
10.584717607973422,3.4769042611058114
10.604651162790697,3.5451580951971673
10.624584717607974,3.6100417042175788
10.64451827242525,3.671483749694166
10.664451827242525,3.7294170300001026
10.684385382059801,3.7837784569457904
10.704318936877076,3.8345090427487
10.724252491694353,3.8815538949329977
10.74418604651163,3.924862217188551
10.764119601328904,3.964387314596873
10.784053156146179,4.0000866019315415
