Frequency (Hz),Amplitude
0.0,5.03516813086925
0.01978021978021978,5.054997260488338
0.03956043956043956,5.113946289992703
0.05934065934065934,5.210461069203976
0.07912087912087912,5.342138645478492
0.0989010989010989,5.5059599179133185
0.11868131868131868,5.6985393853832385
0.13846153846153844,5.9163514087805025
0.15824175824175823,6.155909060618193
0.17802197802197803,6.413888417174549
0.1978021978021978,6.687202949538417
0.21758241758241756,6.973038452855437
0.23736263736263735,7.2688601208320565
0.2571428571428572,7.572401951710968
0.2769230769230769,7.881646289581184
0.2967032967032967,8.194798924418748
0.31648351648351647,8.51026321788465
0.3362637362637363,8.82661528525524
0.35604395604395606,9.142581289182854
0.3758241758241758,9.457017281684642
0.3956043956043956,9.768891662017646
0.4153846153846154,10.077270115386876
0.4351648351648351,10.381302799248337
0.45494505494505494,10.680213508405517
0.4747252747252747,10.973290549932232
0.4945054945054945,11.259879077197555
0.5142857142857143,11.539374658714467
0.5340659340659341,11.811217886318936
0.5538461538461538,12.07488985513765
0.5736263736263736,12.329908373364102
0.5934065934065934,12.575824782419328
0.6131868131868132,12.81222128753156
0.6329670329670329,13.038708715305317
0.6527472527472528,13.254924628765414
0.6725274725274726,13.460531741993679
0.6923076923076923,13.655216586161261
0.7120879120879121,13.838688386803847
0.7318681318681318,14.010678118862383
0.7516483516483516,14.170937711551643
0.7714285714285715,14.319239379720724
0.7912087912087912,14.45537506219854
0.810989010989011,14.579155950811911
0.8307692307692308,14.690412096437072
0.8505494505494506,14.788992080691807
0.8703296703296702,14.874762743772754
0.8901098901098901,14.947608960554303
0.9098901098901099,15.007433458445902
0.9296703296703297,15.054156671697061
0.9494505494505494,15.087716627881857
0.9692307692307692,15.108068863217698
0.989010989010989,15.115186364205112
1.0087912087912088,15.109059533838346
1.0285714285714287,15.089696181353004
1.0483516483516484,15.057121535165745
1.0681318681318681,15.011378279340482
1.087912087912088,14.952526614604016
1.1076923076923075,14.880644345649578
1.1274725274725275,14.795826997229389
1.1472527472527472,14.69818796236724
1.1670329670329669,14.587858686943559
1.1868131868131868,14.464988895945465
1.2065934065934065,14.32974686786354
1.2263736263736265,14.182319765093187
1.2461538461538462,14.022914029805767
1.2659340659340659,13.851755856644907
1.2857142857142858,13.669091755842107
1.3054945054945055,13.475189223008364
1.3252747252747252,13.270337535040436
1.3450549450549452,13.054848695392494
1.3648351648351649,12.829058556545723
1.3846153846153846,12.593328153021444
1.4043956043956045,12.348045284926794
1.4241758241758242,12.09362640002467
1.443956043956044,11.8305188319542
1.4637362637362636,11.55920346379611
1.4835164835164834,11.280197900013965
1.5032967032967033,10.994060246242192
1.523076923076923,10.701393615735208
1.542857142857143,10.402851503713215
1.5626373626373626,10.09914419625152
1.5824175824175823,9.791046408153345
1.6021978021978023,9.479406372888617
1.621978021978022,9.165156634040997
1.6417582417582417,8.849326805997622
1.6615384615384616,8.533058571771262
1.6813186813186813,8.217623151100673
1.7010989010989013,7.904441375474166
1.720879120879121,7.595106307115073
1.7406593406593405,7.291407975546841
1.7604395604395604,6.995359194603264
1.7802197802197801,6.709220460893861
1.7999999999999998,6.435520515691478
1.8197802197802198,6.177067216939133
1.8395604395604395,5.936941006846381
1.8593406593406594,5.718460883135034
1.879120879120879,5.5251113302023
1.8989010989010988,5.360419740190344
1.9186813186813187,5.22777946308381
1.9384615384615385,5.130225197990664
1.9582417582417584,5.070184035894525
1.978021978021978,5.049242135708968
1.9978021978021978,5.067975348368509
2.0175824175824175,5.125884523577196
2.0373626373626372,5.221452198196363
2.0571428571428574,5.352305966138278
2.076923076923077,5.5154489359285295
2.096703296703297,5.707508927801231
2.1164835164835165,5.924965530331162
2.1362637362637362,6.1643305322160735
2.1560439560439564,6.422274041230112
2.175824175824176,6.695700568398155
2.195604395604396,6.981785327734721
2.215384615384615,7.277982313296139
2.2351648351648348,7.58201437633941
2.254945054945055,7.891853175770042
2.2747252747252746,8.205694497705556
2.2945054945054943,8.521932472973932
2.314285714285714,8.839134770119188
2.3340659340659338,9.156019853105748
2.353846153846154,9.471436762588564
2.3736263736263736,9.784347502750348
2.3934065934065933,10.093811907345764
2.413186813186813,10.398974756650551
2.4329670329670328,10.699054879042906
2.452747252747253,10.99333596929582
2.4725274725274726,11.2811588730254
2.4923076923076923,11.561915112700547
2.512087912087912,11.835041459160655
2.5318681318681318,12.10001538044222
2.5516483516483515,12.356351225263914
2.5714285714285716,12.603597021109769
2.5912087912087913,12.84133178636415
2.610989010989011,13.069163272552752
2.6307692307692307,13.286726066724121
2.6505494505494505,13.493679995699816
2.6703296703296706,13.689708783661942
2.6901098901098903,13.874518922640814
2.70989010989011,14.047838722183183
2.7296703296703297,14.20941751005842
2.7494505494505495,14.359024960493082
2.769230769230769,14.49645053028009
2.7890109890109893,14.621502986326002
2.808791208791209,14.734010010892199
2.8285714285714287,14.833817873048659
2.8483516483516484,14.92079115676981
2.8681318681318677,14.994812537725931
2.887912087912088,15.055782602213565
2.9076923076923076,15.10361970286991
2.9274725274725273,15.13825984686546
2.947252747252747,15.159656613199193
2.9670329670329667,15.167781096557679
2.986813186813187,15.16262187596769
3.0065934065934066,15.14418500719292
3.0263736263736263,15.112494038517832
3.046153846153846,15.067590050245167
3.0659340659340657,15.009531718925325
3.085714285714286,14.93839540805471
3.1054945054945056,14.854275287745658
3.1252747252747253,14.757283486703647
3.145054945054945,14.647550280771611
3.1648351648351647,14.525224323343867
3.184615384615385,14.390472924143959
3.2043956043956046,14.243482384239377
3.2241758241758243,14.084458396774862
3.243956043956044,13.913626524798213
3.2637362637362637,13.731232769791474
3.2835164835164834,13.537544247182751
3.3032967032967036,13.332849988293155
3.3230769230769233,13.117461891981582
3.342857142857143,12.891715853822635
3.3626373626373627,12.655973106154093
3.3824175824175824,12.41062180895237
3.4021978021978025,12.156078939468532
3.4219780219780223,11.892792538147564
3.441758241758242,11.621244379860643
3.4615384615384617,11.341953153229108
3.481318681318681,11.055478247137806
3.501098901098901,10.762424262711141
3.520879120879121,10.463446391219536
3.5406593406593405,10.159256823489056
3.5604395604395602,9.85063238377683
3.58021978021978,9.53842360919535
3.5999999999999996,9.223565521475765
3.61978021978022,8.907090355370899
3.6395604395604395,8.59014250729136
3.659340659340659,8.27399593220501
3.679120879120879,7.960074119833656
3.6989010989010986,7.649972581936246
3.718681318681319,7.345483421212713
3.7384615384615385,7.0486209471071
3.758241758241758,6.761646352982626
3.7780219780219784,6.487088069431165
3.7978021978021976,6.227752503121451
3.8175824175824173,5.986717549263632
3.8373626373626375,5.767298930140605
3.8571428571428568,5.572977982149202
3.876923076923077,5.407280550033144
3.896703296703296,5.273602111957061
3.916483516483517,5.17498556032226
3.936263736263736,5.113874324477094
3.956043956043956,5.09187997132664
3.9758241758241755,5.109611877042708
3.9956043956043956,5.166609544898809
4.015384615384615,5.261394893642685
4.035164835164835,5.391631009008311
4.054945054945055,5.554348971883397
4.0747252747252745,5.746195124259223
4.094505494505494,5.963657936306458
4.114285714285715,6.203249548118495
4.134065934065934,6.461633687087738
4.153846153846154,6.735703707921624
4.173626373626373,7.022620662094048
4.193406593406594,7.319822798644346
4.213186813186813,7.625016689051275
4.232967032967033,7.936157890321469
4.252747252747253,8.251426710535672
4.2725274725274724,8.569202676007563
4.292307692307692,8.888039838060669
4.312087912087913,9.206644055635785
4.331868131868132,9.5238527468568
4.351648351648352,9.838617215316923
4.371428571428571,10.14998744052448
4.391208791208792,10.457099114284224
4.410989010989011,10.759162662867844
4.43076923076923,11.055453990535696
4.450549450549451,11.345306695624034
4.4703296703296695,11.628105535293722
4.49010989010989,11.903280942927234
4.50989010989011,12.17030442964246
4.52967032967033,12.428684726747738
4.549450549450549,12.677964548470182
4.569230769230769,12.917717873789057
4.589010989010989,13.147547662829943
4.608791208791209,13.36708393729996
4.628571428571428,13.57598216619104
4.648351648351649,13.773921907774447
4.6681318681318675,13.960605667057417
4.687912087912088,14.135757934640909
4.707692307692308,14.299124378539894
4.7274725274725276,14.450471165201018
4.747252747252747,14.589584389844482
4.767032967032967,14.716269599505164
4.786813186813187,14.83035139486805
4.806593406593407,14.931673099279182
4.826373626373626,15.02009648524518
4.846153846153847,15.09550155037591
4.8659340659340655,15.157786336130984
4.885714285714286,15.206866783945419
4.905494505494506,15.242676624371923
4.9252747252747255,15.265167295817495
4.945054945054945,15.274307890299232
4.964835164835165,15.270085124421259
4.984615384615385,15.252503334503855
5.004395604395604,15.221584495496238
5.024175824175824,15.177368263995294
5.043956043956045,15.11991204639148
5.0637362637362635,15.049291093889444
5.083516483516483,14.96559862692359
5.103296703296703,14.86894599232945
5.123076923076923,14.759462857563685
5.142857142857143,14.637297447316541
5.162637362637362,14.502616829060887
5.182417582417583,14.355607255469591
5.2021978021978015,14.196474573251914
5.221978021978022,14.025444709861135
5.241758241758242,13.842764251775307
5.2615384615384615,13.648701130725529
5.281318681318681,13.44354543743497
5.301098901098901,13.227610386248355
5.320879120879121,13.001233458610406
5.340659340659341,12.764777758853649
5.36043956043956,12.518633622373134
5.380219780219781,12.26322052422279
5.3999999999999995,11.99898934572587
5.41978021978022,11.726425068141541
5.43956043956044,11.446049976086163
5.4593406593406595,11.15842746958293
5.479120879120879,10.864166602572913
5.498901098901099,10.563927487596194
5.518681318681319,10.25842773099732
5.538461538461538,9.948450089747395
5.558241758241758,9.634851568188422
5.578021978021979,9.318574197477608
5.5978021978021975,9.000657756381303
5.617582417582418,8.682254689267696
5.637362637362637,8.364647439050058
5.6571428571428575,8.049268313036245
5.676923076923077,7.7377217978206625
5.696703296703297,7.431808876813485
5.716483516483517,7.133552300743725
5.736263736263735,6.845220819291096
5.756043956043956,6.569349002446862
5.775824175824176,6.308747412425432
5.795604395604395,6.06649562498071
5.815384615384615,5.845908341277867
5.835164835164835,5.650463477010901
5.854945054945055,5.483682175559266
5.874725274725275,5.348956053184575
5.894505494505494,5.249327986983527
5.914285714285715,5.18724854508252
5.934065934065933,5.164346151032132
5.953846153846154,5.181257417239809
5.973626373626374,5.2375575406176935
5.993406593406593,5.331808355662838
6.013186813186813,5.461711730334326
6.032967032967033,5.624331462571512
6.052747252747253,5.816337221530644
6.072527472527473,6.034230123004336
6.092307692307692,6.274524745143428
6.112087912087913,6.533878656854629
6.131868131868131,6.809172550623658
6.151648351648352,7.097550396524513
6.171428571428572,7.396430740442441
6.191208791208791,7.703499232990814
6.210989010989011,8.016690306149425
6.230769230769231,8.334163618528262
6.2505494505494505,8.654278941951233
6.270329670329671,8.975571697744448
6.29010989010989,9.296730337681216
6.309890109890111,9.61657610791522
6.329670329670329,9.934045334562516
6.349450549450549,10.2481741433028
6.36923076923077,10.558085410167246
6.3890109890109885,10.862977693312743
6.408791208791209,11.162115887491726
6.428571428571428,11.45482335600438
6.4483516483516485,11.740475318102858
6.468131868131868,12.018493296618862
6.487912087912088,12.288340457392989
6.507692307692308,12.549517697042399
6.527472527472527,12.80156035789384
6.547252747252747,13.044035468307097
6.567032967032967,13.276539423208314
6.5868131868131865,13.49869603368995
6.606593406593407,13.71015488631838
6.626373626373626,13.910589962635445
6.6461538461538465,14.09969847754166
6.665934065934065,14.277199902071176
6.685714285714286,14.442835141742162
6.705494505494506,14.596365846387506
6.725274725274725,14.737573831305966
6.745054945054945,14.866260592860737
6.764835164835165,14.982246904406956
6.7846153846153845,15.0853724807463
6.804395604395605,15.175495701265538
6.824175824175824,15.252493383581255
6.8439560439560445,15.316260600940089
6.863736263736263,15.366710537857173
6.883516483516484,15.403774379554354
6.903296703296704,15.4274012317155
6.923076923076923,15.437558067936736
6.942857142857143,15.434229703039918
6.962637362637362,15.417418791158692
6.9824175824175825,15.387145848218577
7.002197802197802,15.34344929913476
7.021978021978022,15.286385550761702
7.041758241758242,15.21602909236643
7.061538461538461,15.132472626181874
7.081318681318681,15.035827231450037
7.101098901098901,14.926222566309756
7.1208791208791204,14.803807112949102
7.140659340659341,14.66874847265812
7.16043956043956,14.521233718822158
7.1802197802197805,14.361469817532406
7.199999999999999,14.189684127411963
7.21978021978022,14.006124992525958
7.23956043956044,13.811062444938926
7.259340659340659,13.604789036694497
7.279120879120879,13.387620824831604
7.298901098901099,13.159898537651534
7.318681318681318,12.921988955970042
7.338461538461539,12.674286549716479
7.358241758241758,12.41721541819833
7.3780219780219785,12.151231591886178
7.397802197802197,11.876825764973235
7.417582417582418,11.594526541522566
7.437362637362638,11.304904294023729
7.457142857142857,11.00857575187225
7.476923076923077,10.706209458746502
7.496703296703297,10.398532261878698
7.516483516483516,10.08633702203881
7.536263736263736,9.770491758945761
7.556043956043957,9.4519504694346
7.575824175824176,9.131765869027365
7.595604395604395,8.811104301344583
7.615384615384615,8.491263017329405
7.635164835164835,8.173689921192198
7.654945054945055,7.860005672434751
7.674725274725275,7.552027665750864
7.694505494505494,7.251794805489289
7.7142857142857135,6.961591054958562
7.734065934065935,6.6839643817899015
7.753846153846154,6.421735897526684
7.7736263736263735,6.177991805994303
7.793406593406592,5.956048631221191
7.813186813186814,5.759380971345975
7.832967032967034,5.591502173366002
7.852747252747252,5.455793628800768
7.872527472527472,5.355289080734344
7.892307692307693,5.292435529426142
7.912087912087912,5.268867632315248
7.931868131868132,5.285240471641172
7.951648351648351,5.341159370769444
7.971428571428572,5.435224207800577
7.991208791208791,5.565177008734006
8.010989010989011,5.728117777906213
8.03076923076923,5.920743738157513
8.05054945054945,6.139572407544753
8.07032967032967,6.381123284552353
8.09010989010989,6.642048624830695
8.10989010989011,6.9192156582343305
8.129670329670331,7.2097490403356534
8.149450549450549,7.511044261689957
8.169230769230769,7.820761909650544
8.189010989010988,8.136810653880085
8.20879120879121,8.457324612267795
8.22857142857143,8.780638840122148
8.248351648351647,9.10526522714647
8.268131868131867,9.42987006520586
8.287912087912087,9.753253880176937
8.307692307692308,10.074333708135763
8.327472527472528,10.392127758292398
8.347252747252746,10.705742280725008
8.367032967032966,11.014360402741673
8.386813186813187,11.317232684666026
8.406593406593407,11.613669155465104
8.426373626373627,11.903032609467166
8.446153846153845,12.184732970653869
8.465934065934066,12.458222556806696
8.485714285714286,12.722992100112284
8.505494505494505,12.978567402744403
8.525274725274725,13.224506525128586
8.545054945054945,13.46039742109084
8.564835164835165,13.685855948097583
8.584615384615384,13.90052419258969
8.604395604395604,14.104069060293867
8.624175824175826,14.29618108964402
8.643956043956043,14.476573453320459
8.663736263736263,14.644981118642667
8.683516483516483,14.801160142324157
8.703296703296704,14.94488707908209
8.723076923076924,15.075958486925884
8.742857142857142,15.194190514743736
8.762637362637362,15.299418560159475
8.782417582417583,15.39149698762312
8.802197802197803,15.470298898393262
8.821978021978023,15.535715945522522
8.84175824175824,15.587658188214611
8.86153846153846,15.626053981021231
8.881318681318682,15.650849894322782
8.901098901098901,15.662010663415403
8.920879120879121,15.659519164334249
8.940659340659339,15.643376415300226
8.96043956043956,15.613601603405497
8.98021978021978,15.570232136870768
9.0,15.51332372393361
9.01978021978022,15.442950480181251
9.03956043956044,15.359205066942469
9.05934065934066,15.262198864225002
9.079120879120879,15.152062182648871
9.098901098901099,15.028944519912377
9.11868131868132,14.893014868566308
9.138461538461538,14.744462083301055
9.158241758241758,14.583495317615661
9.178021978021977,14.41034454168977
9.197802197802199,14.225261155581869
9.217582417582419,14.028518714608506
9.237362637362637,13.820413787007482
9.257142857142856,13.601266967867165
9.276923076923078,13.371424077942368
9.296703296703297,13.131257581533305
9.316483516483517,12.881168264260817
9.336263736263735,12.621587219543112
9.356043956043957,12.352978202108318
9.375824175824176,12.075840418231454
9.395604395604396,11.790711835839321
9.415384615384616,11.498173113441966
9.435164835164835,11.198852265213457
9.454945054945055,10.893430200480779
9.474725274725275,10.582647299092395
9.494505494505495,10.2673112087448
9.514285714285714,9.948306074460124
9.534065934065934,9.626603430469492
9.553846153846154,9.30327499450189
9.573626373626373,8.979507593402323
9.593406593406593,8.656620400149748
9.613186813186815,8.336084549314599
9.632967032967032,8.019544981288817
9.652747252747252,7.708843989008477
9.672527472527472,7.406045329799509
9.692307692307693,7.113456831311927
9.712087912087913,6.833648082269737
9.731868131868131,6.569458027866323
9.75164835164835,6.323985203961566
9.771428571428572,6.100551351263067
9.791208791208792,5.902628112261001
9.810989010989012,5.73371781683228
9.83076923076923,5.597184663417496
9.850549450549451,5.496042974937098
9.87032967032967,5.432723706007827
9.89010989010989,5.408854787129017
9.90989010989011,5.425098248119901
9.92967032967033,5.481081062553686
9.94945054945055,5.575436549633274
9.96923076923077,5.705946027982312
9.989010989010989,5.869747646567475
10.008791208791209,6.063569595906875
10.028571428571428,6.283949390783452
10.048351648351648,6.527414250317671
10.068131868131868,6.790612569488543
10.08791208791209,7.070398044428337
10.107692307692307,7.363874511257498
10.127472527472527,7.668411703219643
10.147252747252747,7.981641535735157
10.167032967032966,8.301442684630727
10.186813186813188,8.625919118832988
10.206593406593406,8.953376389290938
10.226373626373626,9.282298035181926
10.246153846153845,9.611323444585812
10.265934065934067,9.93922782594132
10.285714285714286,10.264904520103018
10.305494505494504,10.587349632389675
10.325274725274724,10.905648829194249
10.345054945054946,11.218966081365918
10.364835164835165,11.526534117498109
10.384615384615385,11.827646355533226
10.404395604395603,12.121650098881764
10.424175824175824,12.407940806409165
10.443956043956044,12.685957270049721
10.463736263736264,12.955177557226081
10.483516483516484,13.215115596596583
10.503296703296703,13.465318304498734
10.523076923076923,13.705363165761327
10.542857142857143,13.934856196472834
10.562637362637362,14.153430228060833
10.582417582417584,14.360743461929218
10.602197802197802,14.556478252183114
10.621978021978022,14.740340080893322
10.641758241758241,14.912056696131097
10.661538461538463,15.071377387830577
10.681318681318682,15.218072380571169
10.7010989010989,15.351932325752777
10.72087912087912,15.47276787847623
