Time (s),Filtered Signal
0.0,0.020265327530744677
0.03337000366703337,0.024025891442233657
0.06674000733406674,0.14928485775100267
0.1001100110011001,0.4616703439982954
0.13348001466813347,0.9394232991929283
0.16685001833516683,1.4810696310863851
0.2002200220022002,1.9476482200960425
0.2335900256692336,2.21976951472546
0.26696002933626695,2.24393274723248
0.3003300330033003,2.0486569809117103
0.33370003667033366,1.725519880089866
0.36707004033736707,1.3858884944626082
0.4004400440044004,1.1138838629066543
0.4338100476714338,0.9362144750075114
0.4671800513384672,0.8206658419329451
0.5005500550055005,0.7015564027430321
0.5339200586725339,0.5183079112419104
0.5672900623395672,0.2477629400240272
0.6006600660066006,-0.08533671451108961
0.634030069673634,-0.42368852186240497
0.6674000733406673,-0.7087113867441653
0.7007700770077008,-0.9092816441006837
0.7341400806747341,-1.0313741000841083
0.7675100843417675,-1.1040246864386436
0.8008800880088008,-1.1520851908200833
0.8342500916758342,-1.174836877502987
0.8676200953428675,-1.1457037916338686
0.9009900990099009,-1.0340923600660208
0.9343601026769344,-0.8349869181956214
0.9677301063439677,-0.5857390370884598
1.001100110011001,-0.35692401486729564
1.0344701136780343,-0.2204874339453332
1.0678401173450678,-0.21299868646215148
1.1012101210121013,-0.3152964505554496
1.1345801246791345,-0.46024368787899095
1.167950128346168,-0.5641391776128215
1.2013201320132012,-0.5646614050245736
1.2346901356802347,-0.44614201121658453
1.268060139347268,-0.24147551530580333
1.3014301430143014,-0.012875206847129304
1.3348001466813346,0.1767175497143879
1.368170150348368,0.2878212487063893
1.4015401540154016,0.31532899442540036
1.4349101576824348,0.2847486810907949
1.4682801613494683,0.2382150220736843
1.5016501650165015,0.21711598738827984
1.535020168683535,0.2476759005483622
1.5683901723505682,0.3338012280132004
1.6017601760176017,0.4587501277471953
1.6351301796846351,0.5940563491687665
1.6685001833516684,0.7113187247739498
1.7018701870187019,0.7913305190510709
1.735240190685735,0.8266648063354869
1.7686101943527686,0.8177451473657804
1.8019801980198018,0.7663147369968547
1.8353502016868353,0.6714715356088528
1.8687202053538687,0.5311936838544633
1.902090209020902,0.34815157101668126
1.9354602126879354,0.13544013318646625
1.9688302163549687,-0.08235101703395369
2.002200220022002,-0.2746544751690273
2.0355702236890356,-0.4151383829604576
2.0689402273560686,-0.4918572056778464
2.102310231023102,-0.5121059164401459
2.1356802346901356,-0.49895732941469906
2.169050238357169,-0.4804181302939744
2.2024202420242025,-0.4759473685845051
2.2357902456912355,-0.48673604377402346
2.269160249358269,-0.49464230590793085
2.3025302530253025,-0.4706867887304927
2.335900256692336,-0.38954480361646776
2.369270260359369,-0.24369870004741304
2.4026402640264024,-0.051008995202082144
2.436010267693436,0.1478179737691761
2.4693802713604693,0.3013250606605105
2.502750275027503,0.36462815933246806
2.536120278694536,0.3155100295606482
2.5694902823615693,0.16320064379423577
2.6028602860286028,-0.05341301403617211
2.636230289695636,-0.2772470319066423
2.6696002933626692,-0.4496247624535042
2.7029702970297027,-0.5260657815126542
2.736340300696736,-0.48650892675713875
2.7697103043637696,-0.33807386875614226
2.803080308030803,-0.11127125425841027
2.836450311697836,0.1479561218790332
2.8698203153648696,0.3880502247868341
2.903190319031903,0.562063941992179
2.9365603226989365,0.6374213173152286
2.96993032636597,0.603972997080494
3.003300330033003,0.4780967538892153
3.0366703337000365,0.30010187475634514
3.07004033736707,0.12349021725801479
3.1034103410341034,-0.002075727488801191
3.1367803447011364,-0.048399406222659876
3.17015034836817,-0.019376591914662965
3.2035203520352034,0.05102722638550166
3.236890355702237,0.11358844021663896
3.2702603593692703,0.12518384357120402
3.3036303630363033,0.06684846830808026
3.3370003667033368,-0.04983522825173616
3.3703703703703702,-0.1904368334195074
3.4037403740374037,-0.31472316977477
3.4371103777044367,-0.39385631053318537
3.47048038137147,-0.4191460227822879
3.5038503850385037,-0.3989281821070822
3.537220388705537,-0.3469762609147897
3.5705903923725706,-0.2705658804028185
3.6039603960396036,-0.1662286882685772
3.637330399706637,-0.026300578532113834
3.6707004033736705,0.14765249518004608
3.704070407040704,0.33342625080747906
3.7374404107077375,0.48748013026816045
3.7708104143747705,0.5580467390823143
3.804180418041804,0.5071444637743366
3.8375504217088374,0.33075909740016335
3.870920425375871,0.0663358446459148
3.904290429042904,-0.21735462965249758
3.9376604327099374,-0.44411675149081736
3.971030436376971,-0.5573257948409187
4.004400440044004,-0.5381689402182085
4.037770443711038,-0.40809048742050846
4.071140447378071,-0.21624700614159942
4.104510451045105,-0.019320048884082237
4.137880454712137,0.1369362104717188
4.171250458379171,0.2278986875581235
4.204620462046204,0.2508716288402182
4.237990465713238,0.21969337717831966
4.271360469380271,0.1575307882970942
4.304730473047305,0.0904684347854515
4.338100476714338,0.0420243016913031
4.3714704803813715,0.027791549197691962
4.404840484048405,0.05059164910735429
4.438210487715438,0.09843467526893647
4.471580491382471,0.14804141178493507
4.5049504950495045,0.17449704710629366
4.538320498716538,0.16368783467697917
4.571690502383571,0.12114564175354313
4.605060506050605,0.07136717778018217
4.638430509717638,0.046147419069613574
4.671800513384672,0.06679588469899071
4.705170517051705,0.12952066524056982
4.738540520718738,0.20273967487244784
4.771910524385771,0.23934984459070785
4.805280528052805,0.1989439864499138
4.838650531719838,0.06909660501764418
4.872020535386872,-0.1253727593092937
4.905390539053905,-0.3304221921441466
4.938760542720939,-0.48455460778574316
4.972130546387972,-0.5438373339967744
5.005500550055006,-0.4983712760209232
5.038870553722038,-0.3732371343700993
5.072240557389072,-0.21494698821438987
5.105610561056105,-0.07112529775628011
5.138980564723139,0.026745848532278613
5.172350568390172,0.07059078113921662
5.2057205720572055,0.07182722325946805
5.239090575724239,0.050441362683988245
5.272460579391272,0.023694281833367838
5.305830583058306,-2.2896563472324578e-05
5.3392005867253385,-0.020337758427108107
5.372570590392372,-0.03927125488173508
5.405940594059405,-0.05539539630121825
5.439310597726439,-0.06187397974313477
5.472680601393472,-0.04975607087930376
5.506050605060506,-0.014576444277161966
5.539420608727539,0.03778872866909031
5.572790612394573,0.09001085684490351
5.606160616061606,0.11887700686103476
5.63953061972864,0.10625988563681642
5.672900623395672,0.05103259298230898
5.706270627062706,-0.02433413842885623
5.739640630729739,-0.07787016932865103
5.773010634396773,-0.06411211599596951
5.806380638063806,0.043113249327233476
5.83975064173084,0.23171548151543553
5.873120645397873,0.44758179395815345
5.9064906490649065,0.6116429685284216
5.93986065273194,0.6528106615902128
5.9732306563989725,0.5419883191627222
6.006600660066006,0.30945856589055215
6.0399706637330395,0.03488104363638576
6.073340667400073,-0.18703455371113636
6.106710671067106,-0.28892826345765227
6.14008067473414,-0.2601576240999488
6.173450678401173,-0.1485215594587603
6.206820682068207,-0.03401504801023201
6.24019068573524,0.01150660934563923
6.273560689402273,-0.04171877563912506
6.306930693069306,-0.17014926675918998
6.34030069673634,-0.3126595405718959
6.373670700403373,-0.40376604454407794
6.407040704070407,-0.40680441727503036
6.44041070773744,-0.3305941263656268
6.473780711404474,-0.2222623121731183
6.507150715071507,-0.14101297959361686
6.540520718738541,-0.12662702904227993
6.573890722405573,-0.17833197825334884
6.607260726072607,-0.25408730334649354
6.64063072973964,-0.2904110138109786
6.6740007334066735,-0.23336661650675866
6.707370737073707,-0.0663719407864175
6.7407407407407405,0.17802430660777752
6.774110744407774,0.42817586754260906
6.807480748074807,0.6013372929837448
6.840850751741841,0.6376697723107765
6.8742207554088735,0.5252710444723656
6.907590759075907,0.3049092801628725
6.94096076274294,0.052164280853146255
6.974330766409974,-0.15491860304805427
7.007700770077007,-0.26770506260938776
7.041070773744041,-0.2835936861567738
7.074440777411074,-0.23996420959250078
7.107810781078108,-0.1891872543717507
7.141180784745141,-0.1678944839298549
7.174550788412174,-0.17660699076133776
7.207920792079207,-0.18046934319861574
7.241290795746241,-0.13083384802236156
7.274660799413274,0.0035540664543214054
7.308030803080308,0.21229075912810838
7.341400806747341,0.4393527708592672
7.3747708104143745,0.602913936322756
7.408140814081408,0.6306509054440318
7.4415108177484415,0.49427217663125983
7.474880821415475,0.22664304215010983
7.5082508250825075,-0.08749438769063611
7.541620828749541,-0.3439427270440293
7.5749908324165744,-0.4602816815399534
7.608360836083608,-0.4073398610645469
7.641730839750641,-0.2172619235538233
7.675100843417675,0.03391866339555181
7.708470847084708,0.25928062601256946
7.741840850751742,0.39346584973859217
7.775210854418775,0.41083307413016057
7.808580858085808,0.3244275303042606
7.841950861752841,0.17079308870419677
7.875320865419875,-0.008803352383639473
7.908690869086908,-0.18131658492143146
7.942060872753942,-0.32563761038642275
7.975430876420975,-0.4300969514833089
8.008800880088009,-0.48949675230701756
8.042170883755041,-0.5052730824550914
8.075540887422076,-0.487657657249935
8.108910891089108,-0.45530323042139276
8.142280894756142,-0.4285780471566725
8.175650898423175,-0.4174253093916374
8.20902090209021,-0.41019756485967984
8.242390905757242,-0.3721090067775914
8.275760909424275,-0.258451412227322
8.309130913091309,-0.039511192757882375
8.342500916758341,0.27440705934569265
8.375870920425376,0.6227578440490285
8.409240924092408,0.9090122445014945
8.442610927759443,1.036845305693486
8.475980931426475,0.9528031407392317
8.50935093509351,0.6742130523818897
8.542720938760542,0.2867836559807244
8.576090942427575,-0.08876725710384435
8.60946094609461,-0.3456167176493407
8.642830949761642,-0.4316218681261104
8.676200953428676,-0.3627902132071442
8.709570957095709,-0.2049329510969272
8.742940960762743,-0.035689611863811026
8.776310964429776,0.09153777304774685
8.80968096809681,0.1632503050540471
8.843050971763843,0.19589781727744807
8.876420975430875,0.2104490831301936
8.90979097909791,0.2099162364528823
8.943160982764942,0.17484764703115563
8.976530986431976,0.07932934213507599
9.009900990099009,-0.08348584281544821
9.043270993766043,-0.28360955753584177
9.076640997433076,-0.4570554034011958
9.11001100110011,-0.5299534263084096
9.143381004767143,-0.4521383866812546
9.176751008434175,-0.22289697996911279
9.21012101210121,0.10414799259832433
9.243491015768242,0.43893958188817966
9.276861019435277,0.6863729548355357
9.31023102310231,0.7766465958461256
9.343601026769344,0.6829032247835111
9.376971030436376,0.42262442331259487
9.41034103410341,0.04726933546438599
9.443711037770443,-0.3719864352534674
9.477081041437476,-0.7568660285411069
9.51045104510451,-1.0325644337827673
9.543821048771543,-1.1393441610179844
9.577191052438577,-1.047026058736911
9.61056105610561,-0.7691879567282892
9.643931059772644,-0.36905976256513345
9.677301063439677,0.0509314518742467
9.710671067106711,0.37766021658079374
9.744041070773743,0.5256942185807453
9.777411074440776,0.4699523563871637
9.81078107810781,0.25704283490911817
9.844151081774843,-0.011738517091122967
9.877521085441877,-0.21970138863730604
9.91089108910891,-0.2795906899702564
9.944261092775944,-0.16461193559146073
9.977631096442977,0.0868065297601462
10.011001100110011,0.3924056095276565
10.044371103777044,0.6619182898853354
10.077741107444076,0.8305949843382923
10.11111111111111,0.8769850300292952
10.144481114778143,0.820383556579921
10.177851118445178,0.7027721644774984
10.21122112211221,0.5657105706329895
10.244591125779245,0.43276850795540706
10.277961129446277,0.30385262654192347
10.311331133113312,0.161885159662094
10.344701136780344,-0.0126573530440395
10.378071140447377,-0.2263618247452667
10.411441144114411,-0.4634952087922488
10.444811147781444,-0.6869978945788477
10.478181151448478,-0.850195760773236
10.51155115511551,-0.9150518773411203
10.544921158782545,-0.8693609797419443
10.578291162449577,-0.7347140088413968
10.611661166116612,-0.5602794162988965
10.645031169783644,-0.403661028512517
10.678401173450677,-0.3065936430057846
10.711771177117711,-0.27655817298970997
10.745141180784744,-0.2833044464003396
10.778511184451778,-0.2723831611708301
10.81188118811881,-0.1895811921413285
10.845251191785845,-0.005062417039055703
10.878621195452878,0.2732424316245443
10.911991199119912,0.6015762335648377
10.945361202786945,0.9148092261893565
10.978731206453979,1.1458255497080867
11.012101210121012,1.2422181461188517
11.045471213788044,1.1763192518953287
11.078841217455079,0.9488704725262056
11.112211221122111,0.588663941635558
11.145581224789145,0.1494653248620756
11.178951228456178,-0.29687021777238454
11.212321232123212,-0.6731165891072594
11.245691235790245,-0.9149517427123283
11.27906123945728,-0.9899124191651218
11.312431243124312,-0.9086724061027378
11.345801246791344,-0.7214243979546601
11.379171250458379,-0.49857413151731794
11.412541254125411,-0.3034057822711851
11.445911257792446,-0.16947770928708944
11.479281261459478,-0.09351302137212185
11.512651265126513,-0.046209622734206396
11.546021268793545,0.00631047707500496
11.57939127246058,0.08284557681882665
11.612761276127612,0.17936263804241048
11.646131279794645,0.2753395417560522
11.67950128346168,0.348116145100804
11.712871287128712,0.3855813369356924
11.746241290795746,0.39022993441835807
11.779611294462779,0.3740499184347627
11.812981298129813,0.3492308732849885
11.846351301796846,0.32100485269783724
11.87972130546388,0.28608331162559597
11.913091309130913,0.23594749633676462
11.946461312797945,0.1618031622193103
11.97983131646498,0.05848870402561448
12.013201320132012,-0.07321823784692963
12.046571323799046,-0.22489013954642456
12.079941327466079,-0.37872499884879374
12.113311331133113,-0.5070035741682981
12.146681334800146,-0.5752587994601562
12.18005133846718,-0.5508945481784329
12.213421342134213,-0.4159783250511885
12.246791345801245,-0.17937296888923787
12.28016134946828,0.11831103731044701
12.313531353135312,0.4116340469256208
12.346901356802347,0.628760304371278
12.38027136046938,0.7150888746839088
12.413641364136414,0.6521626941803205
12.447011367803446,0.46314389135138123
12.48038137147048,0.2021585635221313
12.513751375137513,-0.06728073169584839
12.547121378804546,-0.29423327262790916
12.58049138247158,-0.4526538680059161
12.613861386138613,-0.5401987276189215
12.647231389805647,-0.56746335126789
12.68060139347268,-0.5461574867042908
12.713971397139714,-0.48343989643667873
12.747341400806746,-0.38406855571814097
12.78071140447378,-0.25642028887879775
12.814081408140813,-0.1164781642158362
12.847451411807846,0.013787049751259274
12.88082141547488,0.11294574866442222
12.914191419141913,0.1677994966188479
12.947561422808947,0.17828614813789187
12.98093142647598,0.1576696366362463
13.014301430143014,0.12842816797108667
13.047671433810047,0.11550095851205781
13.081041437477081,0.1386461638685732
13.114411441144114,0.20549436403782148
13.147781444811146,0.3071251052789614
13.18115144847818,0.4182933088653227
13.214521452145213,0.5037252108749807
13.247891455812248,0.5296290372205813
13.28126145947928,0.47660542900698827
13.314631463146315,0.3484465644776502
13.348001466813347,0.17239884607965972
13.381371470480381,-0.009887119418576696
13.414741474147414,-0.15720650138100206
13.448111477814447,-0.24333885285553278
13.481481481481481,-0.26549831966653575
13.514851485148514,-0.24371306334883322
13.548221488815548,-0.21178356050203392
13.58159149248258,-0.20335840954317425
13.614961496149615,-0.23810105586004823
13.648331499816647,-0.31293967380917753
13.681701503483682,-0.40211087502803383
13.715071507150714,-0.4670372403441172
13.748441510817747,-0.4732348177791626
13.781811514484781,-0.4076233857402989
13.815181518151814,-0.28787018045426843
13.848551521818848,-0.15752554594051046
13.88192152548588,-0.06676828642351453
13.915291529152915,-0.04622122681844735
13.948661532819948,-0.08654883747207309
13.982031536486982,-0.1358770323105358
14.015401540154015,-0.11966462207225413
14.048771543821047,0.0235642416787169
14.082141547488082,0.30665653714778884
14.115511551155114,0.6766966265107832
14.148881554822148,1.0274268279958843
14.182251558489181,1.238582896226168
14.215621562156215,1.225777726899784
14.248991565823248,0.9781211528531858
14.282361569490282,0.5654379319760031
14.315731573157315,0.11085939500657944
14.349101576824348,-0.25908672102761326
14.382471580491382,-0.4641905249571761
14.415841584158414,-0.4978834496460438
14.449211587825449,-0.4211533435100966
14.482581591492481,-0.32804935716374506
14.515951595159516,-0.30054987843272013
14.549321598826548,-0.37406387278730163
14.582691602493583,-0.5280050543618009
14.616061606160615,-0.7027854022851978
14.649431609827648,-0.8319842889360411
14.682801613494682,-0.8723764876298464
14.716171617161715,-0.8174303122393549
14.749541620828749,-0.6897982865325116
14.782911624495782,-0.5198492322646968
14.816281628162816,-0.32442230111726844
14.849651631829849,-0.09906617074010107
14.883021635496883,0.17138290792412805
14.916391639163916,0.4903740295255587
14.94976164283095,0.8298161376499343
14.983131646497982,1.1271001008342516
15.016501650165015,1.3043542793120886
15.04987165383205,1.3022912545875958
15.083241657499082,1.111191422509391
15.116611661166116,0.7811844309130901
15.149981664833149,0.4041596871693772
15.183351668500183,0.07514760348907859
15.216721672167216,-0.14708039533147485
15.25009167583425,-0.2595154216867962
15.283461679501283,-0.3049045892801754
15.316831683168315,-0.3393248412120238
15.35020168683535,-0.39678372673059026
15.383571690502382,-0.47094578540228343
15.416941694169417,-0.5229913974093167
15.45031169783645,-0.5089659053641864
15.483681701503484,-0.40937415931377097
15.517051705170516,-0.24405161179797888
15.55042170883755,-0.06521256703523494
15.583791712504583,0.06582892267467019
15.617161716171616,0.10497612734737939
15.65053171983865,0.041945459556477285
15.683901723505683,-0.09865257092035279
15.717271727172717,-0.26924968188088066
15.75064173083975,-0.41679089407977465
15.784011734506784,-0.4981794889555697
15.817381738173816,-0.4894476957145485
15.85075174184085,-0.3882667518964992
15.884121745507883,-0.21167643703161176
15.917491749174916,0.008887646199271244
15.95086175284195,0.23413733356255748
15.984231756508983,0.4246425557225163
16.017601760176017,0.5490048953414751
16.05097176384305,0.5907506743731711
16.084341767510082,0.5515967954495159
16.117711771177117,0.4496246206025191
16.15108177484415,0.31309448357269126
16.184451778511182,0.17263614758962717
16.217821782178216,0.05474579614943431
16.25119178584525,-0.022222491314977843
16.284561789512285,-0.05039571314278647
16.317931793179316,-0.03418726701862806
16.35130179684635,0.008984422842883451
16.384671800513384,0.05146019494244286
16.41804180418042,0.06362447197097852
16.45141180784745,0.02656547272151513
16.484781811514484,-0.05612560386796912
16.51815181518152,-0.15453819499625168
16.55152181884855,-0.22135924353988676
16.584891822515583,-0.21218768251219264
16.618261826182618,-0.10910225137197241
16.651631829849652,0.06429320485980605
16.685001833516683,0.2458668954344631
16.718371837183717,0.35756675780234565
16.75174184085075,0.3390827820668914
16.785111844517782,0.17711633491497755
16.818481848184817,-0.0845317865750211
16.85185185185185,-0.36022567856309873
16.885221855518886,-0.5568899036957942
16.918591859185916,-0.6117172795013837
16.95196186285295,-0.5157524574633762
16.985331866519985,-0.3131283987589695
17.01870187018702,-0.07787757297930595
17.05207187385405,0.11911697163097669
17.085441877521085,0.2367587215859397
17.11881188118812,0.2724522804298616
17.15218188485515,0.2515655835767953
17.185551888522184,0.20618629932866028
17.21892189218922,0.15616194523285062
17.252291895856253,0.1025572169766116
17.285661899523284,0.0355886983543397
