Frequency (Hz),Amplitude
0.0,7.117339348648139
0.020066889632107024,7.116052320980896
0.04013377926421405,7.112194920963419
0.060200668896321065,7.105778197508648
0.0802675585284281,7.0968205652832905
0.10033444816053512,7.085347804230741
0.12040133779264213,7.07139305850917
0.14046822742474915,7.054996834440714
0.1605351170568562,7.0362069969379855
0.1806020066889632,7.015078763733638
0.20066889632107024,6.991674696585107
0.22073578595317725,6.966064688458189
0.24080267558528426,6.938325945507056
0.2608695652173913,6.908542962463174
0.2809364548494983,6.876807489820148
0.3010033444816054,6.843218490953897
0.3210702341137124,6.807882087047969
0.34113712374581934,6.770911487402597
0.3612040133779264,6.732426902393611
0.3812709030100334,6.692555436018058
0.4013377926421405,6.651430954619679
0.42140468227424743,6.609193928037095
0.4414715719063545,6.565991239068986
0.4615384615384615,6.52197595681429
0.4816053511705685,6.477307069138171
0.5016722408026756,6.432149169252157
0.5217391304347826,6.386672091203054
0.5418060200668896,6.341050488964718
0.5618729096989966,6.295463353849102
0.5819397993311036,6.250093465130727
0.6020066889632107,6.205126769146092
0.6220735785953176,6.160751682722134
0.6421404682274248,6.117158317640184
0.6622073578595318,6.074537623983426
0.6822742474916387,6.033080451671326
0.7023411371237458,5.992976531265038
0.7224080267558528,5.954413377233003
0.7424749163879598,5.917575119272555
0.7625418060200668,5.882641269949688
0.7826086956521738,5.849785439773867
0.802675585284281,5.819174013772561
0.8227424749163879,5.790964806547315
0.8428093645484949,5.765305715534005
0.862876254180602,5.74233339459171
0.882943143812709,5.7221719719367385
0.903010033444816,5.7049318376557
0.923076923076923,5.690708526427253
0.9431438127090299,5.679581720542493
0.963210702341137,5.671614396773561
0.983277591973244,5.666852138090969
1.0033444816053512,5.665322627729869
1.0234113712374582,5.667035338779004
1.0434782608695652,5.671981427497118
1.0635451505016722,5.680133833185365
1.0836120401337792,5.691447581925953
1.1036789297658862,5.70586028611511
1.1237458193979932,5.723292826738046
1.1438127090301002,5.7436502009906665
1.1638795986622072,5.76682251433284
1.1839464882943145,5.792686093486922
1.2040133779264215,5.821104695331625
1.2240802675585283,5.851930786079232
1.2441471571906353,5.885006865498971
1.2642140468227423,5.920166812147842
1.2842809364548495,5.957237227447067
1.3043478260869565,5.996038758832169
1.3244147157190636,6.036387384936829
1.3444816053511706,6.078095648682833
1.3645484949832773,6.1209738270941445
1.3846153846153846,6.164831029508522
1.4046822742474916,6.209476218528743
1.4247491638795986,6.2547191504668795
1.4448160535117056,6.300371234145144
1.4648829431438126,6.346246308703644
1.4849498327759196,6.392161342526887
1.5050167224080266,6.437937056548833
1.5250836120401337,6.483398476054448
1.5451505016722407,6.528375415693833
1.5652173913043477,6.572702902797429
1.5852842809364547,6.616221544262783
1.605351170568562,6.658777842309643
1.625418060200669,6.700224464302656
1.6454849498327757,6.740420471649887
1.6655518394648827,6.779231512525321
1.6856187290969897,6.81652998285757
1.705685618729097,6.8521951596924024
1.725752508361204,6.886113310689153
1.745819397993311,6.918177783161068
1.765886287625418,6.948289075727123
1.7859531772575248,6.976354895313151
1.806020066889632,7.002290201928528
1.826086956521739,7.026017243352936
1.846153846153846,7.047465581598586
1.866220735785953,7.066572112765256
1.8862876254180598,7.08328108168033
1.9063545150501673,7.097544092510275
1.926421404682274,7.10932011634438
1.9464882943143813,7.118575496582602
1.966555183946488,7.125283952805554
1.9866220735785953,7.129426583664561
2.0066889632107023,7.130991869199161
2.026755852842809,7.129975672868482
2.0468227424749164,7.1263812434668266
2.0668896321070234,7.120219216982235
2.0869565217391304,7.1115076183454775
2.1070234113712374,7.1002718629054575
2.1270903010033444,7.086544757350631
2.1471571906354514,7.0703664996749005
2.1672240802675584,7.051784677655803
2.1872909698996654,7.030854265172085
2.2073578595317724,7.007637615533499
2.2274247491638794,6.982204450826098
2.2474916387959865,6.954631846089562
2.267558528428094,6.925004206936458
2.2876254180602005,6.8934132389964144
2.3076923076923075,6.8599579073186625
2.3277591973244145,6.824744383594677
2.3478260869565215,6.787885978768496
2.367892976588629,6.749503058286978
2.3879598662207355,6.709722936909067
2.408026755852843,6.668679749645258
2.4280936454849495,6.626514295043492
2.4481605351170566,6.583373846683322
2.468227424749164,6.5394119283984145
2.4882943143812706,6.4947880484331435
2.508361204013378,6.449667387470099
2.5284280936454846,6.404220435263836
2.548494983277592,6.35862257050865
2.568561872909699,6.313053578583066
2.5886287625418056,6.2676971019849415
2.608695652173913,6.222740018632862
2.6287625418060196,6.178371743798338
2.648829431438127,6.134783452283548
2.668896321070234,6.092167218602673
2.688963210702341,6.050715074384816
2.709030100334448,6.010617984006934
2.7290969899665547,5.972064741584065
2.749163879598662,5.935240794871723
2.769230769230769,5.900327004326416
2.789297658862876,5.867498348457259
2.809364548494983,5.836922589585636
2.82943143812709,5.8087589170881255
2.849498327759197,5.783156587982241
2.869565217391304,5.760253587160453
2.8896321070234112,5.740175331512661
2.9096989966555182,5.7230334434322625
2.9297658862876252,5.708924619627204
2.9498327759197323,5.697929620637854
2.9698996655518393,5.690112404931001
2.9899665551839463,5.685519428883764
3.0100334448160533,5.684179130450025
3.0301003344481603,5.686101609940049
3.0501672240802673,5.691278516326974
3.0702341137123748,5.699683142058949
3.0903010033444813,5.711270723772536
3.1103678929765888,5.725978940852116
3.1304347826086953,5.743728598732909
3.1505016722408024,5.764424479439872
3.1705685618729094,5.787956338281341
3.1906354515050164,5.814200023001953
3.210702341137124,5.84301869010565
3.2307692307692304,5.874264092479864
3.250836120401338,5.907777912821873
3.270903010033445,5.943393118573461
3.2909698996655514,5.980935315963041
3.311036789297659,6.020224083167403
3.3311036789297654,6.061074265366293
3.351170568561873,6.103297217406566
3.3712374581939795,6.146701982770621
3.391304347826087,6.191096400430697
3.411371237458194,6.236288133868644
3.4314381270903005,6.282085618978364
3.451505016722408,6.328298929700731
3.471571906354515,6.374740562046665
3.491638795986622,6.4212261386400815
3.511705685618729,6.467575037072117
3.531772575250836,6.5136109462238965
3.551839464882943,6.559162355318548
3.5719063545150496,6.604062980838405
3.591973244147157,6.64815213662604
3.612040133779264,6.691275052513378
3.632107023411371,6.733283146723992
3.652173913043478,6.77403425709968
3.672240802675585,6.8133928359395695
3.692307692307692,6.851230112930401
3.712374581939799,6.8874242303086
3.732441471571906,6.921860354043659
3.752508361204013,6.954430764479166
3.7725752508361197,6.985034929521741
3.7926421404682276,7.013579563136097
3.8127090301003346,7.039978671589677
3.832775919732441,7.064153589596745
3.852842809364548,7.086033008240075
3.872909698996655,7.105552996299141
3.8929765886287626,7.122657016386309
3.9130434782608696,7.137295937086231
3.933110367892976,7.149428042106062
3.953177257525083,7.159019037274778
3.9732441471571907,7.166042056075184
3.9933110367892977,7.170477664250931
4.013377926421405,7.172313863900355
4.033444816053511,7.171546097346946
4.053511705685618,7.16817725095994
4.073578595317726,7.162217658986242
4.093645484949833,7.153685107343278
4.113712374581939,7.142604837209873
4.133779264214047,7.129009548135711
4.153846153846153,7.112939400267378
4.173913043478261,7.094442015157629
4.193979933110368,7.073572474482332
4.214046822742475,7.050393315833775
4.234113712374581,7.024974524587507
4.254180602006689,6.9973935206505375
4.274247491638796,6.967735138689688
4.294314381270903,6.93609160020804
4.314381270903009,6.902562475584219
4.334448160535117,6.867254633912496
4.354515050167224,6.830282178182123
4.374581939799331,6.79176636301267
4.394648829431437,6.7518354918213035
4.414715719063545,6.71062478994233
4.434782608695651,6.668276249854799
4.454849498327759,6.624938444309811
4.474916387959866,6.580766302796608
4.494983277591973,6.535920846460854
4.5150501672240795,6.490568876307846
4.535117056856188,6.444882609310693
4.555183946488294,6.399039256924687
4.575250836120401,6.353220540514544
4.595317725752508,6.30761213836482
4.615384615384615,6.262403059301064
4.635451505016722,6.217784938537462
4.655518394648829,6.173951252222275
4.6755852842809364,6.131096448306581
4.695652173913043,6.08941499284143
4.71571906354515,6.049100332626471
4.735785953177258,6.010343777290011
4.7558528428093645,5.973333306354951
4.775919732441471,5.938252309594181
4.795986622073578,5.905278271931478
4.816053511705686,5.874581417201444
4.8361204013377925,5.846323328117689
4.856187290969899,5.820655562660977
4.8762541806020065,5.797718289619548
4.896321070234113,5.777638968014009
4.916387959866221,5.760531096446534
4.936454849498328,5.746493058872655
4.956521739130435,5.735607092784635
4.976588628762541,5.727938404245889
4.996655518394649,5.7235344516164455
5.016722408026756,5.722424416216948
5.036789297658863,5.724618873721219
5.056856187290969,5.730109674935383
5.076923076923077,5.738870039058754
5.096989966555184,5.750854856804728
5.117056856187291,5.766001195178324
5.137123745819398,5.784228990538868
5.157190635451505,5.805441912067797
5.177257525083611,5.829528374106069
5.197324414715719,5.856362673156131
5.217391304347826,5.885806223719533
5.237458193979933,5.917708866558792
5.257525083612039,5.95191022336129
5.277591973244148,5.988241073027811
5.297658862876254,6.026524726755306
5.317725752508361,6.06657838156104
5.337792642140468,6.108214434725497
5.357859531772575,6.1512417446455805
5.377926421404682,6.1954668266352195
5.397993311036789,6.240694975159661
5.418060200668896,6.286731306742764
5.438127090301003,6.333381720270671
5.458193979933109,6.380453773585516
5.478260869565218,6.427757477097811
5.498327759197324,6.475106006643206
5.518394648829431,6.52231633898269
5.538461538461538,6.5692098142190085
5.558528428093646,6.615612630008011
5.578595317725752,6.661356272817443
5.598662207357859,6.706277891664079
5.618729096989966,6.750220619778908
5.638795986622073,6.793033849543185
5.65886287625418,6.834573465835117
5.678929765886288,6.874702042655102
5.698996655518394,6.91328900757875
5.719063545150501,6.9502107782403595
5.739130434782608,6.985350874689929
5.759197324414716,7.018600011106269
5.7792642140468224,7.0498561699960804
5.799331103678929,7.0790246616703465
5.8193979933110365,7.106018171469604
5.839464882943144,7.130756796911335
5.8595317725752505,7.153168076656989
5.879598662207358,7.173187012943501
5.8996655518394645,7.190756088893989
5.919732441471571,7.205825281913376
5.9397993311036785,7.2183520741854865
5.959866220735786,7.2283014611168275
5.9799331103678925,7.235645958416272
5.999999999999999,7.240365608357537
6.020066889632107,7.242447985639865
6.040133779264214,7.241888203139018
6.060200668896321,7.238688917724227
6.080267558528428,7.232860336202778
6.100334448160535,7.22442022134208
6.120401337792642,7.213393897805035
6.1404682274247495,7.199814257716989
6.160535117056856,7.183721765458256
6.180602006688963,7.16516446114334
6.200668896321069,7.144197962103188
6.2207357859531776,7.120885461528562
6.240802675585284,7.095297723257634
6.260869565217391,7.06751307149776
6.280936454849498,7.037617374057346
6.301003344481605,7.005704017427481
6.321070234113712,6.97187387179296
6.341137123745819,6.936235243768092
6.361204013377926,6.898903814344078
6.381270903010033,6.86000255920303
6.40133779264214,6.819661648201611
6.421404682274248,6.778018320458829
6.441471571906354,6.735216731104346
6.461538461538461,6.691407765364344
6.481605351170568,6.646748815293849
6.501672240802676,6.601403514122403
6.521739130434782,6.555541422883192
6.54180602006689,6.509337663767457
6.561872909698996,6.46297249451344
6.581939799331103,6.416630818133332
6.60200668896321,6.37050162243829
6.622073578595318,6.324777344176871
6.642140468227424,6.279653153196459
6.662207357859531,6.235326152906702
6.682274247491639,6.191994494503864
6.702341137123746,6.149856403931829
6.722408026755852,6.1091091224248215
6.742474916387959,6.069947763699507
6.762541806020066,6.0325640934188876
6.782608695652174,5.99714523939347
6.80267558528428,5.963872344042983
6.822742474916388,5.932919173813049
6.842809364548494,5.904450703393373
6.862876254180601,5.878621695560494
6.882943143812709,5.855575300092108
6.903010033444816,5.835441697286107
6.9230769230769225,5.818336812984567
6.94314381270903,5.804361132488748
6.963210702341137,5.7935986402303685
6.983277591973244,5.786115910461793
7.0033444816053505,5.781961371532309
7.023411371237458,5.7811647625904925
7.0434782608695645,5.783736796925729
7.063545150501672,5.789669040836911
7.083612040133779,5.798934011146148
7.103678929765886,5.811485488550603
7.123745819397993,5.827259038227352
7.143812709030099,5.846172723764698
7.1638795986622075,5.868127995843796
7.183946488294314,5.893010733337585
7.204013377926421,5.920692411764399
7.224080267558528,5.9510313723937305
7.2441471571906355,5.983874164740636
7.264214046822742,6.019056935631561
7.2842809364548495,6.056406839351962
7.304347826086956,6.095743445435506
7.324414715719063,6.13688012324496
7.34448160535117,6.17962538544182
7.364548494983278,6.223784175569078
7.384615384615384,6.269159088122608
7.404682274247491,6.315551512529553
7.424749163879598,6.362762695284888
7.444816053511706,6.410594717046241
7.464882943143812,6.4588513837078985
7.48494983277592,6.507339032345533
7.505016722408026,6.555867254444619
7.525083612040134,6.604249540011562
7.545150501672239,6.652303847044392
7.565217391304348,6.699853101442981
7.585284280936455,6.746725632804183
7.605351170568561,6.792755551713806
7.625418060200669,6.837783074151509
7.645484949832775,6.881654798502165
7.665551839464882,6.924223940447865
7.685618729096991,6.965350530726822
7.705685618729096,7.004901580411449
7.725752508361204,7.042751217996598
7.74581939799331,7.078780802216685
7.765886287625418,7.1128790141376195
7.785953177257525,7.144941931706462
7.806020066889631,7.174873089593722
7.826086956521739,7.202583526835976
7.846153846153847,7.227991824480755
7.866220735785952,7.251024135154582
7.88628762541806,7.271614206217415
7.906354515050166,7.289703397932616
7.926421404682274,7.305240697869374
7.946488294314381,7.318182732562459
7.966555183946488,7.328493777280857
7.986622073578595,7.33614576459895
8.006688963210701,7.341118292319982
8.02675585284281,7.343398631168786
8.046822742474916,7.342981732546498
8.066889632107022,7.339870236521758
8.08695652173913,7.334074480118539
8.107023411371236,7.325612505846785
8.127090301003344,7.3145100703069525
8.147157190635452,7.300800652579902
8.167224080267557,7.284525461987045
8.187290969899665,7.265733444670026
8.207357859531772,7.244481288290937
8.227424749163879,7.220833423991638
8.247491638795987,7.194862024570938
8.267558528428093,7.166646997638963
8.2876254180602,7.1362759722870654
8.307692307692307,7.103844277566902
8.327759197324415,7.069454910802676
8.347826086956522,7.033218493464665
8.367892976588628,6.995253212011142
8.387959866220736,6.955684740759101
8.408026755852843,6.914646143476249
8.42809364548495,6.872277750000173
8.448160535117056,6.828727003793205
8.468227424749163,6.784148275941557
8.488294314381271,6.73870264071808
8.508361204013378,6.69255760746389
8.528428093645484,6.645886803227089
8.548494983277592,6.598869600348793
8.568561872909697,6.551690683038089
8.588628762541806,6.504539546960413
8.608695652173914,6.45760992601516
8.628762541806019,6.4110991408378935
8.648829431438127,6.3652073641712565
8.668896321070234,6.320136799147027
8.68896321070234,6.276090767745696
8.709030100334449,6.233272708279229
8.729096989966555,6.1918850826938945
8.749163879598662,6.15212819681406
8.769230769230768,6.114198939324589
8.789297658862875,6.07828944827054
8.809364548494983,6.044585717064029
8.82943143812709,6.013266155318901
8.849498327759196,5.984500123147228
8.869565217391303,5.958446460679547
8.889632107023411,5.935252037326675
8.909698996655518,5.915050347488455
8.929765886287624,5.8979601808412605
8.949832775919733,5.884084395831149
8.96989966555184,5.873508824429956
8.989966555183946,5.86630133450025
9.010033444816054,5.862511073251755
9.030100334448159,5.8621679113237635
9.050167224080267,5.865282102138455
9.070234113712376,5.87184416555432
9.09030100334448,5.881824998778385
9.110367892976589,5.895176211278276
9.130434782608695,5.9118306743905675
9.150501672240802,5.931703270755373
9.17056856187291,5.954691823885311
9.190635451505017,5.980678184309352
9.210702341137123,6.009529445954202
9.23076923076923,6.041099264797993
9.250836120401337,6.0752292513371
9.270903010033445,6.111750408963452
9.290969899665551,6.150484591821536
9.311036789297658,6.191245957928064
9.331103678929765,6.233842396101503
9.351170568561873,6.2780769083676775
9.37123745819398,6.323748932797856
9.391304347826086,6.370655595032918
9.411371237458194,6.4185928799161145
9.4314381270903,6.467356717593156
9.451505016722408,6.516743981068058
9.471571906354516,6.566553394482476
9.49163879598662,6.616586353296395
9.511705685618729,6.666647659090589
9.531772575250837,6.716546172905142
9.551839464882942,6.766095391901766
9.57190635451505,6.81511395472833
9.591973244147155,6.863426081310268
9.612040133779264,6.910861952937346
9.632107023411372,6.957258038493489
9.652173913043477,7.0024573725286485
9.672240802675585,7.0463097906272205
9.692307692307692,7.0886721272148
9.712374581939798,7.12940838058857
9.732441471571907,7.168389849574548
9.752508361204013,7.205495245823764
9.77257525083612,7.240610785370437
9.792642140468226,7.273630262697632
9.812709030100335,7.304455110195867
9.832775919732441,7.332994445562006
9.852842809364548,7.359165109371633
9.872909698996656,7.382891694769599
9.89297658862876,7.404106570959757
9.91304347826087,7.422749901935979
9.933110367892976,7.43876966168037
9.953177257525082,7.452121646859515
9.97324414715719,7.462769487873562
9.993311036789297,7.470684658952974
10.013377926421404,7.4758464878525235
10.033444816053512,7.478242165557118
10.053511705685617,7.477866756289249
10.073578595317725,7.4747232079874
10.093645484949834,7.468822363309327
10.113712374581938,7.460182971098218
10.133779264214047,7.4488316981322615
10.153846153846153,7.434803140856024
10.17391304347826,7.418139836662245
10.193979933110368,7.398892274152538
10.214046822742475,7.377118901652705
10.234113712374581,7.352886133089679
10.254180602006688,7.32626835014981
10.274247491638796,7.297347899430589
10.294314381270903,7.266215083066171
10.31438127090301,7.2329681410508115
10.334448160535118,7.197713223200385
10.354515050167223,7.160564348380903
10.37458193979933,7.121643348293313
10.394648829431437,7.081079792737516
10.414715719063544,7.039010892887881
10.434782608695652,6.995581378701659
10.454849498327757,6.950943346158391
10.474916387959865,6.905256069601033
10.494983277591974,6.858685774031993
10.515050167224079,6.811405361826282
10.535117056856187,6.763594087980138
10.555183946488295,6.715437177743102
10.5752508361204,6.667125380315247
10.595317725752508,6.618854452263769
10.615384615384615,6.570824564464776
10.635451505016722,6.523239626748972
10.65551839464883,6.476306525068343
10.675585284280936,6.430234266949106
10.695652173913043,6.385233032292009
10.71571906354515,6.341513128257867
10.735785953177256,6.299283849051302
10.755852842809364,6.258752243890494
10.775919732441471,6.2201217993033575
10.795986622073578,6.183591045068946
10.816053511705684,6.149352096546028
10.836120401337793,6.117589149680018
10.856187290969899,6.088476948504962
10.876254180602006,6.0621792482784285
10.896321070234114,6.038847300302053
10.916387959866219,6.018618386776846
10.936454849498327,6.001614435514783
10.956521739130435,5.987940744793253
10.97658862876254,5.977684847958056
10.996655518394649,5.970915545474142
11.016722408026755,5.967682128986122
