Frequency (Hz),Amplitude
0.0,2.4269752750421687
0.019867549668874173,2.427059679824206
0.039735099337748346,2.427312625608841
0.059602649006622516,2.427733307669023
0.07947019867549669,2.4283203879792516
0.09933774834437085,2.4290719999759487
0.11920529801324503,2.4299857551846
0.13907284768211922,2.431058751676515
0.15894039735099338,2.4322875843084515
0.17880794701986755,2.433668356689008
0.1986754966887417,2.435196694806811
0.2185430463576159,2.4368677622477586
0.23841059602649006,2.4386762769213597
0.2582781456953642,2.4406165292095485
0.27814569536423844,2.442682401446344
0.2980132450331126,2.4448673886315637
0.31788079470198677,2.447164620278834
0.33774834437086093,2.4495668832946023
0.3576158940397351,2.4520666457837663
0.3774834437086093,2.454656081676083
0.3973509933774834,2.4573270960677056
0.4172185430463576,2.4600713511727244
0.4370860927152318,2.462880292781145
0.45695364238410596,2.465745177121679
0.4768211920529801,2.468657098030776
0.49668874172185434,2.471607014332052
0.5165562913907285,2.4745857773345588
0.5364238410596026,2.4775841583618594
0.5562913907284769,2.4805928762287905
0.5761589403973509,2.483602624586886
0.5960264900662252,2.486604099064663
0.6158940397350993,2.4895880241334294
0.6357615894039735,2.492545179634459
0.6556291390728477,2.4954664269078988
0.6754966887417219,2.4983427344688254
0.695364238410596,2.501165203180135
0.7152317880794702,2.5039250908766717
0.7350993377483444,2.506613836398813
0.7549668874172186,2.509223082998065
0.7748344370860927,2.5117447010804983
0.7947019867549668,2.51417081025743
0.8145695364238411,2.5164938006757773
0.8344370860927152,2.518706353602956
0.8543046357615894,2.5208014612440697
0.8741721854304636,2.522772445770698
0.8940397350993378,2.5246129775424486
0.9139072847682119,2.526317092504124
0.9337748344370861,2.5278792087419975
0.9536423841059603,2.529294142183737
0.9735099337748344,2.530557121426922
0.9933774834437087,2.53166380168127
1.0132450331125828,2.5326102778097415
1.033112582781457,2.5333930964531604
1.0529801324503312,2.534009267222893
1.0728476821192052,2.534456272944756
1.0927152317880795,2.534732078937188
1.1125827814569538,2.534835141304907
1.1324503311258278,2.5347644142287105
1.1523178807947019,2.534519356230386
1.1721854304635762,2.5340999353903606
1.1920529801324504,2.5335066334945675
1.2119205298013245,2.532740449085054
1.2317880794701985,2.5318028993881287
1.2516556291390728,2.5306960210913796
1.271523178807947,2.529422369940935
1.2913907284768211,2.527985019127803
1.3112582781456954,2.5263875564319176
1.3311258278145695,2.524634080091243
1.3509933774834437,2.5227291933629776
1.370860927152318,2.520677997742996
1.390728476821192,2.518486084810246
1.410596026490066,2.516159526662662
1.4304635761589404,2.5137048649121545
1.4503311258278146,2.511129098207353
1.4701986754966887,2.508439668254588
1.4900662251655628,2.505644444309671
1.5099337748344372,2.50275170611645
1.5298013245033113,2.4997701252709357
1.5496688741721854,2.496708744994966
1.5695364238410596,2.493576958307604
1.5894039735099337,2.4903844845889425
1.609271523178808,2.4871413445373056
1.6291390728476822,2.483857833528211
1.6490066225165563,2.480544493392289
1.6688741721854303,2.477212082637901
1.6887417218543048,2.4738715451547573
1.7086092715231789,2.47053397744532
1.728476821192053,2.4672105944424705
1.7483443708609272,2.4639126939842337
1.7682119205298013,2.460651620029273
1.7880794701986755,2.457438724710102
1.8079470198675496,2.4542853293349256
1.8278145695364238,2.451202684463292
1.847682119205298,2.4482019291941954
1.8675496688741722,2.4452940498201805
1.8874172185430464,2.4424898380142412
1.9072847682119205,2.439799848729449
1.9271523178807946,2.43723435800442
1.9470198675496688,2.434803320878386
1.9668874172185429,2.4325163296307686
1.9867549668874174,2.4303825725685315
2.0066225165562916,2.428410793591987
2.0264900662251657,2.426609252775089
2.0463576158940397,2.42498568819925
2.066225165562914,2.423547279280874
2.086092715231788,2.4223006118310755
2.1059602649006623,2.42125164508221
2.1258278145695364,2.4204056809089973
2.1456953642384105,2.419767335462882
2.165562913907285,2.4193405134263046
2.185430463576159,2.4191283850791487
2.205298013245033,2.4191333663528205
2.2251655629139075,2.419357102028235
2.2450331125827816,2.419800452213137
2.2649006622516556,2.4204634822109905
2.2847682119205297,2.421345455869712
2.3046357615894038,2.4224448324730528
2.324503311258278,2.4237592672110844
2.3443708609271523,2.425285615240062
2.364238410596027,2.4270199393151044
2.384105960264901,2.428957520953393
2.403973509933775,2.4310928750596363
2.423841059602649,2.4334197679220404
2.443708609271523,2.4359312384633793
2.463576158940397,2.438619622611482
2.4834437086092715,2.441476580633399
2.5033112582781456,2.444493127261338
2.52317880794702,2.4476596644231345
2.543046357615894,2.45096601637822
2.562913907284768,2.4544014670499803
2.5827814569536423,2.4579547993382174
2.6026490066225163,2.461614336190641
2.622516556291391,2.4653679832097533
2.642384105960265,2.4692032725712987
2.662251655629139,2.4731074080324564
2.6821192052980134,2.4770673108115613
2.7019867549668874,2.4810696661269365
2.7218543046357615,2.4851009701893605
2.741721854304636,2.4891475774510563
2.76158940397351,2.493195747923644
2.781456953642384,2.4972316943877417
2.801324503311258,2.5012416293277737
2.821192052980132,2.505211811437007
2.8410596026490067,2.509128591549379
2.8609271523178808,2.512978457866185
2.8807947019867552,2.5167480803572726
2.9006622516556293,2.5204243542276306
2.9205298013245033,2.5239944423508227
2.9403973509933774,2.5274458165814155
2.9602649006622515,2.530766297867589
2.9801324503311255,2.5339440950947116
3.0,2.536967842598431
3.0198675496688745,2.5398266362935216
3.0397350993377485,2.5425100683711483
3.0596026490066226,2.54500826052308
3.0794701986754967,2.547311895656364
3.0993377483443707,2.5494122480658725
3.119205298013245,2.5513012120356504
3.1390728476821192,2.552971328842282
3.1589403973509933,2.5544158121352942
3.1788079470198674,2.555628571670598
3.198675496688742,2.5566042353732437
3.218543046357616,2.5573381697051922
3.23841059602649,2.557826498313333
3.2582781456953644,2.5580661189308187
3.2781456953642385,2.558054718503083
3.2980132450331126,2.5577907865075344
3.3178807947019866,2.5572736264325333
3.3377483443708607,2.556503365378582
3.3576158940397347,2.5554809617407037
3.3774834437086096,2.554208210927557
3.3973509933774837,2.552687749068757
3.4172185430463577,2.550923054658188
3.437086092715232,2.5489184480770155
3.456953642384106,2.5466790889364472
3.47682119205298,2.5442109711766734
3.4966887417218544,2.541520915855252
3.5165562913907285,2.5386165615553042
3.5364238410596025,2.5355063523417427
3.556291390728477,2.5321995231919714
3.576158940397351,2.528706082827061
3.596026490066225,2.5250367938691807
3.615894039735099,2.5212031502528767
3.6357615894039736,2.5172173518199124
3.6556291390728477,2.513092276031737
3.6754966887417218,2.508841446739238
3.695364238410596,2.504478999956672
3.7152317880794703,2.5000196465962174
3.7350993377483444,2.4954786321308227
3.754966887417219,2.490871693166766
3.774834437086093,2.4862150109230483
3.794701986754967,2.4815251616333205
3.814569536423841,2.476819063906533
3.834437086092715,2.4721139231059213
3.854304635761589,2.46742717283143
3.8741721854304636,2.4627764136186325
3.8940397350993377,2.4581793489974295
3.9139072847682117,2.453653719085712
3.9337748344370858,2.449217231926901
3.9536423841059607,2.444887492815196
3.9735099337748347,2.4406819318880864
3.993377483443709,2.436617730301741
4.013245033112583,2.4327117453403475
4.033112582781457,2.4289804348453057
4.052980132450331,2.4254397813829836
4.072847682119205,2.4221052166000945
4.0927152317880795,2.418991546242855
4.112582781456953,2.41611287633912
4.132450331125828,2.4134825410605916
4.152317880794702,2.411113032794988
4.172185430463576,2.409015934963956
4.19205298013245,2.4072018581220735
4.211920529801325,2.405680379864464
4.231788079470199,2.404459989054809
4.251655629139073,2.4035480348627614
4.271523178807947,2.402950681068711
4.291390728476821,2.402672866055717
4.311258278145695,2.402718268863541
4.33112582781457,2.4030892816278966
4.3509933774834435,2.4037869886712597
4.370860927152318,2.4048111524501885
4.390728476821192,2.406160206498703
4.410596026490066,2.407831255440433
4.43046357615894,2.4098200820736366
4.450331125827815,2.412121161465293
4.470198675496689,2.4147276819240595
4.490066225165563,2.4176315726579842
4.509933774834438,2.4208235378632943
4.529801324503311,2.4242930969353984
4.549668874172186,2.428028630444496
4.569536423841059,2.4320174314751455
4.589403973509934,2.436245761893785
4.6092715231788075,2.4406989130798413
4.629139072847682,2.4453612706350714
4.649006622516556,2.4502163825724446
4.66887417218543,2.455247030479694
4.688741721854305,2.460435303153032
4.708609271523179,2.4657626722037733
4.728476821192054,2.4712100691530856
4.748344370860927,2.476757963547902
4.768211920529802,2.4823864416532624
4.788079470198675,2.4880752853019117
4.80794701986755,2.493804050510514
4.827814569536423,2.4995521455025895
4.847682119205298,2.505298907809985
4.867549668874172,2.5110236801575088
4.887417218543046,2.516705884867904
4.9072847682119205,2.5223250965567208
4.927152317880794,2.527861112917611
4.947019867549669,2.5332940234289048
4.966887417218543,2.53860427584007
4.986754966887418,2.543772740323371
5.006622516556291,2.548780771199766
5.026490066225166,2.553610266170399
5.04635761589404,2.558243723004138
5.066225165562914,2.5626642936490693
5.086092715231788,2.566855835750446
5.105960264900662,2.570802961570208
5.125827814569536,2.574491084313161
5.14569536423841,2.5779064618732312
5.1655629139072845,2.5810362380189664
5.185430463576159,2.5838684810415886
5.205298013245033,2.5863922198912914
5.225165562913908,2.588597477827727
5.245033112582782,2.590475303610032
5.264900662251656,2.5920178002490277
5.28476821192053,2.5932181513406656
5.304635761589404,2.5940706449948596
5.324503311258278,2.5945706953678536
5.344370860927152,2.5947148617993347
5.364238410596027,2.594500865547686
5.3841059602649,2.593927604108165
5.403973509933775,2.5929951630895043
5.4238410596026485,2.591704825614718
5.443708609271523,2.5900590792013207
5.463576158940397,2.588061620065746
5.483443708609272,2.585717354785488
5.503311258278146,2.583032399241541
5.52317880794702,2.580014074752472
5.543046357615895,2.576670901300315
5.562913907284768,2.5730125877377854
5.582781456953643,2.569050018855946
5.602649006622516,2.564795239181742
5.622516556291391,2.5602614333659486
5.642384105960264,2.5554629030146323
5.662251655629139,2.5504150398107477
5.682119205298013,2.5451342947681823
5.701986754966887,2.5396381434580837
5.7218543046357615,2.5339450470473692
5.741721854304636,2.528074408992296
5.7615894039735105,2.5220465272361294
5.781456953642384,2.5158825417697956
5.801324503311259,2.509604377428579
5.821192052980132,2.5032346818162545
5.841059602649007,2.496796758271898
5.860927152317881,2.490314493823158
5.880794701986755,2.4838122821043562
5.900662251655629,2.4773149412582094
5.920529801324503,2.4708476268859
5.940397350993377,2.464435740162677
5.960264900662251,2.458104831294047
5.980132450331126,2.4518804985509677
6.0,2.4457882831908253
6.0198675496688745,2.439853560643557
6.039735099337749,2.4341014284175526
6.059602649006623,2.4285565912581073
6.079470198675497,2.423243244168722
6.099337748344371,2.4181849539829923
6.119205298013245,2.413404540248264
6.139072847682119,2.408923956251656
6.158940397350993,2.40476417108031
6.178807947019867,2.400945053660658
6.198675496688741,2.3974852597622363
6.218543046357616,2.3944021229796957
6.23841059602649,2.391711550718775
6.258278145695365,2.3894279262084166
6.2781456953642385,2.3875640175389057
6.298013245033113,2.3861308946860733
6.317880794701987,2.3851378554224976
6.337748344370861,2.384592360939918
6.357615894039735,2.384499981912976
6.377483443708609,2.384864355624813
6.397350993377484,2.3856871546520098
6.417218543046357,2.386968067472556
6.437086092715232,2.3887047912186037
6.456953642384105,2.390893036649693
6.47682119205298,2.3935265452743626
6.496688741721854,2.396597118402882
6.516556291390729,2.40009465777442
6.5364238410596025,2.404007217271122
6.556291390728477,2.4083210651123697
6.5761589403973515,2.4130207558178136
6.596026490066225,2.418089211137983
6.6158940397351,2.4235078090800006
6.635761589403973,2.4292564801014893
6.655629139072848,2.4353138095102653
6.675496688741721,2.4416571450893163
6.695364238410596,2.448262708965929
6.715231788079469,2.45510571275841
6.735099337748344,2.462160475063244
6.754966887417219,2.469400540386875
6.774834437086093,2.4767987986783355
6.794701986754967,2.48432760467908
6.814569536423841,2.4919588963730726
6.8344370860927155,2.4996643118908097
6.854304635761589,2.5074153042942418
6.874172185430464,2.515183253743303
6.894039735099337,2.5229395766177354
6.913907284768212,2.5306558312385112
6.933774834437086,2.5383038199008094
6.95364238410596,2.545855686993554
6.973509933774834,2.5532840130391627
6.993377483443709,2.5605619045402297
7.013245033112583,2.5676630795677537
7.033112582781457,2.5745619490670992
7.052980132450331,2.581233693894906
7.072847682119205,2.587654337630149
7.0927152317880795,2.5938008152290593
7.112582781456954,2.5996510376132513
7.132450331125828,2.6051839522969673
7.152317880794702,2.6103796001703907
7.172185430463576,2.6152191685639057
7.19205298013245,2.61968504072184
7.211920529801324,2.62376084181534
7.231788079470198,2.6274314816215156
7.251655629139073,2.6306831939919957
7.271523178807947,2.6335035732262466
7.291390728476822,2.6358816074570504
7.311258278145695,2.63780770914437
7.33112582781457,2.6392737427617785
7.3509933774834435,2.6402730497464275
7.370860927152318,2.640800470768465
7.390728476821192,2.6408523653602485
7.410596026490066,2.6404266289291467
7.430463576158941,2.639522707159653
7.450331125827814,2.6381416077926696
7.470198675496689,2.6362859097502445
7.490066225165562,2.6339597695546515
7.509933774834438,2.631168924969749
7.52980132450331,2.627920695772334
7.549668874172186,2.6242239815389516
7.569536423841059,2.6200892563127596
7.589403973509934,2.615528559992462
7.6092715231788075,2.6105554862637006
7.629139072847682,2.6051851668713804
7.649006622516557,2.5994342520102895
7.66887417218543,2.5933208865902833
7.6887417218543055,2.5868646821138634
7.708609271523178,2.580086683884829
7.728476821192054,2.5730093332525357
7.748344370860927,2.565656424582184
7.768211920529802,2.5580530566329394
7.788079470198675,2.550225578020117
7.80794701986755,2.5422015264379114
7.827814569536423,2.5340095613251297
7.847682119205298,2.52567938966921
7.8675496688741715,2.517241684665464
7.887417218543046,2.508727996978325
7.907284768211921,2.5001706583918772
7.927152317880795,2.491602677688548
7.9470198675496695,2.4830576286578827
7.966887417218543,2.4745695302131794
7.986754966887418,2.466172718682706
8.006622516556291,2.4579017124431854
8.026490066225167,2.4497910691783
8.046357615894038,2.441875236170398
8.066225165562914,2.434188394170566
8.086092715231787,2.4267642955375868
8.105960264900663,2.41963609748759
8.125827814569536,2.4128361914513627
8.14569536423841,2.406396029689834
8.165562913907285,2.400345950468067
8.185430463576159,2.39471500322753
8.205298013245034,2.3895307753221693
8.225165562913906,2.3848192219893805
8.245033112582782,2.3806045013083894
8.264900662251655,2.376908815950204
8.28476821192053,2.373752263541923
8.304635761589404,2.3711526974493218
8.324503311258278,2.369125599724322
8.344370860927151,2.3676839678655095
8.364238410596027,2.3668382169024786
8.3841059602649,2.3665960981387233
8.403973509933774,2.3669626356775253
8.42384105960265,2.3679400816149516
8.443708609271523,2.3695278905203794
8.463576158940398,2.371722713544325
8.483443708609272,2.3745184122044125
8.503311258278146,2.377906091610522
8.52317880794702,2.3818741526085647
8.543046357615895,2.386408362056163
8.562913907284768,2.3914919402000874
8.582781456953642,2.397105663911084
8.602649006622515,2.4032279843512283
8.62251655629139,2.409835157505291
8.642384105960264,2.416901385903878
8.66225165562914,2.424398969801147
8.682119205298013,2.432298466044383
8.701986754966887,2.4405688528830836
8.721854304635762,2.449177699009254
8.741721854304636,2.4580913351936524
8.76158940397351,2.4672750269804125
8.781456953642383,2.4766931470201117
8.801324503311259,2.486309345753181
8.821192052980132,2.4960867192979035
8.841059602649008,2.5059879735444266
8.86092715231788,2.515975583604689
8.880794701986755,2.5260119479143013
8.90066225165563,2.536059536422677
8.920529801324504,2.5460810324406813
8.940397350993377,2.556039467837354
8.960264900662251,2.5658983513892086
8.980132450331126,2.5756217901850444
9.0,2.585174604076787
9.019867549668875,2.594522433241755
9.039735099337747,2.603631838985054
9.059602649006623,2.6124703979623463
9.079470198675496,2.6210067900445915
9.099337748344372,2.629210880077302
9.119205298013245,2.6370537938096104
9.139072847682119,2.6445079882826574
9.158940397350994,2.6515473169746664
9.178807947019868,2.6581470900013344
9.198675496688743,2.664284129666704
9.218543046357615,2.6699368216515342
9.23841059602649,2.6750851621145926
9.258278145695364,2.679710800967484
9.27814569536424,2.68379708156646
9.298013245033111,2.687329077045418
9.317880794701987,2.690293623493371
9.33774834437086,2.692679350157594
9.357615894039736,2.694476706830114
9.37748344370861,2.695677988551136
9.397350993377483,2.6962773577380355
9.417218543046358,2.6962708638223476
9.437086092715232,2.695656460451195
9.456953642384107,2.6944340202817862
9.47682119205298,2.6926053473700287
9.496688741721854,2.690174187125116
9.516556291390728,2.6871462337723595
9.536423841059603,2.683529135235498
9.556291390728477,2.67933249531841
9.57615894039735,2.6745678730326685
9.596026490066224,2.6692487788839583
9.6158940397351,2.6633906678947876
9.635761589403973,2.657010929105278
9.655629139072847,2.6501288712565425
9.675496688741722,2.6427657043237023
9.695364238410596,2.634944516527543
9.715231788079471,2.6266902464161164
9.735099337748345,2.6180296495703237
9.754966887417218,2.6089912594518374
9.774834437086092,2.5996053418783167
9.794701986754967,2.589903842580973
9.814569536423841,2.5799203272741233
9.834437086092716,2.5696899136474163
9.854304635761588,2.559249194680302
9.874172185430464,2.548636152677094
9.894039735099337,2.5378900634314157
9.913907284768213,2.5270513899540497
9.933774834437086,2.516161665239169
9.95364238410596,2.505263363604636
9.973509933774835,2.4943997602228842
9.993377483443709,2.483614778564043
10.013245033112582,2.472952825602013
10.033112582781456,2.4624586147903047
10.052980132450331,2.45217697699635
10.072847682119205,2.442152659792232
10.09271523178808,2.4324301157329296
10.112582781456952,2.4230532805094946
10.132450331125828,2.414065342138386
10.152317880794701,2.405508502635296
10.172185430463577,2.397423733914035
10.192052980132452,2.3898505299409076
10.211920529801324,2.3828266574520316
10.2317880794702,2.3763879077946597
10.251655629139073,2.3705678526728478
10.271523178807948,2.3653976067504554
10.29139072847682,2.3609056001803848
10.311258278145695,2.357117364177783
10.331125827814569,2.3540553327291702
10.350993377483444,2.35173866342307
10.370860927152318,2.350183080199421
10.390728476821192,2.3494007405442288
10.410596026490065,2.3494001293094
10.43046357615894,2.350185980922043
10.450331125827816,2.351759231275664
10.470198675496688,2.3541170000823657
10.490066225165563,2.3572526039263857
10.509933774834437,2.36115559971474
10.529801324503312,2.365811857687607
10.549668874172186,2.371203662648205
10.56953642384106,2.377309841614864
10.589403973509933,2.384105915701293
10.609271523178808,2.3915642737042058
10.629139072847682,2.399654364629206
10.649006622516556,2.4083429062179706
10.66887417218543,2.4175941064534268
10.688741721854305,2.427369895011207
10.70860927152318,2.437630161687936
10.728476821192054,2.4483329989632536
10.748344370860927,2.4594349460308877
10.7682119205298,2.470891231855264
10.788079470198676,2.482656015061737
