Frequency (Hz),Amplitude
0.0,0.6871865467878282
0.019823788546255508,0.6918817505118147
0.039647577092511016,0.7057616172963233
0.059471365638766524,0.7282479089091808
0.07929515418502203,0.7584905822508563
0.09911894273127755,0.7954925114598459
0.11894273127753305,0.8382219203777497
0.13876651982378857,0.8856926732716399
0.15859030837004406,0.9370097943881813
0.17841409691629956,0.9913874779733699
0.1982378854625551,1.048149378005351
0.2180616740088106,1.1067194473254574
0.2378854625550661,1.1666089297832154
0.25770925110132165,1.2274027572151913
0.27753303964757714,1.288746973076754
0.29735682819383263,1.3503378254033656
0.31718061674008813,1.4119126470045285
0.3370044052863437,1.4732423929474816
0.3568281938325991,1.5341256109313814
0.37665198237885467,1.5943836034602603
0.3964757709251102,1.653856559223487
0.41629955947136565,1.7124004624165567
0.4361233480176212,1.7698846219770359
0.4559471365638767,1.8261896931102286
0.4757709251101322,1.8812060893875397
0.49559471365638774,1.9348327049487095
0.5154185022026433,1.9869758833796893
0.5352422907488987,2.03754858332293
0.5550660792951543,2.0864697014713696
0.5748898678414097,2.1336635218864854
0.5947136563876653,2.1790592670594795
0.6145374449339208,2.2225907311989244
0.6343612334801763,2.2641959801943092
0.6541850220264318,2.3038171058176626
0.6740088105726874,2.3414000241762545
0.6938325991189428,2.376894310366443
0.7136563876651982,2.4102530628144847
0.7334801762114539,2.4414327920138237
0.7533039647577093,2.470393329347254
0.7731277533039648,2.4970977524689477
0.7929515418502204,2.521512324356857
0.8127753303964759,2.543606443661754
0.8325991189427313,2.56335260440043
0.8524229074889869,2.5807263633868116
0.8722466960352424,2.5957063140808723
0.8920704845814978,2.6082740657743577
0.9118942731277534,2.618414227233422
0.931718061674009,2.626114394089828
0.9515418502202644,2.631365139420108
0.9713656387665199,2.6341600070824738
0.9911894273127755,2.6344955074971854
1.0110132158590308,2.6323711156629046
1.0308370044052866,2.6277892713017397
1.0506607929515421,2.6207553811225046
1.0704845814977975,2.6112778232885483
1.090308370044053,2.599367954275479
1.1101321585903086,2.585040118409474
1.1299559471365639,2.568311660490639
1.1497797356828194,2.5492029420327524
1.1696035242290752,2.5277373617947347
1.1894273127753305,2.5039413814451996
1.209251101321586,2.4778445573959464
1.2290748898678416,2.449479580070765
1.248898678414097,2.4188823221514655
1.2687224669603525,2.386091897675884
1.288546255506608,2.351150734266871
1.3083700440528636,2.3141046612658065
1.3281938325991192,2.275003017152753
1.3480176211453747,2.233898780387978
1.36784140969163,2.1908487287450735
1.3876651982378856,2.145913633374377
1.4074889867841411,2.099158495300969
1.4273127753303965,2.0506528339081322
1.4471365638766522,2.0004710392920684
1.4669603524229078,1.9486928033379602
1.4867841409691631,1.895403648141668
1.5066079295154187,1.840695575220381
1.5264317180616742,1.784667865118736
1.5462555066079295,1.727428064906401
1.5660792951541853,1.6690932111520003
1.5859030837004409,1.609791348820547
1.6057268722466962,1.5496634228330388
1.6255506607929517,1.4888656394228594
1.6453744493392073,1.427572419458836
1.6651982378854626,1.365980095610831
1.6850220264317182,1.3043115384088302
1.7048458149779737,1.2428219290195786
1.7246696035242293,1.181805919731072
1.7444933920704848,1.1216064174026334
1.7643171806167404,1.062625153174107
1.7841409691629957,1.005334996086802
1.8039647577092512,0.9502935163075192
1.8237885462555068,0.8981564376072921
1.8436123348017623,0.8496881370938704
1.863436123348018,0.8057641305776402
1.8832599118942732,0.7673577830636023
1.9030837004405288,0.7355014898957096
1.9229074889867843,0.7112139037376498
1.9427312775330399,0.6953929142543833
1.9625550660792954,0.688690191969032
1.982378854625551,0.6914010364638626
2.002202643171806,0.7034091218338582
2.0220264317180616,0.724208918758823
2.041850220264317,0.7529963062286031
2.061674008810573,0.7887922372196751
2.0814977973568287,0.830560809053565
2.1013215859030843,0.877297658942676
2.1211453744493394,0.9280828079442608
2.140969162995595,0.9821038455940908
2.1607929515418505,1.0386592339201453
2.180616740088106,1.0971505553432674
2.2004405286343616,1.15706991715756
2.220264317180617,1.2179862286721437
2.2400881057268722,1.2795322685980746
2.2599118942731278,1.341393351639058
2.2797356828193833,1.403297795219829
2.299559471365639,1.4650090915455007
2.319383259911895,1.5263195705612473
2.3392070484581504,1.5870453107313833
2.3590308370044055,1.647022068220102
2.378854625550661,1.7061020251184031
2.3986784140969166,1.7641511909777725
2.418502202643172,1.8210473233151623
2.4383259911894277,1.8766782598118739
2.4581497797356833,1.9309405772549577
2.4779735682819384,1.9837385102365646
2.497797356828194,2.0349830768739188
2.5176211453744495,2.08459137001563
2.537444933920705,2.1324859811698342
2.5572687224669606,2.17859453124247
2.577092511013216,2.2228492875297463
2.5969162995594717,2.265186850600091
2.6167400881057272,2.3055478979884563
2.6365638766519828,2.343876974212287
2.6563876651982383,2.3801223186603027
2.676211453744494,2.4142357245232655
2.6960352422907494,2.4461724232234316
2.715859030837005,2.475890989828233
2.73568281938326,2.5033532657600865
2.7555066079295156,2.528524295780258
2.775330396475771,2.55137227676546
2.7951541850220267,2.57186851623646
2.8149779735682823,2.5899873989594497
2.834801762114538,2.6057063602398087
2.854625550660793,2.619005864776458
2.874449339207049,2.629869390154099
2.8942731277533045,2.638283414228334
2.91409691629956,2.6442374058113023
2.9339207048458156,2.647723818199515
2.953744493392071,2.648738085204561
2.9735682819383262,2.6472786194561286
2.993392070484582,2.643346812848324
3.0132158590308373,2.636947039097925
3.033039647577093,2.628086658480009
3.0528634361233484,2.6167760249051724
3.072687224669604,2.603028495606426
3.092511013215859,2.586860443816256
3.1123348017621146,2.568291274938299
3.1321585903083706,2.547343446858887
3.151982378854626,2.5240424952051392
3.1718061674008817,2.498417064545108
3.1916299559471373,2.470498946748502
3.2114537444933924,2.440323127993154
3.231277533039648,2.4079278462232994
3.2511013215859035,2.3733546612554717
3.270925110132159,2.3366485402040023
3.2907488986784146,2.2978579614833086
3.31057268722467,2.257035041367172
3.3303964757709252,2.2142356879835425
3.350220264317181,2.1695197887442226
3.3700440528634363,2.1229514386137462
3.389867841409692,2.074599218390912
3.4096916299559474,2.0245365344124355
3.4295154185022034,1.9728420339255017
3.4493392070484585,1.9196001139877268
3.469162995594714,1.8649015463646497
3.4889867841409696,1.8088442467934678
3.508810572687225,1.7515342245375523
3.5286343612334807,1.6930867578282478
3.5484581497797363,1.6336278531435215
3.5682819383259914,1.573296061963764
3.588105726872247,1.512244748375839
3.6079295154185025,1.4506449252841862
3.627753303964758,1.3886888062590017
3.6475770925110136,1.3265942534114163
3.667400881057269,1.2646103360704775
3.6872246696035247,1.2030242427537035
3.7070484581497802,1.1421697933941701
3.726872246696036,1.0824377472774804
3.7466960352422913,1.0242879343715334
3.7665198237885464,0.9682628506730645
3.7863436123348024,0.9150015929367499
3.8061674008810575,0.8652516599050261
3.8259911894273135,0.8198740508799622
3.8458149779735686,0.7798343783998706
3.8656387665198246,0.7461703143253521
3.8854625550660797,0.7199259431530247
3.905286343612335,0.702050050899339
3.925110132158591,0.6932702284125742
3.9449339207048464,0.6939736641127991
3.964757709251102,0.704135598034646
3.9845814977973575,0.7233244660305188
4.004405286343612,0.7507815063367178
4.024229074889869,0.7855429206779744
4.044052863436123,0.8265638895407237
4.06387665198238,0.8728158677044017
4.083700440528634,0.9233476023686554
4.103524229074891,0.9773141206614738
4.123348017621146,1.0339833913394352
4.143171806167401,1.0927300984521464
4.162995594713657,1.1530234368303645
4.182819383259912,1.2144131817310755
4.2026431718061685,1.276516291553366
4.222466960352423,1.339005042848941
4.242290748898679,1.4015969918088798
4.262114537444934,1.4640467052599737
4.28193832599119,1.5261390558674823
4.301762114537445,1.5876838342815498
4.321585903083701,1.648511439526526
4.3414096916299565,1.7084694379399081
4.361233480176212,1.7674198153194267
4.381057268722468,1.8252367797236615
4.400881057268723,1.8818050009117306
4.420704845814979,1.9370181960848196
4.440528634361234,1.990777990701412
4.46035242290749,2.042992998312764
4.4801762114537445,2.0935780753040327
4.500000000000001,2.1424537157711496
4.5198237885462555,2.189545559063127
4.539647577092512,2.2347839882201255
4.559471365638767,2.2781038019948534
4.579295154185023,2.3194439466379873
4.599118942731278,2.3587472963734077
4.618942731277533,2.395960473653567
4.63876651982379,2.43103370199904
4.658590308370044,2.4639206855879188
4.678414096916301,2.494578510847988
4.6982378854625555,2.522967566175958
4.718061674008811,2.5490514766107397
4.737885462555067,2.572797050856276
4.757709251101322,2.5941742385126183
4.777533039647578,2.6131560957534354
4.797356828193833,2.6297187580011525
4.817180616740089,2.643841418410726
4.837004405286344,2.6555063111914885
4.856828193832599,2.664698698981069
4.876651982378855,2.6714068636440422
4.896475770925111,2.675622100006455
4.9162995594713665,2.677338712159598
4.936123348017622,2.6765540120782942
4.955947136563877,2.6732683204017844
4.975770925110133,2.667484969324623
4.995594713656388,2.6592103076422027
5.015418502202644,2.64845370809411
5.035242290748899,2.6352275772521763
5.055066079295155,2.619547368310616
5.07488986784141,2.601431597258232
5.094713656387666,2.5809018630502174
5.114537444933921,2.557982872554976
5.134361233480177,2.532702471235342
5.154185022026432,2.5050916807402945
5.174008810572688,2.475184744842043
5.193832599118943,2.443019185464379
5.213656387665199,2.4086358709250066
5.2334801762114544,2.3720790989752683
5.25330396475771,2.3333966977853233
5.2731277533039655,2.292640148720957
5.292951541850221,2.2498647356237695
5.312775330396477,2.205129726387124
5.332599118942731,2.1584985939725927
5.352422907488988,2.1100392857149064
5.372246696035242,2.059824551915093
5.392070484581499,2.007932347450373
5.4118942731277535,1.954446323604711
5.43171806167401,1.8994564317595346
5.451541850220265,1.8430596662631233
5.47136563876652,1.7853609810746143
5.491189427312777,1.7264744241092864
5.511013215859031,1.6665245451524895
5.530837004405288,1.6056481484242326
5.550660792951542,1.5439964800994783
5.570484581497798,1.481737965020261
5.5903083700440535,1.4190616358882517
5.610132158590309,1.3561814319871326
5.6299559471365646,1.2933415806254007
5.64977973568282,1.23082330668855
5.669603524229076,1.1689531297993496
5.689427312775331,1.1081129759770028
5.709251101321586,1.048752197483302
5.729074889867842,0.9914012663940913
5.748898678414098,0.9366862337450313
5.768722466960353,0.8853418203989484
5.788546255506609,0.8382190273960531
5.808370044052864,0.7962804402511247
5.82819383259912,0.7605736586114831
5.848017621145375,0.732172557999664
5.867841409691631,0.7120809201549265
5.887665198237886,0.7011064182554793
5.907488986784142,0.699732634084339
5.927312775330397,0.7080308913924097
5.9471365638766525,0.7256469993245092
5.966960352422908,0.7518685261815004
5.986784140969164,0.7857447955715998
6.00660792951542,0.8262171988240848
6.026431718061675,0.8722264122945964
6.04625550660793,0.9227827105863553
6.066079295154186,0.9770016026523042
6.085903083700441,1.034114327391877
6.105726872246697,1.0934633307233146
6.125550660792952,1.1544904449987938
6.145374449339208,1.2167226537403175
6.1651982378854635,1.2797581020853952
6.185022026431718,1.3432535742824978
6.204845814977975,1.406913839418703
6.224669603524229,1.4704828501225637
6.244493392070486,1.533736597263692
6.264317180616741,1.5964773666039824
6.284140969162996,1.658529146439568
6.303964757709252,1.7197339634590647
6.323788546255507,1.77994895957467
6.3436123348017635,1.8390440571138817
6.363436123348018,1.896900090191122
6.3832599118942746,1.953407305442076
6.403083700440529,2.0084641558182335
6.422907488986785,2.0619763274439435
6.44273127753304,2.1138559523656966
6.462555066079296,2.16402097005918
6.482378854625551,2.2123946083923287
6.502202643171807,2.2589049608528993
6.5220264317180625,2.3034846416216808
6.541850220264318,2.3460705038075442
6.561674008810574,2.3866034090919372
6.581497797356829,2.425028039339445
6.601321585903085,2.461292742555534
6.62114537444934,2.495349407021664
6.640969162995596,2.5271533585919563
6.6607929515418505,2.5566632770610247
6.680616740088107,2.5838411282554743
6.700440528634362,2.608652109104237
6.720264317180618,2.631064603431211
6.740088105726873,2.651050146614392
6.759911894273129,2.6685833975845887
6.779735682819384,2.6836421169102973
6.799559471365639,2.696207149943952
6.819383259911895,2.70626241419781
6.83920704845815,2.713794890283056
6.859030837004407,2.7187946158895016
6.8788546255506615,2.7212546824099664
6.898678414096917,2.721171233927914
6.918502202643173,2.7185434683928733
6.938325991189428,2.713373640908717
6.958149779735684,2.705667069158254
6.977973568281939,2.6954321410867585
6.997797356828195,2.6826803250703337
7.01762114537445,2.6674261829048107
7.037444933920705,2.64968738607241
7.0572687224669615,2.629484735877837
7.077092511013216,2.606842188201752
7.096916299559473,2.5817868837978595
7.116740088105728,2.5543491852728533
7.136563876651983,2.5245627221396925
7.156387665198239,2.49246444563712
7.176211453744494,2.4580946953753076
7.19603524229075,2.421497280313336
7.215859030837005,2.382719577122996
7.235682819383261,2.341812649668524
7.255506607929516,2.298831394171418
7.275330396475772,2.253834715673449
7.295154185022027,2.206885742720987
7.314977973568283,2.1580520888393995
7.334801762114538,2.107406171446613
7.354625550660794,2.055025601493716
7.374449339207049,2.0009936604790006
7.394273127753305,1.945399885772603
7.4140969162995605,1.8883407906836656
7.433920704845816,1.8299207527522785
7.453744493392072,1.770253112800836
7.473568281938327,1.7094615388914884
7.493392070484583,1.6476817241823134
7.513215859030838,1.5850635065228627
7.533039647577093,1.5217735212672718
7.552863436123348,1.4579985278008722
7.572687224669605,1.3939495846224885
7.59251101321586,1.3298672858537615
7.612334801762115,1.2660283086911983
7.6321585903083715,1.2027535446455657
7.651982378854627,1.1404180725301805
7.671806167400882,1.0794631300231818
7.691629955947137,1.0204099669002937
7.711453744493394,0.963874874176689
7.731277533039649,0.9105835727859352
7.751101321585904,0.8613812827385832
7.7709251101321595,0.8172320973433201
7.790748898678416,0.7791982487879113
7.81057268722467,0.7483882252547522
7.830396475770926,0.7258659328148671
7.850220264317182,0.7125249767642827
7.870044052863436,0.7089521357031575
7.889867841409693,0.7153219885414297
7.909691629955948,0.7313636683259698
7.929515418502204,0.7564139504366173
7.9493392070484585,0.7895340843411774
7.969162995594715,0.8296467445651118
7.9889867841409705,0.8756544436152635
8.008810572687224,0.9265206003725838
8.02863436123348,0.9813129559643411
8.048458149779737,1.0392185591772736
8.068281938325994,1.0995412093105907
8.088105726872246,1.1616900345381846
8.107929515418503,1.2251648434487765
8.12775330396476,1.2895413914692608
8.147577092511014,1.3544580482314934
8.167400881057269,1.4196043927039836
8.187224669603525,1.4847117680647635
8.207048458149782,1.5495456069668117
8.226872246696036,1.613899263260541
8.246696035242293,1.6775890833030098
8.266519823788547,1.740450477616981
8.286343612334802,1.8023347909156335
8.306167400881058,1.8631068055564213
8.325991189427315,1.9226427463193478
8.345814977973568,1.9808286818690273
8.365638766519824,2.0375592405064227
8.38546255506608,2.0927365755006746
8.405286343612337,2.1462695291963816
8.42511013215859,2.198072955960122
8.444933920704846,2.248067172501688
8.464757709251103,2.296177510705559
8.484581497797357,2.342333953254503
8.504405286343614,2.3864708363498717
8.524229074889869,2.4285266069841946
8.544052863436125,2.4684436247003347
8.56387665198238,2.5061679997271797
8.583700440528636,2.5416494609319797
8.60352422907489,2.574841248262925
8.623348017621145,2.605700025342281
8.643171806167402,2.634185808662328
8.662995594713658,2.660261910476631
8.682819383259913,2.683894892998221
8.702643171806168,2.705054531940405
8.722466960352424,2.7237137877845803
8.74229074889868,2.739848783447722
8.762114537444935,2.7534387872630726
8.78193832599119,2.7644662003907636
8.801762114537446,2.772916547948074
8.821585903083701,2.7787784732989125
8.841409691629957,2.7820437350741134
8.861233480176212,2.7827072066125873
8.881057268722468,2.780766877621988
8.900881057268723,2.776223857960712
8.92070484581498,2.7690823835428646
8.940528634361234,2.759349824467906
8.960352422907489,2.747036695580362
8.980176211453745,2.732156669774537
9.000000000000002,2.7147265944796244
9.019823788546258,2.694766511893946
9.039647577092511,2.672299683690222
9.059471365638768,2.6473526210899534
9.079295154185024,2.619955121412598
9.099118942731279,2.5901403124516946
9.118942731277533,2.5579447063254155
9.13876651982379,2.5234082648063643
9.158590308370046,2.4865744785707733
9.1784140969163,2.4474904633405985
9.198237885462555,2.4062070765496966
9.218061674008812,2.362779058980833
9.237885462555067,2.3172652068357067
9.257709251101323,2.269728580972043
9.27753303964758,2.2202367616409844
9.297356828193834,2.1688621590783606
9.317180616740089,2.115682392865755
9.337004405286345,2.0607807562411655
9.356828193832602,2.0042467857087454
9.376651982378855,1.9461769616426823
9.396475770925111,1.886675572446549
9.416299559471367,1.8258557836614093
9.436123348017622,1.7638409647736937
9.455947136563877,1.7007663410448297
9.475770925110133,1.6367810562789624
9.49559471365639,1.5720507559322132
9.515418502202644,1.5067608291188335
9.5352422907489,1.4411204831738287
9.555066079295155,1.3753678644878655
9.57488986784141,1.3097764804374497
9.594713656387666,1.2446632095140389
9.614537444933923,1.180398188761183
9.634361233480178,1.1174167967423623
9.654185022026432,1.0562337277036806
9.674008810572689,0.9974586438284597
9.693832599118945,0.9418118922194907
9.713656387665198,0.8901370267507432
9.733480176211454,0.8434042122023627
9.75330396475771,0.8026953000488242
9.773127753303967,0.7691589029064035
9.792951541850222,0.7439254402375056
9.812775330396477,0.7279822498002066
9.832599118942733,0.7220287453738857
9.852422907488988,0.7263530100798335
9.872246696035244,0.7407764469234572
9.892070484581499,0.7646901747059986
9.911894273127754,0.7971672325726438
9.93171806167401,0.8371064598426748
9.951541850220266,0.8833636852682744
9.971365638766521,0.9348454500365195
9.991189427312776,0.9905617115944031
10.011013215859032,1.0496462124466834
10.030837004405289,1.1113562610539192
10.050660792951543,1.175061749764406
10.070484581497798,1.2402299666935144
10.090308370044054,1.3064099312582957
10.11013215859031,1.3732180612115505
10.129955947136565,1.4403258486604058
10.14977973568282,1.5074496318035029
10.169603524229077,1.574342279929654
10.189427312775331,1.6407865139227746
10.209251101321588,1.7065895748500546
10.229074889867842,1.7715789806381261
10.248898678414099,1.8355991505163873
10.268722466960353,1.8985087171091402
10.28854625550661,1.9601783819378034
10.308370044052865,2.0204892001886594
10.32819383259912,2.079331204992604
10.348017621145376,2.1366023008415858
10.367841409691632,2.192207370986367
10.387665198237887,2.246057555538233
10.407488986784141,2.2980696662401656
10.427312775330398,2.3481657110606524
10.447136563876654,2.3962725073584146
10.466960352422909,2.4423213667299444
10.486784140969164,2.4862478380654047
10.50660792951542,2.527991498017215
10.526431718061675,2.5674957801965514
10.546255506607931,2.6047078360825306
10.566079295154186,2.639578421955489
10.585903083700442,2.6720618072247366
10.605726872246697,2.7021157003703276
10.625550660792953,2.729701189402802
10.645374449339208,2.754782694299864
10.665198237885463,2.7773279293304776
10.685022026431719,2.797307873548422
