Time (s),Filtered Signal
0.0,0.021851897078364105
0.03337008452774715,0.026044928396108696
0.0667401690554943,0.03559241496062065
0.10011025358324147,0.05657889529997024
0.1334803381109886,0.09406683187333809
0.16685042263873576,0.14930971249416342
0.20022050716648293,0.21736313250240827
0.23359059169423008,0.28731870165402695
0.2669606762219772,0.3459085556747019
0.30033076074972437,0.38283845258288046
0.3337008452774715,0.3946374078956515
0.36707092980521866,0.384345748181443
0.40044101433296586,0.35689959323184156
0.433811098860713,0.3131018327308361
0.46718118338846015,0.24660328266567885
0.5005512679162073,0.1471252590406861
0.5339213524439544,0.009583907471675885
0.5672914369717016,-0.1553370121089877
0.6006615214994487,-0.31586327446364476
0.6340316060271959,-0.4244366421248238
0.667401690554943,-0.4342172161840608
0.7007717750826902,-0.321109384225192
0.7341418596104373,-0.10120179250293902
0.7675119441381845,0.16634331357049417
0.8008820286659317,0.3954501477290088
0.8342521131936789,0.5040580571101585
0.867622197721426,0.4475291642514401
0.9009922822491732,0.23930977341796708
0.9343623667769203,-0.05198079375581173
0.9677324513046675,-0.3294576208903055
1.0011025358324146,-0.5076542040196871
1.0344726203601617,-0.5469082069382015
1.0678427048879089,-0.466323945582175
1.101212789415656,-0.32943494113133875
1.1345828739434032,-0.21016843914974842
1.1679529584711503,-0.15644128311880143
1.2013230429988975,-0.1695989806655932
1.2346931275266446,-0.20947717894056134
1.2680632120543918,-0.22148331912960945
1.301433296582139,-0.1706655587032246
1.334803381109886,-0.0641399982947232
1.3681734656376332,0.0506403715541619
1.4015435501653803,0.11156238268590585
1.4349136346931275,0.07841445539184912
1.4682837192208746,-0.03907806310428361
1.5016538037486218,-0.17762761232887717
1.535023888276369,-0.2452232561336213
1.568393972804116,-0.16413435623439832
1.6017640573318634,0.08797012558406431
1.6351341418596106,0.4590339384514331
1.6685042263873577,0.836341722072025
1.7018743109151049,1.0885318581494652
1.735244395442852,1.1182300376363077
1.7686144799705992,0.9024710121104708
1.8019845644983463,0.5033540827021903
1.8353546490260935,0.044497859814116685
1.8687247335538406,-0.3363732125261595
1.9020948180815878,-0.5386461893875706
1.935464902609335,-0.5330990846632677
1.968834987137082,-0.366606838709211
2.002205071664829,-0.1374707821242827
2.0355751561925763,0.04660352591333483
2.0689452407203235,0.1098685985538514
2.1023153252480706,0.03309327161158463
2.1356854097758178,-0.14653674372392061
2.169055494303565,-0.35733738264621595
2.202425578831312,-0.5256085492007936
2.235795663359059,-0.6045071749778964
2.2691657478868064,-0.5882456619579977
2.3025358324145535,-0.5076718546115974
2.3359059169423007,-0.4111241802841098
2.369276001470048,-0.3399410627505233
2.402646085997795,-0.30935113750068116
2.436016170525542,-0.30253188283439975
2.4693862550532892,-0.279733585777765
2.5027563395810364,-0.19789785738134563
2.5361264241087835,-0.0318349857377636
2.5694965086365307,0.21231581635130314
2.602866593164278,0.4967994391608145
2.636236677692025,0.7645171673604649
2.669606762219772,0.9579385944574208
2.7029768467475193,1.036654806576725
2.7363469312752664,0.9873405233069747
2.7697170158030135,0.8241238936581614
2.8030871003307607,0.5816130960141225
2.836457184858508,0.3049729897971002
2.869827269386255,0.040786510078027124
2.903197353914002,-0.17000195831464443
2.9365674384417493,-0.2979436943312971
2.9699375229694964,-0.3308581624611831
3.0033076074972436,-0.27878185217938933
3.0366776920249907,-0.1750292745613677
3.070047776552738,-0.06981301675397546
3.103417861080485,-0.015496336332151023
3.136787945608232,-0.04734528792106984
3.1701580301359793,-0.1677163801529386
3.203528114663727,-0.3419153759714284
3.236898199191474,-0.5094789948199182
3.270268283719221,-0.6073664751762163
3.3036383682469683,-0.5954381356350409
3.3370084527747155,-0.4730509422586311
3.3703785373024626,-0.27944342063537386
3.4037486218302098,-0.07778680664943849
3.437118706357957,0.07014793044372161
3.470488790885704,0.12793014377839576
3.503858875413451,0.09713830423324175
3.5372289599411983,0.013967774491885781
3.5705990444689455,-0.06798271189752927
3.6039691289966926,-0.10063886127478439
3.63733921352444,-0.059944143781022634
3.670709298052187,0.047527213424143934
3.704079382579934,0.1912562164491422
3.7374494671076812,0.33195655015318304
3.7708195516354284,0.43716981971263597
3.8041896361631755,0.49032487036733996
3.8375597206909227,0.49075565451091097
3.87092980521867,0.4471595790351299
3.904299889746417,0.3697298941757672
3.937669974274164,0.26555512751668275
3.9710400588019112,0.13880876378733376
4.004410143329658,-0.005990714802049719
4.0377802278574055,-0.16079633608593427
4.071150312385153,-0.3132032945447294
4.1045203969129,-0.4481987927065344
4.137890481440647,-0.5511324384993309
4.171260565968394,-0.610345959529262
4.204630650496141,-0.6187659720743554
4.238000735023888,-0.574698007904537
4.2713708195516356,-0.4823104783913961
4.304740904079383,-0.3518650378583754
4.33811098860713,-0.1991947462082512
4.371481073134877,-0.043798475971747186
4.404851157662624,0.09466822022380794
4.438221242190371,0.20102786466234793
4.471591326718118,0.2691997400246937
4.504961411245866,0.30521087599959995
4.538331495773613,0.3269160632931522
4.57170158030136,0.35928525814676604
4.605071664829107,0.4255480191474746
4.638441749356854,0.5365878602526142
4.671811833884601,0.682792720890345
4.7051819184123485,0.8327639245750827
4.738552002940096,0.9410866523536316
4.771922087467843,0.9633298898743621
4.80529217199559,0.872479801519836
4.838662256523337,0.6694558070696727
4.872032341051084,0.38259052582967296
4.905402425578831,0.05629721052389288
4.9387725101065785,-0.26515888516503866
4.972142594634326,-0.5502933499226094
5.005512679162073,-0.7834156421346546
5.03888276368982,-0.9582553570430976
5.072252848217567,-1.0685130032292944
5.105622932745314,-1.103458526687602
5.138993017273061,-1.0529308912798108
5.1723631018008085,-0.9191547254162888
5.205733186328556,-0.7271831077245694
5.239103270856303,-0.5251587355725378
5.27247335538405,-0.3706052677280893
5.305843439911797,-0.3069808735419407
5.339213524439544,-0.34132566152237254
5.372583608967291,-0.43514149368517313
5.4059536934950385,-0.5154004205622705
5.439323778022786,-0.5029864886476023
5.472693862550533,-0.3466910131098442
5.50606394707828,-0.047058068736600366
5.539434031606027,0.34161981902925387
5.572804116133774,0.7326096486635276
5.606174200661521,1.0413987985470476
5.6395442851892685,1.217218708168991
5.672914369717016,1.2569045609203677
5.706284454244763,1.1960634371925065
5.73965453877251,1.0843398760147605
5.773024623300257,0.9591556265344068
5.806394707828004,0.8316215500959327
5.839764792355751,0.6902102780778391
5.873134876883499,0.5173272158439753
5.906504961411246,0.30726187572686814
5.939875045938993,0.07461965045828967
5.97324513046674,-0.15082870187554576
6.006615214994487,-0.33848177064819895
6.039985299522234,-0.47105632727252017
6.073355384049981,-0.550267640539573
6.106725468577729,-0.5916579514588729
6.140095553105476,-0.6129281996904122
6.173465637633223,-0.6236005886326167
6.20683572216097,-0.6222300984110315
6.240205806688717,-0.6020306487602974
6.273575891216464,-0.5601795678598194
6.3069459757442115,-0.5037284844523185
6.340316060271959,-0.4474505180397115
6.373686144799706,-0.40459343179647406
6.407056229327454,-0.37672345260025886
6.440426313855201,-0.3500678270337229
6.473796398382948,-0.3019370042645019
6.507166482910695,-0.21425666494364876
6.540536567438442,-0.08624050891286894
6.5739066519661895,0.06183473880716205
6.607276736493937,0.19672406982411544
6.640646821021684,0.28807922190207214
6.674016905549431,0.3233506393778892
6.707386990077178,0.3136555704496318
6.740757074604925,0.28790805307438955
6.774127159132672,0.2790072897174321
6.8074972436604195,0.3095118990453183
6.840867328188167,0.3832788986812717
6.874237412715914,0.4854435327399537
6.907607497243661,0.5889107901944086
6.940977581771408,0.6635261178185637
6.974347666299155,0.6845524791915129
7.007717750826902,0.6386887733871494
7.0410878353546495,0.5271364996478709
7.074457919882397,0.365584270033177
7.107828004410144,0.1808823554695567
7.141198088937891,0.004436446650104406
7.174568173465638,-0.13664196927511238
7.207938257993385,-0.2282056033251423
7.241308342521132,-0.27428661782257246
7.27467842704888,-0.2961110985803051
7.308048511576627,-0.32426340944416676
7.341418596104374,-0.38628530903256525
7.374788680632121,-0.494392963846941
7.408158765159868,-0.6385386413337012
7.441528849687615,-0.7882115150468016
7.4748989342153624,-0.9028025563498473
7.50826901874311,-0.946615639970651
7.541639103270857,-0.9024353135900431
7.575009187798604,-0.7780094148592882
7.608379272326351,-0.6026996762643635
7.641749356854098,-0.41562200147891465
7.675119441381845,-0.2501103184307272
7.7084895259095925,-0.12086984545621082
7.74185961043734,-0.01913724639645583
7.775229694965087,0.0820710541998004
7.808599779492834,0.21471380097328258
7.841969864020581,0.39998816683389304
7.875339948548328,0.6367801609147161
7.908710033076075,0.8993223260820444
7.9420801176038225,1.1452019839905232
7.97545020213157,1.3303546441925642
8.008820286659317,1.4244664944040055
8.042190371187063,1.4198390534823147
8.075560455714811,1.3297149939927697
8.108930540242557,1.177264834404723
8.142300624770305,0.9814140666822859
8.175670709298052,0.7476402114335802
8.2090407938258,0.46932874543392156
8.242410878353546,0.1392958108153043
8.275780962881294,-0.2351203063265569
8.30915104740904,-0.6228203143984835
8.342521131936788,-0.9725268429536253
8.375891216464534,-1.2294280149042902
8.409261300992283,-1.3575989356902585
8.442631385520029,-1.3568020417660673
8.476001470047777,-1.264169312260262
8.509371554575523,-1.1385977624857748
8.542741639103271,-1.034704382034434
8.57611172363102,-0.9789355262416671
8.609481808158765,-0.9595841939542419
8.642851892686513,-0.9353655500600113
8.67622197721426,-0.8577002287509434
8.709592061742008,-0.6951204038650519
8.742962146269754,-0.44774878887086517
8.776332230797502,-0.1455617299710673
8.809702315325248,0.16722881033653253
8.843072399852996,0.452496889459584
8.876442484380743,0.6923802615315445
8.90981256890849,0.8904878012699964
8.943182653436237,1.060646121802873
8.976552737963985,1.2104349546991897
9.009922822491731,1.3294369200327505
9.04329290701948,1.3894011632066856
9.076662991547225,1.3568585626147063
9.110033076074973,1.2117074514989388
9.14340316060272,0.9617570678416473
9.176773245130468,0.6451426918428574
9.210143329658214,0.318817162426224
9.243513414185962,0.03843161212833101
9.276883498713708,-0.16101358187680193
9.310253583241456,-0.27523913097583724
9.343623667769203,-0.3278333590740274
9.37699375229695,-0.35680657659054316
9.410363836824697,-0.3970530808400466
9.443733921352445,-0.4661051668732794
9.477104005880191,-0.5584410038342378
9.51047409040794,-0.6498263073842184
9.543844174935685,-0.7092669608103013
9.577214259463434,-0.7133619173179433
9.61058434399118,-0.6570009270409846
9.643954428518928,-0.5558105262759778
9.677324513046674,-0.43919352033084375
9.710694597574422,-0.33703965966660066
9.744064682102168,-0.2663547335905305
9.777434766629916,-0.22442882957527277
9.810804851157663,-0.19216990792843902
9.84417493568541,-0.14606894594785744
9.877545020213157,-0.07253772818534944
9.910915104740905,0.023260982964395452
9.944285189268651,0.11931928155575945
9.9776552737964,0.18890978056475052
10.011025358324146,0.21662692226089142
10.044395442851894,0.20947085978649305
10.07776552737964,0.1963241539272875
10.111135611907388,0.21509993414625925
10.144505696435134,0.2933284165974532
10.177875780962882,0.4315869377185516
10.211245865490628,0.5981426375982011
10.244615950018376,0.7380679728445863
10.277986034546123,0.7934440147457226
10.31135611907387,0.7262001983357974
10.344726203601617,0.5339020458896111
10.378096288129365,0.25185776085256695
10.411466372657111,-0.05916692633505861
10.44483645718486,-0.3342419184242831
10.478206541712606,-0.5256508631760967
10.511576626240354,-0.6159564029172073
10.5449467107681,-0.6185002037565077
10.578316795295848,-0.5667038584425117
10.611686879823594,-0.4979344755925085
10.645056964351342,-0.43904019941420075
10.678427048879088,-0.3987986362208626
10.711797133406836,-0.3688252671271264
10.745167217934583,-0.33090226572089515
10.77853730246233,-0.26667457928272487
10.811907386990077,-0.16565479005871103
10.845277471517825,-0.028990013727408857
10.878647556045571,0.13146914761209405
10.91201764057332,0.2974934526757889
10.945387725101066,0.44998086533556586
10.978757809628814,0.5734694708374048
11.01212789415656,0.658258008058259
11.045497978684308,0.6999113066862411
11.078868063212054,0.6971138659465381
11.112238147739802,0.64956546659846
11.145608232267548,0.5574704016647254
11.178978316795297,0.42308386434987066
11.212348401323043,0.25325270720566023
11.24571848585079,0.060874511432717895
11.279088570378537,-0.13646263089332678
11.312458654906285,-0.3206469224010663
11.345828739434031,-0.47784248440783855
11.37919882396178,-0.6007769997348675
11.412568908489526,-0.6866849929803247
11.445938993017274,-0.73219973903749
11.47930907754502,-0.7293307403542034
11.512679162072768,-0.6668275584106552
11.546049246600514,-0.5379350796289307
11.579419331128262,-0.3506191374022582
11.612789415656009,-0.13324755696003432
11.646159500183757,0.06989088815426957
11.679529584711503,0.2132259038697407
11.71289966923925,0.2681842786517289
11.746269753766997,0.23547805128477114
11.779639838294745,0.14441681400841666
11.813009922822491,0.03933888364916307
11.84638000735024,-0.039507419398248624
11.879750091877986,-0.07043341132930399
11.913120176405734,-0.05324569314066875
11.94649026093348,-0.0011156748593090032
11.979860345461228,0.0715176932981833
12.013230429988974,0.1562770397293952
12.046600514516722,0.24898370798650263
12.079970599044469,0.34140577001303846
12.113340683572217,0.4145596045748212
12.146710768099963,0.4409415928108086
12.180080852627711,0.3969964732776961
12.213450937155457,0.27947346529707817
12.246821021683205,0.11518267795447258
12.280191106210951,-0.04394064347333474
12.3135611907387,-0.14064039994240898
12.346931275266446,-0.1382646579975764
12.380301359794194,-0.03949288211773211
12.41367144432194,0.1126682849703477
12.447041528849688,0.2532411975896239
12.480411613377434,0.3244096260106588
12.513781697905182,0.30105792896583017
12.547151782432929,0.2001784181076002
12.580521866960677,0.06998345986278144
12.613891951488423,-0.03518234014951134
12.647262036016171,-0.08134959859969097
12.680632120543917,-0.07014430818821558
12.714002205071665,-0.036243063061840025
12.747372289599411,-0.02933548674961699
12.78074237412716,-0.08973937472685205
12.814112458654908,-0.22892781722028835
12.847482543182654,-0.4232681224496698
12.880852627710402,-0.6230925132909088
12.914222712238148,-0.7726304426581866
12.947592796765896,-0.8319283884218734
12.980962881293642,-0.7912884077100572
13.01433296582139,-0.6721814073548965
13.047703050349137,-0.5146628119963715
13.081073134876885,-0.3574316446529072
13.114443219404631,-0.2200277008908077
13.147813303932379,-0.09561713467049401
13.181183388460125,0.042207868903483506
13.214553472987873,0.2218664309222537
13.24792355751562,0.45390758346005566
13.281293642043368,0.718498741693983
13.314663726571114,0.9666538723658595
13.348033811098862,1.1352725174143679
13.381403895626608,1.1698193663553478
13.414773980154356,1.0452203202078398
13.448144064682102,0.7765952735984977
13.48151414920985,0.41595474776841057
13.514884233737597,0.03668332062337937
13.548254318265345,-0.2879049054447688
13.581624402793091,-0.5040058438346756
13.614994487320839,-0.5883738241197743
13.648364571848585,-0.5485453288750369
13.681734656376333,-0.41442836565408436
13.71510474090408,-0.22661423436954675
13.748474825431828,-0.026927227883408202
13.781844909959574,0.1461172574227761
13.815214994487322,0.2583365575757302
13.848585079015068,0.2814010258354066
13.881955163542816,0.19818707842764535
13.915325248070562,0.011573304302402512
13.94869533259831,-0.24805960444212977
13.982065417126057,-0.5231614313427198
14.015435501653805,-0.741120952469316
14.048805586181551,-0.8360373233015714
14.082175670709299,-0.771929358642021
14.115545755237045,-0.5568884332787809
14.148915839764793,-0.24111292324925557
14.18228592429254,0.10067904364688932
14.215656008820288,0.3944926705432366
14.249026093348034,0.5888709063759681
14.282396177875782,0.6650171016389863
14.315766262403528,0.6336795835808524
14.349136346931276,0.5236496653743588
14.382506431459023,0.36925063440024586
14.41587651598677,0.2021432831735099
14.449246600514517,0.04836920666614405
14.482616685042265,-0.07192427112231913
14.515986769570011,-0.14517744136702784
14.54935685409776,-0.16661141737668808
14.582726938625505,-0.14247097327298405
14.616097023153253,-0.08982891457644071
14.649467107681,-0.0325260454092876
14.682837192208748,0.005955611805032013
14.716207276736494,0.010071003550634562
14.749577361264242,-0.02272739267828195
14.782947445791988,-0.0813164945118129
14.816317530319736,-0.14475112383362645
14.849687614847483,-0.18929131314952347
14.88305769937523,-0.19645965526002943
14.916427783902977,-0.1597649216025714
14.949797868430725,-0.08793732475461873
14.983167952958471,-0.0032175109747666483
15.01653803748622,0.06540269220528806
15.049908122013965,0.09221027506093557
15.083278206541713,0.06458024363868377
15.11664829106946,-0.011473691617320028
15.150018375597208,-0.11273738602280646
15.183388460124954,-0.20703503609089474
15.216758544652702,-0.26484739013293646
15.250128629180448,-0.2691137912346289
15.283498713708196,-0.2188880356928014
15.316868798235943,-0.12574265554402655
15.35023888276369,-0.005662377242090742
15.383608967291437,0.1285565131343402
15.416979051819185,0.26998032290966845
15.450349136346931,0.4139891945121142
15.48371922087468,0.5511397614805473
15.517089305402425,0.6616793432053499
15.550459389930174,0.7167132697435968
15.58382947445792,0.6877272204716147
15.617199558985668,0.5611543002376399
15.650569643513414,0.3505500458746132
15.683939728041162,0.09842534572857504
15.717309812568908,-0.13594730305669625
15.750679897096656,-0.2990352256633849
15.784049981624403,-0.365633116754714
15.81742006615215,-0.3498863841335339
15.850790150679897,-0.2982490871940037
15.884160235207645,-0.2671164306727437
15.917530319735391,-0.296024913311399
15.95090040426314,-0.3896722154172193
15.984270488790886,-0.5172520410841966
16.017640573318634,-0.6285200095775174
16.05101065784638,-0.6777077930289969
16.084380742374126,-0.6432411055515157
16.117750826901876,-0.5344163343136197
16.151120911429622,-0.3834470914948479
16.18449099595737,-0.22842373330414883
16.217861080485115,-0.0961945976876287
16.251231165012864,0.007126589573705392
16.28460124954061,0.09493302750142907
16.317971334068357,0.1902486609708945
16.351341418596103,0.31259512078018353
16.384711503123853,0.4674339393667581
16.4180815876516,0.6420107254208439
16.451451672179346,0.8083245307778439
16.484821756707092,0.9312410602644727
16.51819184123484,0.9784568249306755
16.551561925762588,0.9292588058207932
16.584932010290334,0.7802120631819691
16.61830209481808,0.5471454726651602
16.65167217934583,0.2634620017270552
16.685042263873576,-0.025139043255436713
16.718412348401323,-0.26944284940899504
16.75178243292907,-0.4283291174876492
16.78515251745682,-0.481105898627199
16.818522601984565,-0.43670546781135183
16.85189268651231,-0.33504176334833247
16.885262771040058,-0.23725300056421558
16.918632855567807,-0.20563400976556784
16.952002940095554,-0.2794232905168841
16.9853730246233,-0.4563676961666858
17.018743109151046,-0.6893427520060728
17.052113193678796,-0.9015520612272043
17.085483278206542,-1.015292679598198
17.11885336273429,-0.9823083081478825
17.15222344726204,-0.802291462168903
17.185593531789785,-0.5212916774871814
17.21896361631753,-0.21119104437848582
17.252333700845277,0.05979902267985269
17.285703785373027,0.25204022766923506
17.319073869900773,0.3644328195200906
