Time (s),Filtered Signal
0.0,-0.04900723312657399
0.033370535714285714,0.17657164671930212
0.06674107142857143,0.3348919486243573
0.10011160714285713,0.3673597838042771
0.13348214285714285,0.23588087057188575
0.16685267857142858,-0.0654114873302758
0.20022321428571427,-0.5024735861517737
0.23359375,-1.0035196500391592
0.2669642857142857,-1.474078976053769
0.30033482142857143,-1.822165693132205
0.33370535714285715,-1.9850411779755437
0.36707589285714287,-1.9468934260231814
0.40044642857142854,-1.7398956136672639
0.43381696428571426,-1.428251473844339
0.4671875,-1.0823819010961737
0.5005580357142857,-0.7545146507105349
0.5339285714285714,-0.4656603396393472
0.5672991071428571,-0.20814669021340174
0.6006696428571429,0.03946410818835591
0.6340401785714286,0.2936195496429678
0.6674107142857143,0.5527486343548624
0.70078125,0.7959585434115927
0.7341517857142857,0.9931962940308082
0.7675223214285715,1.120806477062454
0.8008928571428571,1.1739224280134681
0.8342633928571428,1.169108672541249
0.8676339285714285,1.1359691514890564
0.9010044642857142,1.1022036737330052
0.934375,1.0798575959788268
0.9677455357142857,1.0597338357035526
1.0011160714285714,1.016722709455188
1.0344866071428571,0.9233919669429697
1.0678571428571428,0.7651992812900588
1.1012276785714286,0.5499369828580414
1.1345982142857143,0.3067587149630883
1.16796875,0.07507804578681408
1.2013392857142857,-0.11152709223447388
1.2347098214285714,-0.23884297397756507
1.2680803571428572,-0.3166431393934834
1.3014508928571429,-0.3723808031541415
1.3348214285714286,-0.43717272954835806
1.3681919642857143,-0.5308339522896852
1.4015625,-0.6528393994085177
1.4349330357142858,-0.7828927037699692
1.4683035714285715,-0.8900564508801103
1.5016741071428572,-0.945573064531931
1.535044642857143,-0.9333785946305193
1.5684151785714286,-0.854180855116342
1.6017857142857141,-0.7225863453924234
1.6351562499999999,-0.5600668858326378
1.6685267857142856,-0.38786422722303676
1.7018973214285713,-0.22282565093679202
1.735267857142857,-0.07666120282929594
1.7686383928571427,0.04305011265204619
1.8020089285714285,0.13227029953386216
1.8353794642857142,0.19122880068601159
1.86875,0.22550693833769542
1.9021205357142856,0.2456070164126098
1.9354910714285714,0.26391235650516354
1.968861607142857,0.28982462429777683
2.002232142857143,0.32541614381718226
2.0356026785714287,0.36403074053591594
2.0689732142857142,0.39287620601707984
2.10234375,0.39869837978616396
2.1357142857142857,0.3741951965761776
2.169084821428571,0.3224768055904649
2.202455357142857,0.2575389141004465
2.2358258928571426,0.20004623867478905
2.2691964285714286,0.16939299739761027
2.302566964285714,0.1746601901057742
2.3359375,0.20815334287905465
2.3693080357142855,0.2449810264044322
2.4026785714285714,0.2502541672383238
2.436049107142857,0.1923659044686022
2.469419642857143,0.05767652110156301
2.5027901785714284,-0.13968822281631704
2.5361607142857143,-0.358211152549683
2.56953125,-0.5411326344242192
2.6029017857142858,-0.6368403311172298
2.6362723214285713,-0.6195752856199447
2.669642857142857,-0.5012019089333233
2.7030133928571427,-0.327772621810894
2.7363839285714286,-0.1611363300345501
2.769754464285714,-0.05305608550287796
2.803125,-0.023530287579716334
2.8364955357142856,-0.0537027063145477
2.8698660714285715,-0.09708013290460503
2.903236607142857,-0.10383240702195362
2.936607142857143,-0.04624301553611859
2.9699776785714285,0.06748010810361393
3.0033482142857144,0.19811262532741966
3.03671875,0.2965693549615826
3.070089285714286,0.33036966925971933
3.1034598214285714,0.3016304924265763
3.1368303571428573,0.24717584719587798
3.170200892857143,0.22059554305465803
3.2035714285714283,0.2652314301456459
3.2369419642857142,0.3913774123070984
3.2703124999999997,0.5685238099087029
3.3036830357142857,0.7359247031344077
3.337053571428571,0.8261514487007855
3.370424107142857,0.7907856233187164
3.4037946428571426,0.6173276227800947
3.4371651785714286,0.33131783835634937
3.470535714285714,-0.015219754367095434
3.50390625,-0.36226576052632864
3.5372767857142855,-0.6589069237391717
3.5706473214285714,-0.8733727922206094
3.604017857142857,-0.9949817654170666
3.637388392857143,-1.0306207981217024
3.6707589285714284,-0.9991878836546687
3.7041294642857143,-0.9258066921554741
3.7375,-0.8357024628690896
3.7708705357142858,-0.7474232972860798
3.8042410714285713,-0.6667978626468894
3.837611607142857,-0.5848010306158181
3.8709821428571427,-0.48205728937671816
3.9043526785714286,-0.33943332401318305
3.937723214285714,-0.14998199968008122
3.97109375,0.07441043804348918
4.004464285714286,0.30599491419046054
4.0378348214285715,0.5125217392727588
4.0712053571428575,0.6705427317808993
4.1045758928571425,0.7729161320910948
4.1379464285714285,0.826474498487382
4.171316964285714,0.8421302982906511
4.2046875,0.8244865797542688
4.238058035714285,0.7682141877907177
4.271428571428571,0.6640071416603835
4.304799107142857,0.5106810998430596
4.338169642857142,0.32575074534207105
4.371540178571428,0.14707267122304277
4.404910714285714,0.02267648691789948
4.43828125,-0.0078048640750916255
4.471651785714285,0.06802228911374973
4.505022321428571,0.22513418416858405
4.538392857142857,0.40511493359411327
4.571763392857143,0.5339700047840173
4.605133928571428,0.5474517750274961
4.638504464285714,0.41429269967071725
4.671875,0.14826362203020546
4.705245535714286,-0.1958329376458679
4.738616071428571,-0.5408289004909043
4.771986607142857,-0.813182318070081
4.805357142857143,-0.9659585791800974
4.838727678571429,-0.9899477864760552
4.872098214285714,-0.9096035456738483
4.90546875,-0.76748571371045
4.938839285714286,-0.6057288731336917
4.972209821428572,-0.4531847289908961
5.005580357142857,-0.32248260230987624
5.038950892857143,-0.2152034566631172
5.072321428571429,-0.12939548243395835
5.105691964285715,-0.06390713127709563
5.1390625,-0.017724612188552827
5.172433035714286,0.013247742766172993
5.2058035714285715,0.03770065918360259
5.2391741071428575,0.06609631163520341
5.2725446428571425,0.10456278582784176
5.3059151785714285,0.14959543028438593
5.339285714285714,0.1878898875043069
5.3726562499999995,0.20280054851031726
5.406026785714285,0.1847012051432701
5.439397321428571,0.13949566480963926
5.472767857142857,0.08966329481439199
5.506138392857142,0.06578436980084905
5.539508928571428,0.09177231019738519
5.572879464285714,0.1711699701708235
5.60625,0.28229489014803205
5.639620535714285,0.3860311883257884
5.672991071428571,0.443444590685481
5.706361607142857,0.43466907448425746
5.739732142857143,0.3690523431045356
5.773102678571428,0.2805615147751237
5.806473214285714,0.21008657594231236
5.83984375,0.18347558621000964
5.873214285714286,0.19684423499868653
5.906584821428571,0.21723923087840968
5.939955357142857,0.19884547919906367
5.973325892857143,0.10685088717135882
6.006696428571429,-0.06286608486596271
6.040066964285714,-0.2779220878909999
6.0734375,-0.4803144489521255
6.106808035714286,-0.6089307312824224
6.140178571428572,-0.6235547699863215
6.173549107142857,-0.5201479882781923
6.206919642857143,-0.33160444610153544
6.240290178571429,-0.11467691676384643
6.273660714285715,0.07070607070499248
6.30703125,0.18121014072647637
6.340401785714286,0.20189538376250216
6.3737723214285715,0.14704557748029587
6.407142857142857,0.051530034944891334
6.4405133928571425,-0.04280476401085835
6.4738839285714285,-0.10060082211123877
6.507254464285714,-0.10250967955053644
6.5406249999999995,-0.04899497425748061
6.573995535714285,0.041659237675548695
6.607366071428571,0.14011844811933383
6.640736607142857,0.21570187399328414
6.674107142857142,0.24634474497041017
6.707477678571428,0.2256282133723804
6.740848214285714,0.1641872139422657
6.77421875,0.08465359231132068
6.807589285714285,0.011918182998544294
6.840959821428571,-0.03735130112701361
6.874330357142857,-0.06147657336696153
6.907700892857143,-0.07381741431024257
6.941071428571428,-0.09592567439439288
6.974441964285714,-0.14660639953889937
7.0078125,-0.23157145014901045
7.041183035714286,-0.33835074400903054
7.074553571428571,-0.4391204420026836
7.107924107142857,-0.5008235883953913
7.141294642857143,-0.4986883053646831
7.174665178571429,-0.427404940115846
7.208035714285714,-0.30476152053098304
7.24140625,-0.16547899592951743
7.274776785714286,-0.047268873229428195
7.308147321428572,0.02509538356664866
7.341517857142857,0.050523275502924306
7.374888392857143,0.051944839648361656
7.408258928571429,0.06562092268280392
7.441629464285715,0.12396058880550917
7.475,0.23956659781479173
7.508370535714286,0.3978454571883981
7.5417410714285715,0.5617120992944741
7.575111607142857,0.6864821888719366
7.6084821428571425,0.7384823216926208
7.6418526785714285,0.7092366519510286
7.675223214285714,0.6189697516355367
7.7085937499999995,0.50772364615321
7.741964285714285,0.4176791017600151
7.775334821428571,0.3741173398156549
7.808705357142857,0.3732729165599176
7.842075892857142,0.38269373102832577
7.875446428571428,0.3545750580712929
7.908816964285714,0.2469030731330863
7.9421875,0.043556945535369006
7.975558035714285,-0.2354168437465858
8.008928571428571,-0.538103021463236
8.042299107142856,-0.7980190127834073
8.075669642857143,-0.9572274694558797
8.109040178571428,-0.9858485294985941
8.142410714285715,-0.8906658857794949
8.17578125,-0.710589579675712
8.209151785714285,-0.502057718308522
8.242522321428572,-0.320636736331209
8.275892857142857,-0.2052507848611917
8.309263392857142,-0.16934608942014173
8.342633928571429,-0.20032823925365623
8.376004464285714,-0.2660666981247317
8.409375,-0.32575686782991925
8.442745535714286,-0.34196355156153696
8.47611607142857,-0.29091588054361905
8.509486607142858,-0.1687580020545035
8.542857142857143,0.007651813804874976
8.576227678571428,0.2056335943336941
8.609598214285715,0.38609163617335274
8.64296875,0.5148697725209795
8.676339285714285,0.572660239007576
8.709709821428572,0.5602946921733463
8.743080357142857,0.49765189095851964
8.776450892857143,0.41656881776710036
8.809821428571428,0.35019337191649336
8.843191964285714,0.3223325644354312
8.8765625,0.3401375531422498
8.909933035714285,0.3921391698647411
8.94330357142857,0.4518522649066597
8.976674107142857,0.4856155804722255
9.010044642857142,0.4624531807613727
9.04341517857143,0.36353702589967746
9.076785714285714,0.18902332650238354
9.11015625,-0.03959184745363528
9.143526785714286,-0.2828177770058841
9.176897321428571,-0.4922596649408454
9.210267857142856,-0.6237243036280545
9.243638392857143,-0.6507457291443924
9.277008928571428,-0.5739387872385217
9.310379464285715,-0.4222927549967343
9.34375,-0.24502313892031613
9.377120535714285,-0.09608089134600892
9.410491071428572,-0.016460551734220157
9.443861607142857,-0.020693652819525524
9.477232142857142,-0.0926640996736897
9.510602678571429,-0.1924451646459107
9.543973214285714,-0.2715252112895732
9.57734375,-0.2904058041077752
9.610714285714286,-0.23171347099800454
9.64408482142857,-0.10413274162282937
9.677455357142858,0.06339435823569857
9.710825892857143,0.23369136314977015
9.744196428571428,0.3739975005282124
9.777566964285715,0.46430748918633036
9.8109375,0.49920846909936745
9.844308035714285,0.4842780493752397
9.877678571428572,0.43023999236832805
9.911049107142857,0.34818828485158576
9.944419642857143,0.2475642939993351
9.977790178571428,0.13646164324072133
10.011160714285714,0.022641184571254705
10.04453125,-0.08607290288001734
10.077901785714285,-0.18220572384992711
10.11127232142857,-0.25924064311166595
10.144642857142857,-0.31199658510856787
10.178013392857142,-0.3370837126266539
10.21138392857143,-0.33403311487061965
10.244754464285714,-0.3069993527799161
10.278125,-0.2657840451532769
10.311495535714286,-0.22448673785124187
10.344866071428571,-0.19710868232975748
10.378236607142856,-0.19150190699740405
10.411607142857143,-0.20476625909549123
10.444977678571428,-0.22315603549150687
10.478348214285715,-0.22744926296858417
10.51171875,-0.20165613798722612
10.545089285714285,-0.14076208639977972
10.578459821428572,-0.053354294745642475
10.611830357142857,0.04244937220448253
10.645200892857142,0.12773270982209323
10.678571428571429,0.19151902411087107
10.711941964285714,0.23478687784935925
10.745312499999999,0.2676598607915088
10.778683035714286,0.30158542251781356
10.81205357142857,0.3412957071397763
10.845424107142858,0.38155558652363136
10.878794642857143,0.41086426922803315
10.912165178571428,0.41994384317388556
10.945535714285715,0.40959769673619045
10.97890625,0.3924271164436303
11.012276785714285,0.3862383084376737
11.045647321428572,0.40199681391280945
11.079017857142857,0.4330229605740526
11.112388392857143,0.4523798157347165
11.145758928571428,0.42157524372164434
11.179129464285714,0.30760271247854537
11.2125,0.10028763844801607
11.245870535714285,-0.17910591417727553
11.27924107142857,-0.4830908842813421
11.312611607142857,-0.7550172905800862
11.345982142857142,-0.949668587768901
11.37935267857143,-1.0471703859186339
11.412723214285714,-1.0537934470312695
11.44609375,-0.9906962327529903
11.479464285714286,-0.8783930258638086
11.512834821428571,-0.7266910273241837
11.546205357142856,-0.5358376775267624
11.579575892857143,-0.3071416604819969
11.612946428571428,-0.05499567359450405
11.646316964285715,0.1890243714907763
11.6796875,0.3845866553778042
11.713058035714285,0.5001888688756004
11.746428571428572,0.5301246596148954
11.779799107142857,0.5002683284944762
11.813169642857142,0.45774140405903013
11.846540178571429,0.4484746498551498
11.879910714285714,0.49378988419876924
11.913281249999999,0.5782688814117165
11.946651785714286,0.655669492305739
11.98002232142857,0.6705161159097826
12.013392857142858,0.5850953865490206
12.046763392857143,0.3989230216276122
12.080133928571428,0.15145777080189757
12.113504464285715,-0.09312483664985083
12.146875,-0.27192611556400303
12.180245535714285,-0.3481714829401206
12.213616071428572,-0.3239508402221462
12.246986607142857,-0.23588587203655628
12.280357142857143,-0.13679910760878347
12.313727678571428,-0.0726607742293553
12.347098214285714,-0.0655468752509867
12.38046875,-0.10955829528551368
12.413839285714285,-0.17977447229924437
12.44720982142857,-0.24800017028654667
12.480580357142857,-0.29650082955085977
12.513950892857142,-0.3231338203445012
12.54732142857143,-0.3366784839540861
12.580691964285714,-0.34658167618107494
12.6140625,-0.35387537380924233
12.647433035714286,-0.3486172556180035
12.680803571428571,-0.315010024510931
12.714174107142856,-0.24090602928313773
12.747544642857143,-0.12611885145857074
12.780915178571428,0.01511567534904761
12.814285714285713,0.15880411624912139
12.84765625,0.28041198255313
12.881026785714285,0.36385180401040307
12.914397321428572,0.4059652592754832
12.947767857142857,0.41491920122357934
12.981138392857142,0.40414072909604837
13.014508928571429,0.385362896530154
13.047879464285714,0.3642104916255129
13.081249999999999,0.33993327898891385
13.114620535714286,0.30857759259695516
13.14799107142857,0.26727987881237847
13.181361607142858,0.21712881242809856
13.214732142857143,0.16311303779890451
13.248102678571428,0.11139153350948998
13.281473214285715,0.06557786283128217
13.31484375,0.02419361580296608
13.348214285714285,-0.019244542620224216
13.381584821428572,-0.07342896410090731
13.414955357142857,-0.14499671179787413
13.448325892857143,-0.23465901946742027
13.481696428571428,-0.33534821203379306
13.515066964285714,-0.4331648124491876
13.5484375,-0.5108867014444141
13.581808035714285,-0.5529493479965004
13.61517857142857,-0.5503167810978659
13.648549107142857,-0.5036169540194516
13.681919642857142,-0.42331965097344565
13.71529017857143,-0.32653765305167903
13.748660714285714,-0.23111616205423158
13.78203125,-0.14882713283045687
13.815401785714286,-0.08032448320242767
13.848772321428571,-0.014502002320858824
13.882142857142856,0.06642780284322876
13.915513392857143,0.17734010498102276
13.948883928571428,0.32000798432793426
13.982254464285713,0.4775142236883108
14.015625,0.6170740638386077
14.048995535714285,0.7012314729288778
14.082366071428572,0.7029489796329994
14.115736607142857,0.6176005442915852
14.149107142857142,0.46591019444682574
14.182477678571429,0.2860947134904879
14.215848214285714,0.11870884070019119
14.249218749999999,-0.00876671677446559
14.282589285714286,-0.09051606253699879
14.31595982142857,-0.14051861444861022
14.349330357142858,-0.18171493111859682
14.382700892857143,-0.23195725846400542
14.416071428571428,-0.2938105347003007
14.449441964285715,-0.35310271910334207
14.4828125,-0.38664125068367844
14.516183035714285,-0.3749626299443165
14.549553571428572,-0.3135705570111269
14.582924107142857,-0.21695805007635857
14.616294642857143,-0.11332747774365949
14.649665178571428,-0.032525499270714686
14.683035714285714,0.006944079594390361
14.71640625,0.005500188122995169
14.749776785714285,-0.01902484175703666
14.78314732142857,-0.04118032333956118
14.816517857142857,-0.041047348049560686
14.849888392857142,-0.014113610824394973
14.88325892857143,0.027125460523074792
14.916629464285714,0.060646657054833956
14.95,0.06763033576346747
14.983370535714286,0.043897825561650894
15.016741071428571,0.0040814831252418545
15.050111607142856,-0.023908430120846598
15.083482142857143,-0.011811465583021447
15.116852678571428,0.054661370348679794
15.150223214285713,0.16703182359904267
15.18359375,0.2953658798065297
15.216964285714285,0.39963222788295344
15.250334821428572,0.4461766756989441
15.283705357142857,0.4216538883691581
15.317075892857142,0.3377159382255235
15.350446428571429,0.22418543804011964
15.383816964285714,0.11424129442265472
15.417187499999999,0.029279130503011327
15.450558035714286,-0.028773599023174213
15.48392857142857,-0.07404655640508848
15.517299107142858,-0.12479061925861233
15.550669642857143,-0.19027691257149557
15.584040178571428,-0.2644354511792256
15.617410714285715,-0.3300147708006138
15.65078125,-0.37059263147918614
15.684151785714285,-0.38280104452867286
15.717522321428572,-0.3806813406885231
15.750892857142857,-0.3885526857089159
15.784263392857143,-0.42562107844802927
15.817633928571428,-0.49079390378653054
15.851004464285714,-0.5567304629683105
15.884375,-0.5776567078186117
15.917745535714285,-0.5083302111362216
15.95111607142857,-0.3255857705838772
15.984486607142857,-0.04224901369872226
16.017857142857142,0.2933341867581289
16.05122767857143,0.612230215624045
16.084598214285712,0.8479577715486728
16.11796875,0.9581656878671452
16.151339285714286,0.936762166900684
16.18470982142857,0.8127945975228515
16.218080357142856,0.637651048885121
16.251450892857143,0.4660545927619519
16.28482142857143,0.3378139915149083
16.318191964285713,0.26641745703601083
16.3515625,0.23791233116139024
16.384933035714287,0.2199024627404126
16.41830357142857,0.17689442326488902
16.451674107142857,0.08582345261692363
16.485044642857144,-0.054514385273017295
16.518415178571427,-0.2238513360332601
16.551785714285714,-0.3900694016709525
16.58515625,-0.5233012904187643
16.618526785714284,-0.6077961685808795
16.65189732142857,-0.646130022279538
16.685267857142858,-0.6543055208696681
16.71863839285714,-0.6509181394694336
16.752008928571428,-0.6464503591096482
16.785379464285715,-0.6383633159043434
16.81875,-0.6142155777451143
16.852120535714285,-0.5604719028039183
16.88549107142857,-0.4715378614657266
16.91886160714286,-0.3536286647822824
16.95223214285714,-0.22128084723183647
16.98560267857143,-0.0887693557582606
17.018973214285715,0.03819141486558445
17.05234375,0.16511613724366295
17.085714285714285,0.3036298443607731
17.119084821428572,0.4609919853359916
17.152455357142856,0.6301432839046672
17.185825892857142,0.7865185806142629
17.21919642857143,0.8947801025774325
17.252566964285712,0.9235090949466144
17.2859375,0.8613154318633818
17.319308035714286,0.7262570669216108
17.35267857142857,0.562970645885857
17.386049107142856,0.42745675304556335
17.419419642857143,0.3653184448436402
17.45279017857143,0.3924901215996906
17.486160714285713,0.4865873969605852
17.51953125,0.5925538200909405
17.552901785714287,0.6404776245538432
17.58627232142857,0.5688620977211456
17.619642857142857,0.34501949615528893
17.653013392857144,-0.02401761289837111
17.686383928571427,-0.4926494571880707
