Frequency (Hz),Amplitude
0.0,1.8373927013186826
0.019867549668874173,1.8368347919321082
0.039735099337748346,1.8351622584027794
0.059602649006622516,1.8323786867516132
0.07947019867549669,1.8284900607955927
0.09933774834437085,1.8235047728780223
0.11920529801324503,1.8174336390039108
0.13907284768211922,1.8102899184910732
0.15894039735099338,1.8020893382754464
0.17880794701986755,1.7928501220335542
0.1986754966887417,1.782593024305397
0.2185430463576159,1.7713413698152645
0.23841059602649006,1.7591210981942171
0.2582781456953642,1.7459608143043788
0.27814569536423844,1.7318918443475957
0.2980132450331126,1.7169482979069806
0.31788079470198677,1.7011671360135683
0.33774834437086093,1.684588245246431
0.3576158940397351,1.6672545177563942
0.3774834437086093,1.6492119369417382
0.3973509933774834,1.6305096682898357
0.4172185430463576,1.6112001546189696
0.4370860927152318,1.591339214596764
0.45695364238410596,1.570986142960114
0.4768211920529801,1.5502038103001101
0.49668874172185434,1.5290587595867016
0.5165562913907285,1.5076212957753476
0.5364238410596026,1.4859655638468656
0.5562913907284769,1.4641696094725074
0.5761589403973509,1.442315415167598
0.5960264900662252,1.4204889033110366
0.6158940397350993,1.3987798957965203
0.6357615894039735,1.3772820184037577
0.6556291390728477,1.3560925363297314
0.6754966887417219,1.3353121058417785
0.695364238410596,1.315044425899458
0.7152317880794702,1.2953957730907681
0.7350993377483444,1.276474403644436
0.7549668874172186,1.2583898079575544
0.7748344370860927,1.2412518063722628
0.7947019867549668,1.2251694801628135
0.8145695364238411,1.210249939067247
0.8344370860927152,1.1965969362370372
0.8543046357615894,1.1843093529230437
0.8741721854304636,1.1734795879502244
0.8940397350993378,1.1641919000444354
0.9139072847682119,1.156520762986284
0.9337748344370861,1.1505293027633414
0.9536423841059603,1.1462678907327257
0.9735099337748344,1.1437729659212603
0.9933774834437087,1.1430661521928864
1.0132450331125828,1.144153722151042
1.033112582781457,1.1470264403234
1.0529801324503312,1.1516597952828194
1.0728476821192052,1.158014606384785
1.0927152317880795,1.166037968429057
1.1125827814569538,1.1756644791846322
1.1324503311258278,1.1868176820795358
1.1523178807947019,1.199411650267364
1.1721854304635762,1.21335263860877
1.1920529801324504,1.2285407359240645
1.2119205298013245,1.2448714597334987
1.2317880794701985,1.2622372479491728
1.2516556291390728,1.280528815033263
1.271523178807947,1.2996363526813444
1.2913907284768211,1.3194505661928162
1.3112582781456954,1.3398635468109084
1.3311258278145695,1.3607694872548317
1.3509933774834437,1.3820652524915809
1.370860927152318,1.4036508207437917
1.390728476821192,1.4254296111315579
1.410596026490066,1.4473087145562635
1.4304635761589404,1.4691990437910913
1.4503311258278146,1.4910154175396284
1.4701986754966887,1.5126765917003369
1.4900662251655628,1.5341052494119696
1.5099337748344372,1.5552279597855845
1.5298013245033113,1.5759751136391844
1.5496688741721854,1.5962808430949695
1.5695364238410596,1.6160829306041766
1.5894039735099337,1.6353227118394298
1.609271523178808,1.6539449759359033
1.6291390728476822,1.671897865760201
1.6490066225165563,1.6891327802236937
1.6688741721854303,1.7056042801187192
1.6887417218543048,1.7212699985245952
1.7086092715231789,1.7360905564888365
1.728476821192053,1.7500294844235487
1.7483443708609272,1.7630531494534116
1.7682119205298013,1.7751306887996312
1.7880794701986755,1.7862339491730195
1.8079470198675496,1.7963374320716532
1.8278145695364238,1.8054182448270495
1.847682119205298,1.8134560572121334
1.8675496688741722,1.8204330634099193
1.8874172185430464,1.82633394914019
1.9072847682119205,1.8311458637495586
1.9271523178807946,1.8348583970858088
1.9470198675496688,1.8374635609985959
1.9668874172185429,1.8389557753339454
1.9867549668874174,1.8393318583182583
2.0066225165562916,1.8385910212581573
2.0264900662251657,1.8367348675142248
2.0463576158940397,1.8337673957393217
2.066225165562914,1.8296950074049898
2.086092715231788,1.8245265186717337
2.1059602649006623,1.8182731766904134
2.1258278145695364,1.8109486804517896
2.1456953642384105,1.802569206328429
2.165562913907285,1.7931534384772243
2.185430463576159,1.7827226042897075
2.205298013245033,1.771300515090422
2.2251655629139075,1.7589136122879325
2.2450331125827816,1.7455910191769075
2.2649006622516556,1.7313645985692254
2.2847682119205297,1.716269016393723
2.3046357615894038,1.7003418113428421
2.324503311258278,1.6836234705541526
2.3443708609271523,1.66615751118808
2.364238410596027,1.6479905675916051
2.384105960264901,1.6291724835105408
2.403973509933775,1.6097564085182747
2.423841059602649,1.5897988974527915
2.443708609271523,1.5693600111806256
2.463576158940397,1.5485034164197191
2.4834437086092715,1.527296481635519
2.5033112582781456,1.5058103651597616
2.52317880794702,1.4841200906552812
2.543046357615894,1.4623046038543988
2.562913907284768,1.4404468031343238
2.5827814569536423,1.4186335349754304
2.6026490066225163,1.3969555437149614
2.622516556291391,1.3755073633246204
2.642384105960265,1.3543871373106717
2.662251655629139,1.3336963514094893
2.6821192052980134,1.3135394627357155
2.7019867549668874,1.2940234086955742
2.7218543046357615,1.2752569796187876
2.741721854304636,1.2573500410385159
2.76158940397351,1.24041259521213
2.781456953642384,1.2245536771287968
2.801324503311258,1.209880088073858
2.821192052980132,1.1964949797861988
2.8410596026490067,1.1844963140270115
2.8609271523178808,1.1739752352805706
2.8807947019867552,1.1650144072383846
2.9006622516556293,1.1576863752389432
2.9205298013245033,1.1520520253027808
2.9403973509933774,1.1481592142036892
2.9602649006622515,1.1460416428728293
2.9801324503311255,1.145718036703715
3.0,1.147191681249584
3.0198675496688745,1.1504503415745813
3.0397350993377485,1.1554665701726712
3.0596026490066226,1.162198384472888
3.0794701986754967,1.1705902731708477
3.0993377483443707,1.1805744732629992
3.119205298013245,1.1920724482721663
3.1390728476821192,1.2049964933654673
3.1589403973509933,1.2192513945732646
3.1788079470198674,1.234736076065933
3.198675496688742,1.2513451799190574
3.218543046357616,1.2689705353338037
3.23841059602649,1.2875024873343994
3.2582781456953644,1.306831067297289
3.2781456953642385,1.3268469984200093
3.2980132450331126,1.3474425379436121
3.3178807947019866,1.3685121644608873
3.3377483443708607,1.3899531230810798
3.3576158940397347,1.411665843842389
3.3774834437086096,1.4335542499052176
3.3973509933774837,1.4555259720776035
3.4172185430463577,1.4774924854498337
3.437086092715232,1.4993691826321958
3.456953642384106,1.5210753965256443
3.47682119205298,1.5425343838817513
3.4966887417218544,1.56367327924775
3.5165562913907285,1.5844230273249338
3.5364238410596025,1.60471830034164
3.556291390728477,1.6244974057790846
3.576158940397351,1.643702188695465
3.596026490066225,1.6622779319660108
3.615894039735099,1.680173256982085
3.6357615894039736,1.6973400267151697
3.6556291390728477,1.7137332525351388
3.6754966887417218,1.7293110057585837
3.695364238410596,1.744034334577561
3.7152317880794703,1.7578671867658877
3.7350993377483444,1.7707763383675656
3.754966887417219,1.782731328428031
3.774834437086093,1.7937043997248558
3.794701986754967,1.8036704453822174
3.814569536423841,1.8126069612062312
3.834437086092715,1.8204940035510075
3.854304635761589,1.827314152513873
3.8741721854304636,1.8330524802582153
3.8940397350993377,1.8376965242725338
3.9139072847682117,1.8412362653906862
3.9337748344370858,1.8436641104207707
3.9536423841059607,1.8449748792557676
3.9735099337748347,1.845165796368324
3.993377483443709,1.8442364866225858
4.013245033112583,1.8421889753682898
4.033112582781457,1.8390276928149771
4.052980132450331,1.8347594827170495
4.072847682119205,1.8293936154325119
4.0927152317880795,1.8229418054496933
4.112582781456953,1.8154182335053997
4.132450331125828,1.8068395734447624
4.152317880794702,1.7972250239961
4.172185430463576,1.7865963456521097
4.19205298013245,1.7749779028600317
4.211920529801325,1.762396711725813
4.231788079470199,1.7488824934284326
4.251655629139073,1.7344677335165126
4.271523178807947,1.7191877472165111
4.291390728476821,1.7030807508146701
4.311258278145695,1.686187939077236
4.33112582781457,1.6685535685378674
4.3509933774834435,1.6502250462980794
4.370860927152318,1.6312530237456138
4.390728476821192,1.6116914942841736
4.410596026490066,1.5915978937712647
4.43046357615894,1.5710332018643114
4.450331125827815,1.550062041860106
4.470198675496689,1.5287527758635568
4.490066225165563,1.5071775912211947
4.509933774834438,1.4854125730904846
4.529801324503311,1.4635377567809296
4.549668874172186,1.4416371521005387
4.569536423841059,1.4197987303912092
4.589403973509934,1.3981143632809097
4.6092715231788075,1.3766797004929283
4.629139072847682,1.3555939724460826
4.649006622516556,1.3349597020166593
4.66887417218543,1.3148823089301185
4.688741721854305,1.295469590082778
4.708609271523179,1.2768310599840436
4.728476821192054,1.2590771378134333
4.748344370860927,1.2423181716505607
4.768211920529802,1.2266632965456246
4.788079470198675,1.2122191313971469
4.80794701986755,1.1990883300105974
4.827814569536423,1.1873680138263145
4.847682119205298,1.1771481268494943
4.867549668874172,1.1685097661160653
4.887417218543046,1.161523552088102
4.9072847682119205,1.1562481110275
4.927152317880794,1.1527287440750627
4.947019867549669,1.1509963542883637
4.966887417218543,1.1510666927916051
4.986754966887418,1.1529399688961035
5.006622516556291,1.1566008479465928
5.026490066225166,1.1620188369157274
5.04635761589404,1.1691490340388015
5.066225165562914,1.177933197683194
5.086092715231788,1.1883010733602801
5.105960264900662,1.200171907693238
5.125827814569536,1.2134560746828431
5.14569536423841,1.2280567422876563
5.1655629139072845,1.2438715149800337
5.185430463576159,1.260793998983863
5.205298013245033,1.2787152496821825
5.225165562913908,1.297525073707149
5.245033112582782,1.3171131703212253
5.264900662251656,1.337370107089294
5.28476821192053,1.3581881331290644
5.304635761589404,1.379461839328837
5.324503311258278,1.401088678982514
5.344370860927152,1.422969364595356
5.364238410596027,1.4450081575076497
5.3841059602649,1.467113066820097
5.403973509933775,1.489195973208221
5.4238410596026485,1.5111726918563213
5.443708609271523,1.5329629871415444
5.463576158940397,1.5544905500169253
5.483443708609272,1.5756829473921783
5.503311258278146,1.5964715512656116
5.52317880794702,1.6167914539620591
5.543046357615895,1.6365813746000444
5.562913907284768,1.6557835608493896
5.582781456953643,1.6743436891423586
5.602649006622516,1.6922107657533902
5.622516556291391,1.7093370305490272
5.642384105960264,1.725677864713424
5.662251655629139,1.7411917033589759
5.682119205298013,1.7558399536204037
5.701986754966887,1.7695869185897444
5.7218543046357615,1.7823997272669407
5.741721854304636,1.7942482705649048
5.7615894039735105,1.8051051433103524
5.781456953642384,1.8149455921145186
5.801324503311259,1.823747468944748
5.821192052980132,1.8314911902041424
5.841059602649007,1.8381597011172002
5.860927152317881,1.8437384452218528
5.880794701986755,1.848215338779523
5.900662251655629,1.8515807499328238
5.920529801324503,1.853827482463568
5.940397350993377,1.854950764030447
5.960264900662251,1.8549482387952312
5.980132450331126,1.8538199643775073
6.0,1.8515684131104104
6.0198675496688745,1.8481984776026508
6.039735099337749,1.8437174806450018
6.059602649006623,1.838135189531582
6.079470198675497,1.831463834897244
6.099337748344371,1.8237181342014217
6.119205298013245,1.8149153200146915
6.139072847682119,1.8050751732867336
6.158940397350993,1.7942200617907331
6.178807947019867,1.7823749839491627
6.198675496688741,1.7695676182457467
6.218543046357616,1.7558283784164728
6.23841059602649,1.7411904745845417
6.258278145695365,1.7256899804560288
6.2781456953642385,1.7093659066194442
6.298013245033113,1.6922602798863011
6.317880794701987,1.674418228463949
6.337748344370861,1.6558880725558391
6.357615894039735,1.6367214197279207
6.377483443708609,1.6169732640490606
6.397350993377484,1.596702087594158
6.417218543046357,1.5759699623748586
6.437086092715232,1.5548426501166166
6.456953642384105,1.5333896965162066
6.47682119205298,1.5116845156738337
6.496688741721854,1.4898044592877628
6.516556291390729,1.4678308639210178
6.5364238410596025,1.445849068206737
6.556291390728477,1.4239483902744092
6.5761589403973515,1.4022220540023471
6.596026490066225,1.3807670510142536
6.6158940397351,1.3596839237629677
6.635761589403973,1.339076453757058
6.655629139072848,1.3190512382163477
6.675496688741721,1.2997171384772386
6.695364238410596,1.2811845846423076
6.715231788079469,1.263564723638178
6.735099337748344,1.2469684023518075
6.754966887417219,1.2315049841198802
6.774834437086093,1.2172810056522065
6.794701986754967,1.204398692333214
6.814569536423841,1.192954362286254
6.8344370860927155,1.1830367627366902
6.854304635761589,1.1747253948150989
6.874172185430464,1.1680888934477414
6.894039735099337,1.1631835357143203
6.913907284768212,1.1600519524963102
6.933774834437086,1.1587221133417027
6.95364238410596,1.1592066429400618
6.973509933774834,1.1615025100763974
6.993377483443709,1.1655911079924843
7.013245033112583,1.1714387210454917
7.033112582781457,1.178997349093849
7.052980132450331,1.1882058407350486
7.072847682119205,1.1989912714066409
7.0927152317880795,1.2112704936298329
7.112582781456954,1.2249517845537325
7.132450331125828,1.2399365198005194
7.152317880794702,1.2561208111302937
7.172185430463576,1.2733970570204056
7.19205298013245,1.2916553682395764
7.211920529801324,1.3107848434507638
7.231788079470198,1.3306746817053787
7.251655629139073,1.3512151286984246
7.271523178807947,1.3722982615123276
7.291390728476822,1.3938186222586224
7.311258278145695,1.4156737147121154
7.33112582781457,1.4377643800245097
7.3509933774834435,1.4599950682569605
7.370860927152318,1.4822740221333244
7.390728476821192,1.504513388403527
7.410596026490066,1.5266292707814029
7.430463576158941,1.5485417367895675
7.450331125827814,1.5701747891566395
7.470198675496689,1.5914563107742932
7.490066225165562,1.6123179906991898
7.509933774834438,1.632695237315268
7.52980132450331,1.6525270835711208
7.549668874172186,1.6717560881758493
7.569536423841059,1.6903282357673275
7.589403973509934,1.7081928383449436
7.6092715231788075,1.725302439668278
7.629139072847682,1.7416127238468821
7.649006622516557,1.7570824289671534
7.66887417218543,1.7716732663052386
7.6887417218543055,1.7853498454456798
7.708609271523178,1.7980796054521306
7.728476821192054,1.8098327521085638
7.748344370860927,1.8205822011578205
7.768211920529802,1.830303527402303
7.788079470198675,1.8389749194924279
7.80794701986755,1.8465771402076216
7.827814569536423,1.853093492028077
7.847682119205298,1.858509787799693
7.8675496688741715,1.8628143263074943
7.887417218543046,1.8659978725919655
7.907284768211921,1.8680536428666439
7.927152317880795,1.8689772939228373
7.9470198675496695,1.868766916937257
7.966887417218543,1.8674230356299921
7.986754966887418,1.864948608753077
8.006622516556291,1.8613490369225876
8.026490066225167,1.8566321738405849
8.046357615894038,1.8508083419848027
8.066225165562914,1.843890352875101
8.086092715231787,1.835893532053953
8.105960264900663,1.826835748943666
8.125827814569536,1.8167374517640933
8.14569536423841,1.805621707709717
8.165562913907285,1.793514248592678
8.185430463576159,1.780443522155385
8.205298013245034,1.7664407492409744
8.225165562913906,1.751539986976958
8.245033112582782,1.7357781980734883
8.264900662251655,1.7191953262561837
8.28476821192053,1.7018343777379137
8.304635761589404,1.6837415084757663
8.324503311258278,1.664966116748809
8.344370860927151,1.6455609403172315
8.364238410596027,1.625582157070884
8.3841059602649,1.6050894876298882
8.403973509933774,1.5841462978052048
8.42384105960265,1.5628196981455604
8.443708609271523,1.5411806369722985
8.463576158940398,1.5193039823195056
8.483443708609272,1.4972685870437723
8.503311258278146,1.4751573300424516
8.52317880794702,1.4530571250322561
8.543046357615895,1.4310588867204883
8.562913907284768,1.4092574425050632
8.582781456953642,1.387751376158036
8.602649006622515,1.3666427884163777
8.62251655629139,1.3460369582108507
8.642384105960264,1.3260418876545705
8.66225165562914,1.3067677141868377
8.682119205298013,1.2883259747691282
8.701986754966887,1.2708287101171274
8.721854304635762,1.2543874019553511
8.741721854304636,1.2391117434312384
8.76158940397351,1.2251082521781869
8.781456953642383,1.2124787468538547
8.801324503311259,1.2013187207339806
8.821192052980132,1.1917156591480669
8.841059602649008,1.1837473598624655
8.86092715231788,1.177480325340877
8.880794701986755,1.1729683014750256
8.90066225165563,1.170251037436223
8.920529801324504,1.1693533348504181
8.940397350993377,1.170284441454157
8.960264900662251,1.1730378256122271
8.980132450331126,1.1775913453462272
9.0,1.1839078012790982
9.019867549668875,1.1919358398478146
9.039735099337747,1.201611153770271
9.059602649006623,1.2128579129453951
9.079470198675496,1.2255903516958413
9.099337748344372,1.239714437549874
9.119205298013245,1.2551295517866445
9.139072847682119,1.2717301213444474
9.158940397350994,1.2894071537613492
9.178807947019868,1.3080496399578858
9.198675496688743,1.3275458025055404
9.218543046357615,1.3477841785437095
9.23841059602649,1.3686545360976108
9.258278145695364,1.3900486299563375
9.27814569536424,1.4118608085180706
9.298013245033111,1.4339884863138266
9.317880794701987,1.4563324986016477
9.33774834437086,1.478797354837004
9.357615894039736,1.5012914073174757
9.37748344370861,1.523726950176251
9.397350993377483,1.546020262410197
9.417218543046358,1.5680916069686064
9.437086092715232,1.589865196239265
9.456953642384107,1.611269132645142
9.47682119205298,1.6322353315676432
9.496688741721854,1.6526994324727424
9.516556291390728,1.6726007029472942
9.536423841059603,1.6918819393527487
9.556291390728477,1.7104893669627173
9.57615894039735,1.7283725417552687
9.596026490066224,1.7454842554631287
9.6158940397351,1.7617804450281287
9.635761589403973,1.7772201072440192
9.655629139072847,1.7917652190883717
9.675496688741722,1.8053806640266417
9.695364238410596,1.818034164407538
9.715231788079471,1.8296962199482556
9.735099337748345,1.8403400522230282
9.754966887417218,1.8499415550110776
9.774834437086092,1.8584792503247274
9.794701986754967,1.8659342499208593
9.814569536423841,1.8722902220945858
9.834437086092716,1.8775333635603315
9.854304635761588,1.8816523762396569
9.874172185430464,1.8846384487957408
9.894039735099337,1.886485242779129
9.913907284768213,1.8871888832776784
9.933774834437086,1.8867479539940386
9.95364238410596,1.8851634967063131
9.973509933774835,1.8824390151001675
9.993377483443709,1.878580482994255
10.013245033112582,1.8735963570133256
10.033112582781456,1.8674975937957459
10.052980132450331,1.8602976718521436
10.072847682119205,1.8520126182201044
10.09271523178808,1.8426610400840664
10.112582781456952,1.832264161549426
10.132450331125828,1.8208458657731137
10.152317880794701,1.8084327426579907
10.172185430463577,1.79505414231245
10.192052980132452,1.7807422344564763
10.211920529801324,1.7655320739171065
10.2317880794702,1.7494616722950282
10.251655629139073,1.7325720757933007
10.271523178807948,1.7149074490721214
10.29139072847682,1.6965151648212276
10.311258278145695,1.6774458985129526
10.331125827814569,1.657753727502742
10.350993377483444,1.637496233265403
10.370860927152318,1.6167346050793743
10.390728476821192,1.5955337428805234
10.410596026490065,1.5739623562845917
10.43046357615894,1.552093055905941
10.450331125827816,1.5300024320660823
10.470198675496688,1.5077711147792925
10.490066225165563,1.4854838075251442
10.509933774834437,1.4632292857832325
10.529801324503312,1.44110034965014
10.549668874172186,1.4191937181469407
10.56953642384106,1.3976098511601123
10.589403973509933,1.3764526834889568
10.609271523178808,1.3558292544017636
10.629139072847682,1.3358492156924773
10.649006622516556,1.3166242017931926
10.66887417218543,1.2982670473882092
10.688741721854305,1.2808908415496567
10.70860927152318,1.2646078129853056
