Time (s),Filtered Signal
0.0,-0.012728652268078774
0.033370165745856356,-0.05647966686201279
0.06674033149171271,-0.1085957482830801
0.10011049723756907,-0.17186446669697283
0.13348066298342542,-0.24044318201936485
0.16685082872928178,-0.30226453745342946
0.20022099447513814,-0.3447048732365069
0.2335911602209945,-0.36007240487388825
0.26696132596685085,-0.3479464002296601
0.30033149171270723,-0.31361054561043433
0.33370165745856356,-0.2641861148258901
0.3670718232044199,-0.2051058991578778
0.4004419889502763,-0.1388616188569544
0.43381215469613266,-0.06624206158074572
0.467182320441989,0.011232976391549826
0.5005524861878453,0.08944465589787884
0.5339226519337017,0.16151224373788026
0.5672928176795581,0.21936119862828712
0.6006629834254145,0.2561719959512694
0.6340331491712707,0.26861149497671405
0.6674033149171271,0.2580440275993202
0.7007734806629835,0.230407945788714
0.7341436464088398,0.19483594662876177
0.7675138121546962,0.16134127154145686
0.8008839779005525,0.1380933258403379
0.8342541436464089,0.12902057772987122
0.8676243093922653,0.1325813437899986
0.9009944751381216,0.14231345029512996
0.934364640883978,0.1491290700316507
0.9677348066298344,0.14449660448476442
1.0011049723756906,0.12313356609170983
1.0344751381215471,0.0840371635323884
1.0678453038674034,0.029590673455498158
1.1012154696132597,-0.036414018169346134
1.1345856353591162,-0.11041356573093747
1.1679558011049724,-0.1892820433978975
1.201325966850829,-0.2690720217963881
1.2346961325966852,-0.34332876858399486
1.2680662983425415,-0.4024425984712376
1.301436464088398,-0.435014538636513
1.3348066298342542,-0.431100263141077
1.3681767955801105,-0.3860897571848419
1.401546961325967,-0.30346110138951926
1.4349171270718233,-0.19497756325025634
1.4682872928176796,-0.0779266622227575
1.501657458563536,0.02973134080679771
1.5350276243093923,0.11448570849348792
1.5683977900552488,0.1706440489540276
1.601767955801105,0.20060562832209827
1.6351381215469614,0.21202592949316387
1.6685082872928179,0.2132631531502325
1.7018784530386741,0.20929444236604794
1.7352486187845306,0.20003101159527648
1.768618784530387,0.18171765388867128
1.8019889502762432,0.15048999244221667
1.8353591160220997,0.10604457347895879
1.868729281767956,0.05337508264831194
1.9020994475138122,0.0016432444986991378
1.9354696132596687,-0.03915894910422599
1.968839779005525,-0.06194847457304446
2.0022099447513813,-0.0647969741157874
2.0355801104972375,-0.0507389195466186
2.0689502762430942,-0.025569424273152883
2.1023204419889505,0.004951765996969376
2.135690607734807,0.03697335778725011
2.169060773480663,0.0687342482905659
2.2024309392265193,0.09937406101894916
2.235801104972376,0.12746700760954832
2.2691712707182323,0.15040437793800082
2.3025414364640886,0.16506626428258275
2.335911602209945,0.16928530147157422
2.369281767955801,0.1630341236695436
2.402651933701658,0.14845366940083732
2.436022099447514,0.12867063165093592
2.4693922651933704,0.10625325247825515
2.5027624309392267,0.08244513385198249
2.536132596685083,0.05770133661113055
2.5695027624309392,0.03290415532269366
2.602872928176796,0.00982691825735688
2.636243093922652,-0.010285988496650706
2.6696132596685085,-0.02970320973599647
2.7029834254143648,-0.05670301706213941
2.736353591160221,-0.10483213463383645
2.7697237569060777,-0.18738784404152314
2.803093922651934,-0.30842089694918395
2.8364640883977903,-0.454518226240088
2.8698342541436466,-0.5927478515622719
2.903204419889503,-0.6782030495368111
2.936574585635359,-0.6700133676686713
2.969944751381216,-0.5496707376755454
3.003314917127072,-0.332940956215577
3.0366850828729284,-0.06846040793494845
3.0700552486187846,0.17797982207787183
3.103425414364641,0.34730884332447126
3.1367955801104976,0.40858951651364495
3.170165745856354,0.3682869560637996
3.20353591160221,0.26373290152920453
3.2369060773480665,0.14491840591973737
3.2702762430939227,0.053977729559618985
3.3036464088397794,0.011718482022560582
3.3370165745856357,0.015807875042979664
3.370386740331492,0.04887117153063035
3.4037569060773483,0.09042820581640804
3.4371270718232045,0.12622212062226554
3.4704972375690613,0.15145384868080083
3.5038674033149175,0.16838773163771434
3.537237569060774,0.18142176167779223
3.57060773480663,0.1930329452801942
3.6039779005524863,0.20250930441006904
3.6373480662983426,0.20731791236775488
3.6707182320441993,0.20549619269446415
3.7040883977900556,0.19718300263805827
3.737458563535912,0.18425326924632723
3.770828729281768,0.1683914865795728
3.8041988950276244,0.14902293880314468
3.837569060773481,0.12268562731443339
3.8709392265193374,0.08456461184235849
3.9043093922651937,0.03152750934504587
3.93767955801105,-0.03506121046199859
3.9710497237569062,-0.1085217456877472
4.0044198895027625,-0.17875829356378628
4.037790055248619,-0.23603238937911072
4.071160220994475,-0.2746344284527039
4.104530386740332,-0.29449390694947014
4.1379005524861885,-0.2999443498752045
4.171270718232044,-0.2964784029944957
4.204640883977901,-0.2874116693446853
4.238011049723757,-0.2722995219306624
4.271381215469614,-0.24782381782606056
4.30475138121547,-0.21040862611964242
4.338121546961326,-0.1589061930453
4.371491712707183,-0.09581409443028502
4.404861878453039,-0.02649442641405429
4.438232044198895,0.04291009288449861
4.471602209944752,0.10749754671401691
4.504972375690608,0.16444433773129313
4.538342541436465,0.21243156434215588
4.5717127071823205,0.2503185445873084
4.605082872928177,0.2760514855024328
4.638453038674034,0.28649215598949745
4.67182320441989,0.27824885281705336
4.7051933701657465,0.24908906701988337
4.738563535911602,0.19930273986816088
4.771933701657459,0.13244617110803147
4.805303867403316,0.055139268754213495
4.8386740331491715,-0.024063798698595
4.872044198895028,-0.09635587585475744
4.905414364640884,-0.15432872861817665
4.938784530386741,-0.19309540136291073
4.972154696132597,-0.21072896392005
5.005524861878453,-0.20823281708029467
5.03889502762431,-0.18934417622918914
5.072265193370166,-0.1601897448355297
5.105635359116023,-0.12844099070963358
5.1390055248618784,-0.10161056915566155
5.172375690607735,-0.08469728084427393
5.205745856353592,-0.0781989481380585
5.239116022099448,-0.07787366329668384
5.272486187845304,-0.07700704507001468
5.30585635359116,-0.07047421698498027
5.339226519337017,-0.05843453325827661
5.372596685082874,-0.047149872671398405
5.4059668508287295,-0.045712428476399565
5.439337016574586,-0.05989449611122112
5.472707182320442,-0.08648945672013808
5.506077348066299,-0.11190742975604506
5.5394475138121555,-0.1168162783529956
5.572817679558011,-0.08510502041931012
5.606187845303868,-0.012363477937312272
5.639558011049724,0.09151121860168501
5.672928176795581,0.2081733194772301
5.706298342541437,0.3226669201213118
5.739668508287293,0.434201416260036
5.77303867403315,0.55787244321026
5.806408839779006,0.7134560839540508
5.839779005524862,0.9051053697522481
5.873149171270718,1.1029216689736936
5.906519337016575,1.2392576520860883
5.939889502762432,1.2268824357790349
5.9732596685082875,0.9947875482278554
6.006629834254144,0.526311848550483
6.04,-0.11986546473208404
6.073370165745857,-0.8190383432053395
6.1067403314917135,-1.4190644694242287
6.140110497237569,-1.7925376880728108
6.173480662983426,-1.8798626459316512
6.206850828729282,-1.7050613692930547
6.240220994475139,-1.3593623688151055
6.273591160220995,-0.9621659721053973
6.306961325966851,-0.6174962410891419
6.340331491712708,-0.38328220985172406
6.373701657458564,-0.26266897557742985
6.40707182320442,-0.2161489968376819
6.440441988950277,-0.18567331869526502
6.473812154696133,-0.11958883366010388
6.50718232044199,0.010252362509700233
6.5405524861878455,0.20295377939403048
6.573922651933702,0.4336073718469311
6.607292817679559,0.6648900722906084
6.640662983425415,0.8602382362509512
6.674033149171271,0.9942126304393009
6.707403314917127,1.0572487304350742
6.740773480662984,1.0541013478603452
6.774143646408841,0.9975100469380092
6.8075138121546965,0.9003342354207989
6.840883977900553,0.7699344486666053
6.874254143646409,0.6074803599041436
6.907624309392266,0.41240387970395814
6.9409944751381225,0.18943430300895298
6.974364640883978,-0.04600998416167472
7.007734806629835,-0.26778129574389226
7.041104972375691,-0.445357294744752
7.074475138121548,-0.5541210763503904
7.107845303867403,-0.5846935085112558
7.14121546961326,-0.5466265787958906
7.174585635359117,-0.46455281540744386
7.207955801104973,-0.3687267728682196
7.241325966850829,-0.2845923591359927
7.274696132596685,-0.22608703933827556
7.308066298342542,-0.1949806566274677
7.341436464088399,-0.18520991362890393
7.3748066298342545,-0.18886287165026
7.408176795580111,-0.20033769591986914
7.441546961325967,-0.21699936194831526
7.474917127071824,-0.23705633206687324
7.5082872928176805,-0.25688526730970995
7.541657458563536,-0.26991042824449546
7.575027624309393,-0.2677626104017175
7.608397790055249,-0.2428854673927574
7.641767955801106,-0.1910355080705584
7.675138121546962,-0.11253129491524852
7.708508287292818,-0.012139976286834511
7.741878453038675,0.10170821694324274
7.775248618784531,0.21767478290421433
7.808618784530387,0.3222028923889512
7.841988950276244,0.4008024437262447
7.8753591160221,0.4406250305878107
7.908729281767957,0.4342134061127507
7.9420994475138125,0.3831369147890688
7.975469613259669,0.29953363967462815
8.008839779005525,0.2040094104086408
8.042209944751383,0.11986293987090446
8.075580110497238,0.065474289684619
8.108950276243094,0.0478792716794574
8.14232044198895,0.06034948032084735
8.175690607734808,0.08523357276748783
8.209060773480664,0.10110644597195499
8.24243093922652,0.09141671431055072
8.275801104972377,0.05112317625612913
8.309171270718233,-0.011425985123836494
8.342541436464089,-0.07816806805308624
8.375911602209946,-0.1289892743525653
8.409281767955802,-0.15005563543821218
8.442651933701658,-0.13918613078025777
8.476022099447514,-0.10600593438140113
8.509392265193371,-0.06703799551834387
8.542762430939227,-0.038193402323206574
8.576132596685083,-0.028184527000456455
8.60950276243094,-0.03574451383864062
8.642872928176796,-0.051598195212342914
8.676243093922652,-0.06390057505690486
8.709613259668508,-0.06439472148074495
8.742983425414366,-0.052435100738694
8.776353591160222,-0.03518921560590977
8.809723756906077,-0.024130214771162374
8.843093922651935,-0.029528551826258912
8.87646408839779,-0.055397970887998936
8.909834254143647,-0.09704227038950046
8.943204419889504,-0.1422177113146693
8.97657458563536,-0.1754668682164432
9.009944751381216,-0.1839327735824429
9.043314917127072,-0.16236120488797476
9.07668508287293,-0.11527860443892432
9.110055248618785,-0.055438484011625815
9.143425414364641,0.0008411679431873248
9.176795580110499,0.0395290469139241
9.210165745856354,0.053552715451008835
9.24353591160221,0.04455323851924117
9.276906077348068,0.021352245687503314
9.310276243093924,-0.0038508366797205254
9.34364640883978,-0.019802819052077644
9.377016574585635,-0.019463091558580337
9.410386740331493,-0.0014234570993344156
9.443756906077349,0.030454989735163144
9.477127071823205,0.06865672992279301
9.510497237569062,0.10433433089373388
9.543867403314918,0.1299550469292798
9.577237569060774,0.14187274664682864
9.610607734806631,0.14214651887631444
9.643977900552487,0.13866732014044025
9.677348066298343,0.14285736266718266
9.710718232044199,0.16508101572752548
9.744088397790057,0.2091593417554266
9.777458563535912,0.2683190150787629
9.810828729281768,0.32484851410120247
9.844198895027626,0.35446915220729763
9.877569060773482,0.3344120544291548
9.910939226519337,0.252353277873665
9.944309392265193,0.11262832058625985
9.97767955801105,-0.06302686597276906
10.011049723756907,-0.24086241080653778
10.044419889502763,-0.3848256283150196
10.07779005524862,-0.4670969057023134
10.111160220994476,-0.4757660489778477
10.144530386740332,-0.4172770067704185
10.17790055248619,-0.3133378641143783
10.211270718232045,-0.19383239355126738
10.244640883977901,-0.08821667400613853
10.278011049723757,-0.017864127477117245
10.311381215469615,0.00881340708385462
10.34475138121547,-0.002515412124782086
10.378121546961326,-0.03487477198393227
10.411491712707184,-0.06592410255296485
10.44486187845304,-0.07550353361060644
10.478232044198895,-0.05258342675552348
10.511602209944753,0.000670531688682456
10.544972375690609,0.0693078715852886
10.578342541436465,0.13065665245424316
10.61171270718232,0.1625221453640543
10.645082872928178,0.15167985976499518
10.678453038674034,0.099463866422711
10.71182320441989,0.022124934807265097
10.745193370165747,-0.05448405390729552
10.778563535911603,-0.10412128353662353
10.811933701657459,-0.10983113580229113
10.845303867403315,-0.07027590745054187
10.878674033149172,-0.00010474258747453622
10.912044198895028,0.07589902253911657
10.945414364640884,0.13255041060846665
10.978784530386742,0.1538347943601294
11.012154696132598,0.1383156684878041
11.045524861878453,0.09821697957460919
11.078895027624311,0.052855662674559
11.112265193370167,0.019595596706531833
11.145635359116023,0.0064638599690596136
11.179005524861878,0.009596334503644765
11.212375690607736,0.016311155482873076
11.245745856353592,0.012038254001584946
11.279116022099448,-0.012241686110822521
11.312486187845305,-0.055358117166828834
11.345856353591161,-0.1059561586101921
11.379226519337017,-0.14688997481589924
11.412596685082875,-0.1619629830941056
11.44596685082873,-0.1421965438255683
11.479337016574586,-0.08922170083411791
11.512707182320442,-0.014675646493764048
11.5460773480663,0.0639567686078028
11.579447513812156,0.12938006956673398
11.612817679558011,0.17017828140887228
11.646187845303869,0.18415012039133127
11.679558011049725,0.17813229289613933
11.71292817679558,0.16438206832814092
11.746298342541436,0.15485176364260816
11.779668508287294,0.1555728893050244
11.81303867403315,0.16349020977700549
11.846408839779006,0.1672629101449573
11.879779005524863,0.15197883969287446
11.91314917127072,0.10600773199440817
11.946519337016575,0.02713160860096331
11.979889502762433,-0.07478729488043995
12.013259668508288,-0.1799720253102482
12.046629834254144,-0.2650607488342833
12.08,-0.3111451113134329
12.113370165745858,-0.31033924124423085
12.146740331491714,-0.26833926723448936
12.18011049723757,-0.20209131405961364
12.213480662983427,-0.13360468359466282
12.246850828729283,-0.08233953418521715
12.280220994475139,-0.05898552520506805
12.313591160220996,-0.06278311153140138
12.346961325966852,-0.08313762226271887
12.380331491712708,-0.10465767986838583
12.413701657458564,-0.11348332211965938
12.447071823204421,-0.10233008174735694
12.480441988950277,-0.0722833519440321
12.513812154696133,-0.030849657185502963
12.54718232044199,0.012504313353955226
12.580552486187846,0.050949092687023294
12.613922651933702,0.0827118432923815
12.64729281767956,0.11028538268668542
12.680662983425416,0.13720939885659364
12.714033149171271,0.16452683811617957
12.747403314917127,0.1890927159111821
12.780773480662985,0.20472915391907312
12.81414364640884,0.20550754737476368
12.847513812154697,0.18920742006875213
12.880883977900554,0.15893727411273334
12.91425414364641,0.12198656918288908
12.947624309392266,0.08654279879339097
12.980994475138122,0.05805706083976755
13.01436464088398,0.03716064919082975
13.047734806629835,0.020110366890114736
13.081104972375691,0.0013375022838515221
13.114475138121549,-0.023394418537613103
13.147845303867404,-0.054868122251618176
13.18121546961326,-0.09018380279557996
13.214585635359118,-0.12410500053235993
13.247955801104974,-0.15086435704475698
13.28132596685083,-0.16536486011544188
13.314696132596685,-0.16347618384146156
13.348066298342543,-0.14198113531432663
13.381436464088399,-0.09902367494759877
13.414806629834255,-0.035435760995476955
13.448176795580112,0.043566856522118697
13.481546961325968,0.12748231260979143
13.514917127071824,0.2015119780825429
13.548287292817681,0.24973966851547924
13.581657458563537,0.25968166753804606
13.615027624309393,0.22654462786396595
13.648397790055249,0.15541207603148138
13.681767955801106,0.060300078350680714
13.715138121546962,-0.039715704795358464
13.748508287292818,-0.12587756660808627
13.781878453038676,-0.18461791532232222
13.815248618784532,-0.21025622343026623
13.848618784530387,-0.20492335998428848
13.881988950276245,-0.17633813570355206
13.9153591160221,-0.13479261394829037
13.948729281767957,-0.09061583832342959
13.982099447513813,-0.052651635058172754
14.01546961325967,-0.0274632357816315
14.048839779005526,-0.018647012180387425
14.082209944751382,-0.026002630655628727
14.11558011049724,-0.045029194354005764
14.148950276243095,-0.06764157705208745
14.182320441988951,-0.08463955620824447
14.215690607734807,-0.08939294236650613
14.249060773480664,-0.08109248104624214
14.28243093922652,-0.06560199178473267
14.315801104972376,-0.052870878130454275
14.349171270718234,-0.05168670488428251
14.38254143646409,-0.06425754437942095
14.415911602209945,-0.0836178488063786
14.449281767955803,-0.09566620754285612
14.482651933701659,-0.08526995416213737
14.516022099447515,-0.043582449006536926
14.54939226519337,0.02715125772413735
14.582762430939228,0.11388049999274592
14.616132596685084,0.19809887234145848
14.64950276243094,0.26358004848607974
14.682872928176797,0.3026023014041218
14.716243093922653,0.3176338282130976
14.749613259668509,0.3178891063858361
14.782983425414367,0.3128205002304443
14.816353591160222,0.30609260499290647
14.849723756906078,0.2932186950656672
14.883093922651934,0.2641117606355906
14.916464088397792,0.20931685205995795
14.949834254143648,0.12681372841524022
14.983204419889503,0.02584879446409587
15.016574585635361,-0.07450805977644269
15.049944751381217,-0.1519699378509637
15.083314917127073,-0.1901495469906993
15.116685082872928,-0.1860814737389273
15.150055248618786,-0.15247809980927715
15.183425414364642,-0.11327444611953863
15.216795580110498,-0.09404649130794207
15.250165745856355,-0.11129704462759758
15.283535911602211,-0.16525003824992548
15.316906077348067,-0.23936162256383517
15.350276243093925,-0.30687963608233726
15.38364640883978,-0.34173495068355947
15.417016574585636,-0.32916985372625873
15.450386740331492,-0.27163057933532964
15.48375690607735,-0.18752670775287056
15.517127071823205,-0.10356083593378572
15.550497237569061,-0.044045203563724725
15.583867403314919,-0.021719880349591103
15.617237569060775,-0.03364705843218555
15.65060773480663,-0.06336728546229828
15.683977900552488,-0.08790225660856174
15.717348066298344,-0.08654123635745128
15.7507182320442,-0.04815540124391855
15.784088397790056,0.02522425465609056
15.817458563535913,0.11933413544163202
15.85082872928177,0.21248580381824478
15.884198895027625,0.28262775326023726
15.917569060773483,0.31447569049445995
15.950939226519338,0.3044443242045694
15.984309392265194,0.2616308694680496
16.01767955801105,0.2042953532080305
16.051049723756908,0.1529391569478959
16.084419889502765,0.12258034928255218
16.11779005524862,0.11737346782533363
16.151160220994477,0.12985864512115503
16.18453038674033,0.14510357884321062
16.21790055248619,0.14775862941826112
16.251270718232046,0.12872250637199073
16.2846408839779,0.08842191871199762
16.318011049723758,0.035495013700952815
16.351381215469615,-0.018018967349467632
16.38475138121547,-0.06228169860605562
16.418121546961327,-0.09327593136192731
16.451491712707185,-0.11305016890039116
16.48486187845304,-0.12712868141422579
16.518232044198896,-0.1409739597165722
16.551602209944754,-0.1574598726532435
16.584972375690608,-0.17625795642433104
16.618342541436466,-0.1946762004843429
16.651712707182323,-0.20874554320678268
16.685082872928177,-0.2136607134597292
16.718453038674035,-0.20372717262865955
16.751823204419892,-0.17287928846259779
16.785193370165747,-0.11679316213917057
16.818563535911604,-0.036450104899587776
16.851933701657458,0.05858334995867021
16.885303867403316,0.149715308650047
16.918674033149173,0.21346620825492513
16.952044198895027,0.22960289297381098
16.985414364640885,0.190090837476219
17.018784530386743,0.10444544245245438
17.052154696132597,-0.001812781942423547
17.085524861878454,-0.09575181422613391
17.118895027624312,-0.14927273073345848
17.152265193370166,-0.14961612221961215
