Time (s),Filtered Signal
0.0,-0.002464231777687752
0.03337008452774715,1.4671604620015704
0.0667401690554943,2.660428731020483
0.10011025358324147,3.3892355936281446
0.1334803381109886,3.6044917732129695
0.16685042263873576,3.3925427205839283
0.20022050716648293,2.9240329681630093
0.23359059169423008,2.3820754330706206
0.2669606762219772,1.9012803866737795
0.30033076074972437,1.5390723876889134
0.3337008452774715,1.2830898774912316
0.36707092980521866,1.0827472007324543
0.40044101433296586,0.8858599912826687
0.433811098860713,0.6639656380952891
0.46718118338846015,0.4192077357837747
0.5005512679162073,0.17570608282038183
0.5339213524439544,-0.035701442091256655
0.5672914369717016,-0.19046724599533602
0.6006615214994487,-0.27663559249794795
0.6340316060271959,-0.2952349897915367
0.667401690554943,-0.25839400519527733
0.7007717750826902,-0.18813015933879088
0.7341418596104373,-0.11590096827450799
0.7675119441381845,-0.08049346218755761
0.8008820286659317,-0.12158467987755943
0.8342521131936789,-0.2685483939551007
0.867622197721426,-0.5274606095839033
0.9009922822491732,-0.871806437940794
0.9343623667769203,-1.2425507419473418
0.9677324513046675,-1.5604629296550667
1.0011025358324146,-1.748614798769183
1.0344726203601617,-1.7577458676330937
1.0678427048879089,-1.5843358781981092
1.101212789415656,-1.2728618095090511
1.1345828739434032,-0.8999941281846651
1.1679529584711503,-0.546805532477641
1.2013230429988975,-0.27102981789322883
1.2346931275266446,-0.0913894382940499
1.2680632120543918,0.01030532085588862
1.301433296582139,0.07267106781082185
1.334803381109886,0.13388710477129895
1.3681734656376332,0.21698827758594472
1.4015435501653803,0.3265077277911222
1.4349136346931275,0.4542376554053238
1.4682837192208746,0.5872060652985184
1.5016538037486218,0.7117583691767078
1.535023888276369,0.8126728738783912
1.568393972804116,0.8713276164682522
1.6017640573318634,0.8680434147385274
1.6351341418596106,0.790078255280397
1.6685042263873577,0.6413617731007144
1.7018743109151049,0.4472939369946034
1.735244395442852,0.2500588938063405
1.7686144799705992,0.09547747791218719
1.8019845644983463,0.01756419956499775
1.8353546490260935,0.028266812788140062
1.8687247335538406,0.11665701065695375
1.9020948180815878,0.25631476177723256
1.935464902609335,0.4153120863987526
1.968834987137082,0.5626920538009696
2.002205071664829,0.6688945904438074
2.0355751561925763,0.7028669734350209
2.0689452407203235,0.6319945075301221
2.1023153252480706,0.4298047650441919
2.1356854097758178,0.09081376303791985
2.169055494303565,-0.3547598626083845
2.202425578831312,-0.8367559403600948
2.235795663359059,-1.2582993577111712
2.2691657478868064,-1.5248069437036902
2.3025358324145535,-1.577782118549567
2.3359059169423007,-1.4179898506329875
2.369276001470048,-1.106088807992446
2.402646085997795,-0.7388438679387881
2.436016170525542,-0.41066481897329216
2.4693862550532892,-0.17746311900478318
2.5027563395810364,-0.03891347243809152
2.5361264241087835,0.05347301212478433
2.5694965086365307,0.16719142541317333
2.602866593164278,0.3528109533257343
2.636236677692025,0.6180095887680745
2.669606762219772,0.9226951034440458
2.7029768467475193,1.1957806990300464
2.7363469312752664,1.3641530996724747
2.7697170158030135,1.3798018635100537
2.8030871003307607,1.2338539268513165
2.836457184858508,0.954237692434201
2.869827269386255,0.5919890983543067
2.903197353914002,0.20511637438816493
2.9365674384417493,-0.1530932066923538
2.9699375229694964,-0.4399494761078579
3.0033076074972436,-0.6264962921340099
3.0366776920249907,-0.7012235098586888
3.070047776552738,-0.6741962531263272
3.103417861080485,-0.5777958278196291
3.136787945608232,-0.45998758331390627
3.1701580301359793,-0.36982212373683476
3.203528114663727,-0.34015783160196145
3.236898199191474,-0.3755793616212117
3.270268283719221,-0.4519089439521664
3.3036383682469683,-0.5282113208936744
3.3370084527747155,-0.5657964890716649
3.3703785373024626,-0.5449876345501207
3.4037486218302098,-0.47146773444722256
3.437118706357957,-0.3693975679646849
3.470488790885704,-0.26543260813836284
3.503858875413451,-0.17261199622913842
3.5372289599411983,-0.08322617156885698
3.5705990444689455,0.025039015705788658
3.6039691289966926,0.17274054464490998
3.63733921352444,0.36112392944957256
3.670709298052187,0.5635452312413244
3.704079382579934,0.7314956949742996
3.7374494671076812,0.8130782766994992
3.7708195516354284,0.7751967544215018
3.8041896361631755,0.6189667702957131
3.8375597206909227,0.3815719729069078
3.87092980521867,0.12442814580391286
3.904299889746417,-0.08671400654689697
3.937669974274164,-0.20183167953624778
3.9710400588019112,-0.2003947969248524
4.004410143329658,-0.09574835942566244
4.0377802278574055,0.06976079265214608
4.071150312385153,0.23683633449131974
4.1045203969129,0.3454998402601572
4.137890481440647,0.3520528718740188
4.171260565968394,0.2426736537951573
4.204630650496141,0.039498167513772255
4.238000735023888,-0.2038264726325679
4.2713708195516356,-0.4173501219254404
4.304740904079383,-0.5371006088602021
4.33811098860713,-0.5271725160204975
4.371481073134877,-0.39308060460929245
4.404851157662624,-0.1801980214409396
4.438221242190371,0.043240060365301515
4.471591326718118,0.21240778586618467
4.504961411245866,0.2907887212961013
4.538331495773613,0.2831596725405237
4.57170158030136,0.231003813129235
4.605071664829107,0.1922258858308687
4.638441749356854,0.2137860971663632
4.671811833884601,0.3088252728775661
4.7051819184123485,0.44784643590554485
4.738552002940096,0.5676581665788587
4.771922087467843,0.5947445970958443
4.80529217199559,0.4742982685806213
4.838662256523337,0.1940658812917653
4.872032341051084,-0.20618086382276443
4.905402425578831,-0.6438755617129638
4.9387725101065785,-1.0191395530539644
4.972142594634326,-1.2475177852268007
5.005512679162073,-1.2873976302083334
5.03888276368982,-1.151132162835444
5.072252848217567,-0.8956555257219212
5.105622932745314,-0.5974707783987392
5.138993017273061,-0.3237806356989522
5.1723631018008085,-0.11256534116129817
5.205733186328556,0.030930886441402683
5.239103270856303,0.12258970857728427
5.27247335538405,0.18140232440652615
5.305843439911797,0.21604769810560195
5.339213524439544,0.22320659475632787
5.372583608967291,0.19705528931072674
5.4059536934950385,0.1423056121012302
5.439323778022786,0.08095054876820394
5.472693862550533,0.047003388446362836
5.50606394707828,0.07146413389224245
5.539434031606027,0.16636134457602608
5.572804116133774,0.31760965600191665
5.606174200661521,0.49104120130085344
5.6395442851892685,0.6479820361307076
5.672914369717016,0.7613799251588094
5.706284454244763,0.8239099402924505
5.73965453877251,0.8448964689507065
5.773024623300257,0.8395039344717793
5.806394707828004,0.8174217716660374
5.839764792355751,0.7773870385990572
5.873134876883499,0.709512171451916
5.906504961411246,0.6025592571958827
5.939875045938993,0.45094418278067844
5.97324513046674,0.2574645285133582
6.006615214994487,0.031318898569265015
6.039985299522234,-0.2156774392491988
6.073355384049981,-0.47094890990551413
6.106725468577729,-0.7195105455361483
6.140095553105476,-0.9407242657820063
6.173465637633223,-1.1075314042405195
6.20683572216097,-1.1912733355468168
6.240205806688717,-1.1715858957363674
6.273575891216464,-1.0469979809493735
6.3069459757442115,-0.8404213500150832
6.340316060271959,-0.5956519194907464
6.373686144799706,-0.36513543860044856
6.407056229327454,-0.19335857910260235
6.440426313855201,-0.10246078658169039
6.473796398382948,-0.08615290889808376
6.507166482910695,-0.11480520375321472
6.540536567438442,-0.1496001403436606
6.5739066519661895,-0.15904126526564005
6.607276736493937,-0.12956010384479966
6.640646821021684,-0.06505787966663543
6.674016905549431,0.02322703263405653
6.707386990077178,0.12897839251311197
6.740757074604925,0.2560744952250795
6.774127159132672,0.41229281091190406
6.8074972436604195,0.5949462039577869
6.840867328188167,0.7784105344004371
6.874237412715914,0.9139003992967012
6.907607497243661,0.9454142128910199
6.940977581771408,0.8360174013923813
6.974347666299155,0.5912997961423851
7.007717750826902,0.26648608608863295
7.0410878353546495,-0.049029404356573325
7.074457919882397,-0.264669625089756
7.107828004410144,-0.3248272937309254
7.141198088937891,-0.2315009276237558
7.174568173465638,-0.04273279231733294
7.207938257993385,0.15246683405497377
7.241308342521132,0.27101077385951383
7.27467842704888,0.2676166954090506
7.308048511576627,0.14807737875471286
7.341418596104374,-0.040044950130417284
7.374788680632121,-0.23244533278462207
7.408158765159868,-0.37553338069453907
7.441528849687615,-0.4438172996924327
7.4748989342153624,-0.4414995458246767
7.50826901874311,-0.3911263132267555
7.541639103270857,-0.31782170543616917
7.575009187798604,-0.23796111422491023
7.608379272326351,-0.1567957235027313
7.641749356854098,-0.0736010758042005
7.675119441381845,0.01112722520535047
7.7084895259095925,0.09205047020928236
7.74185961043734,0.16116238573648942
7.775229694965087,0.21346005759561942
7.808599779492834,0.2511361381515856
7.841969864020581,0.28226744224024775
7.875339948548328,0.31392490539172674
7.908710033076075,0.3439272173173034
7.9420801176038225,0.35714644137132745
7.97545020213157,0.33006349295956317
8.008820286659317,0.24241624278829424
8.042190371187063,0.09023815627653184
8.075560455714811,-0.10689261121600335
8.108930540242557,-0.3090783735468073
8.142300624770305,-0.46936134950815905
8.175670709298052,-0.551518017923274
8.2090407938258,-0.5444562092100772
8.242410878353546,-0.46665717836023457
8.275780962881294,-0.3585763046138039
8.30915104740904,-0.26628238220740497
8.342521131936788,-0.22333119976433147
8.375891216464534,-0.23834507163816615
8.409261300992283,-0.29305292591848947
8.442631385520029,-0.351056353004174
8.476001470047777,-0.37327983812958343
8.509371554575523,-0.33359744073077746
8.542741639103271,-0.22836284207625215
8.57611172363102,-0.07636363416222333
8.609481808158765,0.0900605685374301
8.642851892686513,0.2382037683474797
8.67622197721426,0.34642658181266145
8.709592061742008,0.4093105440592588
8.742962146269754,0.4356452161269905
8.776332230797502,0.44188129595162223
8.809702315325248,0.4450626864640322
8.843072399852996,0.45805076657675875
8.876442484380743,0.4874211350646495
8.90981256890849,0.5327363180424793
8.943182653436237,0.586061083641687
8.976552737963985,0.6320271403489794
9.009922822491731,0.6498718896357915
9.04329290701948,0.618449351759662
9.076662991547225,0.5234199676579263
9.110033076074973,0.3640423324301568
9.14340316060272,0.1565690422030479
9.176773245130468,-0.06757386614992618
9.210143329658214,-0.26876820975131605
9.243513414185962,-0.4097545099847525
9.276883498713708,-0.4672207657445364
9.310253583241456,-0.44116562565373957
9.343623667769203,-0.35823818183263045
9.37699375229695,-0.2658701428709776
9.410363836824697,-0.2168688026714032
9.443733921352445,-0.24885450566589315
9.477104005880191,-0.3670183899264377
9.51047409040794,-0.5389567411279056
9.543844174935685,-0.7054975479678712
9.577214259463434,-0.8035935546618315
9.61058434399118,-0.7910396235337454
9.643954428518928,-0.6618820902564293
9.677324513046674,-0.4464538712987074
9.710694597574422,-0.1977868217756644
9.744064682102168,0.027944212698401485
9.777434766629916,0.18826815659434484
9.810804851157663,0.2632910472328683
9.84417493568541,0.2561941491730967
9.877545020213157,0.1882125612372835
9.910915104740905,0.09146150650332005
9.944285189268651,0.00165433681906329
9.9776552737964,-0.048725241023461534
10.011025358324146,-0.03677656661957133
10.044395442851894,0.04539853405286662
10.07776552737964,0.18742325157525772
10.111135611907388,0.36103806790983783
10.144505696435134,0.5251251274647692
10.177875780962882,0.6350323957958433
10.211245865490628,0.6543364333995378
10.244615950018376,0.5660702991113853
10.277986034546123,0.380175490344983
10.31135611907387,0.13454313439410975
10.344726203601617,-0.11175098527613793
10.378096288129365,-0.29273409675029055
10.411466372657111,-0.3549453075047679
10.44483645718486,-0.2771012526138385
10.478206541712606,-0.08306094835030645
10.511576626240354,0.15909673363996316
10.5449467107681,0.3558686124087201
10.578316795295848,0.4221043865259084
10.611686879823594,0.318514868150826
10.645056964351342,0.07617036901019072
10.678427048879088,-0.2069542912948132
10.711797133406836,-0.4017709169760363
10.745167217934583,-0.4047742295144861
10.77853730246233,-0.19093318332873432
10.811907386990077,0.16442014932468307
10.845277471517825,0.5099980543294221
10.878647556045571,0.6825587482928619
10.91201764057332,0.5826332989348654
10.945387725101066,0.22560309909180404
10.978757809628814,-0.25833011932578737
11.01212789415656,-0.6775716712388806
11.045497978684308,-0.8620765592849235
11.078868063212054,-0.7374065158460054
11.112238147739802,-0.35609708605715484
11.145608232267548,0.12656861381126197
11.178978316795297,0.5193009117697546
11.212348401323043,0.6729647845104205
11.24571848585079,0.5367516742133622
11.279088570378537,0.1714273056478254
11.312458654906285,-0.28164944890343824
11.345828739434031,-0.6595739728733395
11.37919882396178,-0.8399868298877415
11.412568908489526,-0.7827137304964971
11.445938993017274,-0.5372569137516744
11.47930907754502,-0.21620045143744815
11.512679162072768,0.05269674453477102
11.546049246600514,0.17576217858606152
11.579419331128262,0.12496689605828448
11.612789415656009,-0.05885620499255616
11.646159500183757,-0.28953915838486577
11.679529584711503,-0.47355767072926763
11.71289966923925,-0.5455197561330546
11.746269753766997,-0.48727727347151417
11.779639838294745,-0.32558325349777895
11.813009922822491,-0.11318728096383136
11.84638000735024,0.09549769519811784
11.879750091877986,0.2630640154840555
11.913120176405734,0.3762619304906268
11.94649026093348,0.44247980567775463
11.979860345461228,0.48068711071811654
12.013230429988974,0.5122126438445838
12.046600514516722,0.5540466061540618
12.079970599044469,0.6144212879090919
12.113340683572217,0.6894640598991797
12.146710768099963,0.7610787067408805
12.180080852627711,0.7982948240249005
12.213450937155457,0.7648079163853793
12.246821021683205,0.6330169547049312
12.280191106210951,0.40039654808485164
12.3135611907387,0.10025208104342706
12.346931275266446,-0.20111501036272805
12.380301359794194,-0.42366472861663335
12.41367144432194,-0.5035864089336727
12.447041528849688,-0.42095930466914855
12.480411613377434,-0.21107642851696648
12.513781697905182,0.04746021321991355
12.547151782432929,0.26289505082051523
12.580521866960677,0.36418833051070865
12.613891951488423,0.32279638141723677
12.647262036016171,0.15425068463332695
12.680632120543917,-0.09705523721279154
12.714002205071665,-0.3784099765130732
12.747372289599411,-0.6431682285808867
12.78074237412716,-0.8545197069626342
12.814112458654908,-0.9828298957537777
12.847482543182654,-1.004858338695563
12.880852627710402,-0.9100820499329206
12.914222712238148,-0.7116233374447287
12.947592796765896,-0.4528621073674191
12.980962881293642,-0.20083951795559202
13.01433296582139,-0.024658605107799433
13.047703050349137,0.03310430048178758
13.081073134876885,-0.022187342670872464
13.114443219404631,-0.1354547157083869
13.147813303932379,-0.22317454521252625
13.181183388460125,-0.20945401216677595
13.214553472987873,-0.060641329315503645
13.24792355751562,0.19786601406788523
13.281293642043368,0.4908596177477087
13.314663726571114,0.7245776376303715
13.348033811098862,0.8256126460083755
13.381403895626608,0.7697886831988117
13.414773980154356,0.5885513113453704
13.448144064682102,0.3513961794528394
13.48151414920985,0.1340417802522256
13.514884233737597,-0.012009194854213341
13.548254318265345,-0.07478126129233083
13.581624402793091,-0.07665991711614963
13.614994487320839,-0.05384651671419671
13.648364571848585,-0.03283855735090356
13.681734656376333,-0.01698504542150022
13.71510474090408,0.010053173947644723
13.748474825431828,0.0669439550229013
13.781844909959574,0.15465533868769374
13.815214994487322,0.2469796855180364
13.848585079015068,0.29912162173069523
13.881955163542816,0.27125565099133103
13.915325248070562,0.15435968635928204
13.94869533259831,-0.017151493856245124
13.982065417126057,-0.1752324503360608
14.015435501653805,-0.24750869285986513
14.048805586181551,-0.19184553689488137
14.082175670709299,-0.01820899394016557
14.115545755237045,0.21398425783654826
14.148915839764793,0.4220833633467778
14.18228592429254,0.5367633508696937
14.215656008820288,0.5305321233930824
14.249026093348034,0.42433652770247887
14.282396177875782,0.2701066157670608
14.315766262403528,0.11967855102275828
14.349136346931276,-0.002552934886639146
14.382506431459023,-0.10834757730703251
14.41587651598677,-0.23141093285772618
14.449246600514517,-0.3991268880616575
14.482616685042265,-0.6074364524248037
14.515986769570011,-0.8145888379627649
14.54935685409776,-0.9586498674447547
14.582726938625505,-0.9895257979582629
14.616097023153253,-0.8971990965445393
14.649467107681,-0.7195007004665273
14.682837192208748,-0.5243633986770633
14.716207276736494,-0.37627139404303483
14.749577361264242,-0.3056231332079891
14.782947445791988,-0.29753519119782745
14.816317530319736,-0.3047955946042523
14.849687614847483,-0.27574039377574355
14.88305769937523,-0.18030522997940013
14.916427783902977,-0.020474324890855565
14.949797868430725,0.1778459628835428
14.983167952958471,0.3831060575604541
15.01653803748622,0.5731554214437343
15.049908122013965,0.7376913441668147
15.083278206541713,0.8686773697850828
15.11664829106946,0.9484762035728027
15.150018375597208,0.9478065070984393
15.183388460124954,0.8392868993500805
15.216758544652702,0.6208646092235416
15.250128629180448,0.33411569730821716
15.283498713708196,0.06199506220636101
15.316868798235943,-0.09916860832896786
15.35023888276369,-0.08299251444137626
15.383608967291437,0.11027293072081
15.416979051819185,0.40505090071411537
15.450349136346931,0.6776232506924995
15.48371922087468,0.8080508298524224
15.517089305402425,0.7320837960907083
15.550459389930174,0.46788104462012786
15.58382947445792,0.10509303981180122
15.617199558985668,-0.2374566784508565
15.650569643513414,-0.46450065965786136
15.683939728041162,-0.5427115413621253
15.717309812568908,-0.5082080097489251
15.750679897096656,-0.4420057382949861
15.784049981624403,-0.4269927492986793
15.81742006615215,-0.5074455165349377
15.850790150679897,-0.669439984090524
15.884160235207645,-0.8497504712960684
15.917530319735391,-0.9674074865227501
15.95090040426314,-0.9621875779959906
15.984270488790886,-0.8221118252245482
16.017640573318634,-0.5880363723322715
16.05101065784638,-0.33445516751640647
16.084380742374126,-0.13642746861736396
16.117750826901876,-0.03817988368688893
16.151120911429622,-0.03713495740716365
16.18449099595737,-0.08921285836119124
16.217861080485115,-0.1313465395819472
16.251231165012864,-0.10995660701429698
16.28460124954061,-0.002648387457508122
16.317971334068357,0.17534379656748886
16.351341418596103,0.38100166767057564
16.384711503123853,0.5636952384713684
16.4180815876516,0.6860554015714695
16.451451672179346,0.7366880650635342
16.484821756707092,0.7302680355709138
16.51819184123484,0.6964403416816081
16.551561925762588,0.6637490622504223
16.584932010290334,0.646464026535347
16.61830209481808,0.6400829697762088
16.65167217934583,0.6266465521684081
16.685042263873576,0.5862232427981969
16.718412348401323,0.5083064617332929
16.75178243292907,0.3974315626632422
16.78515251745682,0.2704826485532625
16.818522601984565,0.147305911364163
16.85189268651231,0.039552069639490886
16.885262771040058,-0.056294125249046416
16.918632855567807,-0.1575820122458847
16.952002940095554,-0.28588343635513264
16.9853730246233,-0.45370333515643424
17.018743109151046,-0.65463491319171
17.052113193678796,-0.8627466679664323
17.085483278206542,-1.0420619399629498
17.11885336273429,-1.1611003958467585
17.15222344726204,-1.204266068314052
17.185593531789785,-1.1737384755259324
17.21896361631753,-1.0816058098125192
17.252333700845277,-0.9383807155687668
17.285703785373027,-0.7463049552932329
17.319073869900773,-0.5022340900446042
17.35244395442852,-0.2078825692143538
