Time (s),Filtered Signal
0.0,0.034798620483541286
0.033370165745856356,-0.40327302480963145
0.06674033149171271,-0.7400748424442033
0.10011049723756907,-0.9100940345448914
0.13348066298342542,-0.9050838915082349
0.16685082872928178,-0.7705822358174474
0.20022099447513814,-0.5811345235506298
0.2335911602209945,-0.40678011049426194
0.26696132596685085,-0.28665711663738713
0.30033149171270723,-0.22098860067127418
0.33370165745856356,-0.18275420139509382
0.3670718232044199,-0.14039172904454772
0.4004419889502763,-0.07820632693157731
0.43381215469613266,-0.003991068161087538
0.467182320441989,0.05844056970915322
0.5005524861878453,0.0855679188836207
0.5339226519337017,0.06898294068027705
0.5672928176795581,0.020507018186647064
0.6006629834254145,-0.03419155204335837
0.6340331491712707,-0.06868981279543107
0.6674033149171271,-0.06775242418816853
0.7007734806629835,-0.03198063629706031
0.7341436464088398,0.026020444991796586
0.7675138121546962,0.09015549054859813
0.8008839779005525,0.14813242050385325
0.8342541436464089,0.19341915665323645
0.8676243093922653,0.2219971428176632
0.9009944751381216,0.22786380848210272
0.934364640883978,0.20207792115113893
0.9677348066298344,0.1374335178386533
1.0011049723756906,0.03638504249438917
1.0344751381215471,-0.08331958936470943
1.0678453038674034,-0.19037457359144058
1.1012154696132597,-0.24999170202841767
1.1345856353591162,-0.23801672235506532
1.1679558011049724,-0.15176268802659867
1.201325966850829,-0.011533039311037588
1.2346961325966852,0.14824306129869871
1.2680662983425415,0.2936936350783347
1.301436464088398,0.40439344299647106
1.3348066298342542,0.47804384152732077
1.3681767955801105,0.5251216561508767
1.401546961325967,0.5570694099986973
1.4349171270718233,0.5749608966361471
1.4682872928176796,0.565250373119996
1.501657458563536,0.5054000905152768
1.5350276243093923,0.3767870676548735
1.5683977900552488,0.1780886064141572
1.601767955801105,-0.06834103760776253
1.6351381215469614,-0.321193741027116
1.6685082872928179,-0.5343379249533801
1.7018784530386741,-0.6736483570337289
1.7352486187845306,-0.7283898929537164
1.768618784530387,-0.7119407211929889
1.8019889502762432,-0.6522489313800678
1.8353591160220997,-0.5775517188676842
1.868729281767956,-0.5047864635777733
1.9020994475138122,-0.43596387614576404
1.9354696132596687,-0.3630377529120494
1.968839779005525,-0.2772993606524307
2.0022099447513813,-0.17748485275548262
2.0355801104972375,-0.07231790625598383
2.0689502762430942,0.023150405114957136
2.1023204419889505,0.09459348120677627
2.135690607734807,0.13465691744205371
2.169060773480663,0.14531807543784658
2.2024309392265193,0.13585140800612977
2.235801104972376,0.11826539584588933
2.2691712707182323,0.10296829267774196
2.3025414364640886,0.09659592627739878
2.335911602209945,0.10217992222778752
2.369281767955801,0.12037713051552744
2.402651933701658,0.15022039868464931
2.436022099447514,0.1888185765545962
2.4693922651933704,0.23079733244047565
2.5027624309392267,0.2689059125586965
2.536132596685083,0.29650660496906206
2.5695027624309392,0.3110234479784079
2.602872928176796,0.3160816507952558
2.636243093922652,0.3202074415251534
2.6696132596685085,0.3318038961431223
2.7029834254143648,0.35264281599313163
2.736353591160221,0.3736468349818576
2.7697237569060777,0.3760836081450672
2.803093922651934,0.338582394307452
2.8364640883977903,0.247078984166764
2.8698342541436466,0.1028587786320109
2.903204419889503,-0.07545025357389624
2.936574585635359,-0.2570762911003713
2.969944751381216,-0.40903251857197503
3.003314917127072,-0.5062159463337862
3.0366850828729284,-0.5376335130852211
3.0700552486187846,-0.5072615746004572
3.103425414364641,-0.4308183397355084
3.1367955801104976,-0.3309993862969248
3.170165745856354,-0.23300481491110622
3.20353591160221,-0.16043747360624155
3.2369060773480665,-0.13050071083565995
3.2702762430939227,-0.14797444275515897
3.3036464088397794,-0.19949655488326526
3.3370165745856357,-0.25178388571177573
3.370386740331492,-0.25776632394650767
3.4037569060773483,-0.17210470484730944
3.4371270718232045,0.02727063977741668
3.4704972375690613,0.3199621458633191
3.5038674033149175,0.6367855127873839
3.537237569060774,0.8739167107638285
3.57060773480663,0.9269702257281217
3.6039779005524863,0.7341488105023534
3.6373480662983426,0.31025969721564617
3.6707182320441993,-0.24608899916127028
3.7040883977900556,-0.7799270175045522
3.737458563535912,-1.134220848421661
3.770828729281768,-1.2094690532930394
3.8041988950276244,-1.0025245074830418
3.837569060773481,-0.6064660415455143
3.8709392265193374,-0.17041406023774733
3.9043093922651937,0.16354723408807822
3.93767955801105,0.31844688494345647
3.9710497237569062,0.3096607182442762
4.0044198895027625,0.22955546026920123
4.037790055248619,0.19746304082712166
4.071160220994475,0.2988540397973441
4.104530386740332,0.5421649795842902
4.1379005524861885,0.8528145609746306
4.171270718232044,1.1060629836859293
4.204640883977901,1.1824226000397393
4.238011049723757,1.019907933254034
4.271381215469614,0.6404320003136745
4.30475138121547,0.1406904588063481
4.338121546961326,-0.3460496186256883
4.371491712707183,-0.699317100929615
4.404861878453039,-0.8515257029489414
4.438232044198895,-0.8046004292329663
4.471602209944752,-0.6198893308926431
4.504972375690608,-0.38849960255323085
4.538342541436465,-0.1952412403494455
4.5717127071823205,-0.0898293853960779
4.605082872928177,-0.0748227899593189
4.638453038674034,-0.11296290770738195
4.67182320441989,-0.14938734407862939
4.7051933701657465,-0.13883388851314574
4.738563535911602,-0.06630646934546525
4.771933701657459,0.04736352950583044
4.805303867403316,0.1569212900675145
4.8386740331491715,0.21522414826920125
4.872044198895028,0.19599928544231537
4.905414364640884,0.10604265448964777
4.938784530386741,-0.018582236031922102
4.972154696132597,-0.129936705709855
5.005524861878453,-0.19036969208204893
5.03889502762431,-0.18873571459525568
5.072265193370166,-0.14326677107652291
5.105635359116023,-0.09035889250075224
5.1390055248618784,-0.06522397180498944
5.172375690607735,-0.08394922090684168
5.205745856353592,-0.13547349174335602
5.239116022099448,-0.1870028450237107
5.272486187845304,-0.19992539055917716
5.30585635359116,-0.14844182124260571
5.339226519337017,-0.03214189452934507
5.372596685082874,0.12304993975344679
5.4059668508287295,0.27547645577024493
5.439337016574586,0.38453111851941685
5.472707182320442,0.4258641062075951
5.506077348066299,0.3986700098523622
5.5394475138121555,0.32290898407520907
5.572817679558011,0.2289859202651738
5.606187845303868,0.14531068284947474
5.639558011049724,0.0891812344631631
5.672928176795581,0.06397988117595046
5.706298342541437,0.062263686886238054
5.739668508287293,0.0717377468837692
5.77303867403315,0.0805026589912396
5.806408839779006,0.0794064114437722
5.839779005524862,0.06172953462915566
5.873149171270718,0.022228968535502023
5.906519337016575,-0.04234124292863512
5.939889502762432,-0.1306860642964436
5.9732596685082875,-0.23395135790993712
6.006629834254144,-0.3349012577400582
6.04,-0.4112184969935637
6.073370165745857,-0.44255733150142956
6.1067403314917135,-0.4184785054048608
6.140110497237569,-0.3432907189786908
6.173480662983426,-0.23496744818849663
6.206850828729282,-0.11822839363681592
6.240220994475139,-0.014971689046938491
6.273591160220995,0.06329387618718975
6.306961325966851,0.11745334911545832
6.340331491712708,0.1567150686851487
6.373701657458564,0.19120279675264681
6.40707182320442,0.22551711730121132
6.440441988950277,0.25662800753921394
6.473812154696133,0.2767006330862415
6.50718232044199,0.2786142119774791
6.5405524861878455,0.26065293366069114
6.573922651933702,0.2277008202116769
6.607292817679559,0.1885367913343008
6.640662983425415,0.1510668758446491
6.674033149171271,0.11831118959679951
6.707403314917127,0.08730229877788857
6.740773480662984,0.05130463021307121
6.774143646408841,0.003991061277395444
6.8075138121546965,-0.05666066622864222
6.840883977900553,-0.12663667947438817
6.874254143646409,-0.1969748563586286
6.907624309392266,-0.2569433160444364
6.9409944751381225,-0.2977238533243532
6.974364640883978,-0.3149945947650004
7.007734806629835,-0.30949767806177353
7.041104972375691,-0.2856666257718749
7.074475138121548,-0.2492125563271079
7.107845303867403,-0.20491080992120428
7.14121546961326,-0.15559463166473336
7.174585635359117,-0.10267555070823726
7.207955801104973,-0.047679907738006004
7.241325966850829,0.006281389776092363
7.274696132596685,0.05418735391072484
7.308066298342542,0.09036954172520394
7.341436464088399,0.11083554019231558
7.3748066298342545,0.11533463150321548
7.408176795580111,0.10773586543804932
7.441546961325967,0.09407557079312827
7.474917127071824,0.07906055309468811
7.5082872928176805,0.06314904606191918
7.541657458563536,0.042638985549788455
7.575027624309393,0.013888544234590124
7.608397790055249,-0.019804167671125368
7.641767955801106,-0.04268701885101406
7.675138121546962,-0.027165615291051517
7.708508287292818,0.05688019743492879
7.741878453038675,0.22608143234546832
7.775248618784531,0.4676590395999272
7.808618784530387,0.7325044744116032
7.841988950276244,0.9437154640918843
7.8753591160221,1.02041892330761
7.908729281767957,0.9087930653730333
7.9420994475138125,0.6070911339360969
7.975469613259669,0.17239199887757
8.008839779005525,-0.2958724891633447
8.042209944751383,-0.6899715183930424
8.075580110497238,-0.931325093616928
8.108950276243094,-0.9953043234880296
8.14232044198895,-0.9133341464646582
8.175690607734808,-0.7529854496466645
8.209060773480664,-0.5866051889324042
8.24243093922652,-0.46316274576848926
8.275801104972377,-0.3948594414818402
8.309171270718233,-0.36192366396017994
8.342541436464089,-0.33036163080014286
8.375911602209946,-0.2724135334441964
8.409281767955802,-0.17992760531416224
8.442651933701658,-0.06576852302985876
8.476022099447514,0.04527911569339655
8.509392265193371,0.13005687549409944
8.542762430939227,0.17794144439009532
8.576132596685083,0.1944022666931968
8.60950276243094,0.19660253023781357
8.642872928176796,0.20415594816196397
8.676243093922652,0.22990304791091407
8.709613259668508,0.2748967261365673
8.742983425414366,0.32934254910017735
8.776353591160222,0.37833971376891723
8.809723756906077,0.4092412167546729
8.843093922651935,0.4170770764994159
8.87646408839779,0.40573386294724445
8.909834254143647,0.38472798499871147
8.943204419889504,0.3634133921831247
8.97657458563536,0.3454681065919261
9.009944751381216,0.32618528458805607
9.043314917127072,0.2937452481599777
9.07668508287293,0.23394788345109643
9.110055248618785,0.1365385765050257
9.143425414364641,0.0007010478872805888
9.176795580110499,-0.16237670332386403
9.210165745856354,-0.330904093702838
9.24353591160221,-0.47751376080133157
9.276906077348068,-0.5763465942663287
9.310276243093924,-0.6099766645762383
9.34364640883978,-0.574024380745523
9.377016574585635,-0.478014964905678
9.410386740331493,-0.3421952986424543
9.443756906077349,-0.1913696481138703
9.477127071823205,-0.047969706416149394
9.510497237569062,0.07298227041824146
9.543867403314918,0.16504667745117185
9.577237569060774,0.2274613286547521
9.610607734806631,0.2600341996677694
9.643977900552487,0.2590244240063322
9.677348066298343,0.21688368360967777
9.710718232044199,0.12674487108056215
9.744088397790057,-0.010212413458705107
9.777458563535912,-0.1784983269521394
9.810828729281768,-0.3473465222196493
9.844198895027626,-0.47716971207562764
9.877569060773482,-0.5319729937183988
9.910939226519337,-0.49285697239592746
9.944309392265193,-0.36639551891948474
9.97767955801105,-0.18341726552703563
10.011049723756907,0.011985088973210802
10.044419889502763,0.17861878669010703
10.07779005524862,0.2922708894925181
10.111160220994476,0.35149996455853705
10.144530386740332,0.37320162286553493
10.17790055248619,0.3810836656251599
10.211270718232045,0.3932360698829908
10.244640883977901,0.41452886283138374
10.278011049723757,0.4363196460863441
10.311381215469615,0.4421216777583373
10.34475138121547,0.4156293949565477
10.378121546961326,0.3475884613892076
10.411491712707184,0.23960844915048748
10.44486187845304,0.10464247544816989
10.478232044198895,-0.03545868197666988
10.511602209944753,-0.15496680075106342
10.544972375690609,-0.2313653393286676
10.578342541436465,-0.2529987974329364
10.61171270718232,-0.2243948847481879
10.645082872928178,-0.16600603970294217
10.678453038674034,-0.10690867894736465
10.71182320441989,-0.07261466136396794
10.745193370165747,-0.07356614888092451
10.778563535911603,-0.10060112140913316
10.811933701657459,-0.13058114010633895
10.845303867403315,-0.13983436721815004
10.878674033149172,-0.11830129676898088
10.912044198895028,-0.07633047542059224
10.945414364640884,-0.03982904586668548
10.978784530386742,-0.03595983463863444
11.012154696132598,-0.07710284426979154
11.045524861878453,-0.1521323564364518
11.078895027624311,-0.23032238402333377
11.112265193370167,-0.2763563258032212
11.145635359116023,-0.2686947819918861
11.179005524861878,-0.21138048901373974
11.212375690607736,-0.13254509319735844
11.245745856353592,-0.06988031519785352
11.279116022099448,-0.05046705643764261
11.312486187845305,-0.07572068018830605
11.345856353591161,-0.11982420426415702
11.379226519337017,-0.1429871815937901
11.412596685082875,-0.11287253551456548
11.44596685082873,-0.022893223191048466
11.479337016574586,0.10259352062294023
11.512707182320442,0.2194272351477137
11.5460773480663,0.2857033311570363
11.579447513812156,0.28340138977666235
11.612817679558011,0.22826603473471602
11.646187845303869,0.16265393713142887
11.679558011049725,0.1348519888234346
11.71292817679558,0.17522322218745015
11.746298342541436,0.28091544236687443
11.779668508287294,0.416301077730408
11.81303867403315,0.5284662253867587
11.846408839779006,0.5700551931319108
11.879779005524863,0.5189002767322861
11.91314917127072,0.3860464369662226
11.946519337016575,0.2094750195078744
11.979889502762433,0.037158441093451226
12.013259668508288,-0.09269216543205525
12.046629834254144,-0.16570124096878303
12.08,-0.19415742241674885
12.113370165745858,-0.20808047541824465
12.146740331491714,-0.2390436188268962
12.18011049723757,-0.3041898420815207
12.213480662983427,-0.3974974641158891
12.246850828729283,-0.4919131095580671
12.280220994475139,-0.5510905207244772
12.313591160220996,-0.5453702034555652
12.346961325966852,-0.4650752213689563
12.380331491712708,-0.32568661792456055
12.413701657458564,-0.16309368189530313
12.447071823204421,-0.021138681182382477
12.480441988950277,0.06358908479386804
12.513812154696133,0.07417528431204543
12.54718232044199,0.01890042180037705
12.580552486187846,-0.07170091901412681
12.613922651933702,-0.1550830085557603
12.64729281767956,-0.1909177432142829
12.680662983425416,-0.15478872358479656
12.714033149171271,-0.04682407216542328
12.747403314917127,0.10789743945507835
12.780773480662985,0.2677164158217092
12.81414364640884,0.3889032436336878
12.847513812154697,0.44113973314956595
12.880883977900554,0.41813690154613997
12.91425414364641,0.33924351607435677
12.947624309392266,0.24134797269172467
12.980994475138122,0.1641664136364644
13.01436464088398,0.13459439384613225
13.047734806629835,0.1561746963258571
13.081104972375691,0.20779802773343053
13.114475138121549,0.25226574886400044
13.147845303867404,0.25158958908908335
13.18121546961326,0.18323048432865083
13.214585635359118,0.05087106994546288
13.247955801104974,-0.11489725865212481
13.28132596685083,-0.26687025359359046
13.314696132596685,-0.3589720003060543
13.348066298342543,-0.36448671315838704
13.381436464088399,-0.28707995066070374
13.414806629834255,-0.15955711455790042
13.448176795580112,-0.030500360457431736
13.481546961325968,0.05562527183118695
13.514917127071824,0.07624308947503779
13.548287292817681,0.038547816314472745
13.581657458563537,-0.025810877434488726
13.615027624309393,-0.07663838365976108
13.648397790055249,-0.08442776018508694
13.681767955801106,-0.04427092245481715
13.715138121546962,0.021750284165364425
13.748508287292818,0.0747405703219905
13.781878453038676,0.07716859989499343
13.815248618784532,0.01086092140271621
13.848618784530387,-0.11334489549673646
13.881988950276245,-0.2587043935766336
13.9153591160221,-0.37703703819689
13.948729281767957,-0.4279973450666219
13.982099447513813,-0.394523790210463
14.01546961325967,-0.28791191139092115
14.048839779005526,-0.14107613628249938
14.082209944751382,0.005928842091428217
14.11558011049724,0.12097820328806067
14.148950276243095,0.18912248765913803
14.182320441988951,0.21332916810846542
14.215690607734807,0.2083953245817465
14.249060773480664,0.1922916313837886
14.28243093922652,0.17907203358527057
14.315801104972376,0.17546783601483057
14.349171270718234,0.18105777208075102
14.38254143646409,0.19070079927764338
14.415911602209945,0.1978495926810725
14.449281767955803,0.19774797285898824
14.482651933701659,0.18972014201987128
14.516022099447515,0.17775678928360086
14.54939226519337,0.16884420979496562
14.582762430939228,0.1693152374507157
14.616132596685084,0.18069909526127556
14.64950276243094,0.19734866102503867
14.682872928176797,0.20774469723578215
14.716243093922653,0.19964235223838614
14.749613259668509,0.16687515576079862
14.782983425414367,0.1140465032781317
14.816353591160222,0.055759758850085446
14.849723756906078,0.009687279148409347
14.883093922651934,-0.013547784139789383
14.916464088397792,-0.018157906020221954
14.949834254143648,-0.02356454842178855
14.983204419889503,-0.05593980624503939
15.016574585635361,-0.13456330551738627
15.049944751381217,-0.26012419572120393
15.083314917127073,-0.4116752047878263
15.116685082872928,-0.5545408219561648
15.150055248618786,-0.6554848397405588
15.183425414364642,-0.6973220967602377
15.216795580110498,-0.685330783996373
15.250165745856355,-0.6421775886389668
15.283535911602211,-0.5941225958742791
15.316906077348067,-0.5557387121717778
15.350276243093925,-0.5210560679151106
15.38364640883978,-0.46581014886101546
15.417016574585636,-0.3600622108728151
15.450386740331492,-0.18540555716990587
15.48375690607735,0.05150783387478835
15.517127071823205,0.31616986917767653
15.550497237569061,0.5566570191245048
15.583867403314919,0.7237587575858984
15.617237569060775,0.7922995367567073
15.65060773480663,0.7737093813074387
15.683977900552488,0.7129431457864388
15.717348066298344,0.6694343359064858
15.7507182320442,0.6892420427029161
15.784088397790056,0.780556371617182
15.817458563535913,0.9046090012824267
15.85082872928177,0.9881343327515462
15.884198895027625,0.9538689058999579
15.917569060773483,0.7564133151406122
15.950939226519338,0.4068431062275527
15.984309392265194,-0.026518639595333352
16.01767955801105,-0.44294255130076166
16.051049723756908,-0.7490081673939135
16.084419889502765,-0.8948009117971779
16.11779005524862,-0.889756157786748
16.151160220994477,-0.791481832356393
16.18453038674033,-0.6742704988097069
16.21790055248619,-0.5935086955018586
16.251270718232046,-0.5630802159862125
16.2846408839779,-0.5552646127276312
16.318011049723758,-0.5210540018244266
16.351381215469615,-0.4193179266314308
16.38475138121547,-0.24019279077608519
16.418121546961327,-0.012164350496650702
16.451491712707185,0.20922158223429638
16.48486187845304,0.3646559692514088
16.518232044198896,0.41536854319204664
16.551602209944754,0.3580925336490899
16.584972375690608,0.2252827384297552
16.618342541436466,0.07170675736087838
16.651712707182323,-0.046249459618703415
16.685082872928177,-0.09018780332363113
16.718453038674035,-0.051273224036552996
16.751823204419892,0.049399792967701896
16.785193370165747,0.1705220980627239
16.818563535911604,0.26599745457884233
16.851933701657458,0.3004010072612872
16.885303867403316,0.2594507732030136
16.918674033149173,0.1526054001917712
16.952044198895027,0.0077217153643466905
16.985414364640885,-0.13965937563232012
17.018784530386743,-0.2582073996063537
17.052154696132597,-0.32961652538263453
17.085524861878454,-0.3515637401426777
17.118895027624312,-0.3344801616197816
17.152265193370166,-0.2942414871287468
17.185635359116024,-0.24434883660020598
17.21900552486188,-0.19107367992408997
17.252375690607735,-0.13341874277883237
