Time (s),Filtered Signal
0.0,-0.0012401416526848631
0.0334075723830735,-0.2035629330964404
0.066815144766147,-0.38360890683256615
0.1002227171492205,-0.5179568516040854
0.133630289532294,-0.5841577872503741
0.1670378619153675,-0.5672839313339034
0.200445434298441,-0.4678677749783879
0.23385300668151449,-0.30628208786751693
0.267260579064588,-0.11968233413386416
0.3006681514476615,0.04864120351113554
0.334075723830735,0.16345011257375455
0.3674832962138085,0.20904602635326056
0.400890868596882,0.19293253701371443
0.4342984409799555,0.14028205369845761
0.46770601336302897,0.08215863942328253
0.5011135857461025,0.043060459159788414
0.534521158129176,0.03306190211793563
0.5679287305122495,0.04710149919340395
0.601336302895323,0.07044893008169287
0.6347438752783965,0.08692563997117544
0.66815144766147,0.08602088813290198
0.7015590200445435,0.06638676422530854
0.734966592427617,0.03524331863048796
0.7683741648106905,0.004859013638123997
0.801781737193764,-0.01208973127635906
0.8351893095768375,-0.006737920066934226
0.868596881959911,0.023070376588993788
0.9020044543429845,0.07160942942690167
0.9354120267260579,0.12604981766222595
0.9688195991091315,0.16931301327137668
1.002227171492205,0.18472902775762665
1.0356347438752784,0.16143751544371623
1.069042316258352,0.0987077095269239
1.1024498886414256,0.007255292441698977
1.135857461024499,-0.0934422351803836
1.1692650334075725,-0.1811869110603235
1.202672605790646,-0.23827505712748914
1.2360801781737194,-0.25708911456629957
1.269487750556793,-0.24189067960991212
1.3028953229398665,-0.2061629012628501
1.33630289532294,-0.16659012697008727
1.3697104677060135,-0.13605873796381632
1.403118040089087,-0.11849475584676603
1.4365256124721606,-0.10775662996923323
1.469933184855234,-0.09127042200416209
1.5033407572383075,-0.05706156442256766
1.536748329621381,-0.001091564499590627
1.5701559020044544,0.06874126247756256
1.603563474387528,0.13438816065512463
1.6369710467706016,0.17502557929728307
1.670378619153675,0.17688137064060197
1.7037861915367485,0.1407070475726925
1.737193763919822,0.08281247598403463
1.7706013363028954,0.028590612897689
1.804008908685969,0.0013203243651595243
1.8374164810690425,0.011648804421747604
1.8708240534521159,0.05297416009674099
1.9042316258351895,0.10496338506035378
1.937639198218263,0.14327096342821552
1.9710467706013366,0.15048413484660594
2.00445434298441,0.12303233281332444
2.0378619153674835,0.07123922426922281
2.071269487750557,0.013313853080166312
2.1046770601336307,-0.03316240292183891
2.138084632516704,-0.058080564851279555
2.1714922048997773,-0.06127480892344482
2.204899777282851,-0.05035484728523055
2.2383073496659245,-0.03571643772354915
2.271714922048998,-0.025423678135966195
2.3051224944320716,-0.022227945471959876
2.338530066815145,-0.02370792081725249
2.3719376391982183,-0.02503467934458562
2.405345211581292,-0.022746596686719096
2.4387527839643655,-0.01751274955098256
2.472160356347439,-0.014304129723884382
2.5055679287305126,-0.01958061309609185
2.538975501113586,-0.03665274125936963
2.5723830734966593,-0.06162618257031918
2.605790645879733,-0.0825506563459215
2.6391982182628064,-0.08318551435883062
2.67260579064588,-0.05049490876003571
2.7060133630289536,0.017326467059554176
2.739420935412027,0.10648364391422509
2.7728285077951007,0.18990062129874374
2.806236080178174,0.23627059359945368
2.8396436525612474,0.22245833303632823
2.873051224944321,0.14383203556098953
2.9064587973273945,0.017633430200653572
2.939866369710468,-0.12251857942410568
2.9732739420935417,-0.23887616786871643
3.006681514476615,-0.30337740665316176
3.0400890868596884,-0.30721311614932034
3.073496659242762,-0.2623815456984754
3.1069042316258355,-0.19510712833408672
3.140311804008909,-0.13444163361273878
3.1737193763919826,-0.1010636664936006
3.207126948775056,-0.10066709487498793
3.2405345211581293,-0.12392596940236311
3.273942093541203,-0.15210270900888156
3.3073496659242765,-0.16522869708354695
3.34075723830735,-0.1492111555647849
3.3741648106904236,-0.0992378320333716
3.407572383073497,-0.01885455133590106
3.4409799554565703,0.08385298791447755
3.474387527839644,0.2003280713540647
3.5077951002227175,0.3233853511929975
3.541202672605791,0.4458606346331639
3.5746102449888646,0.5572711259137575
3.608017817371938,0.6413638230689052
3.6414253897550113,0.6774879029750492
3.674832962138085,0.6467760599003121
3.7082405345211584,0.5409863447001099
3.7416481069042318,0.36937936845143526
3.7750556792873056,0.15902257853045967
3.808463251670379,-0.05304692682531404
3.8418708240534527,-0.23276387014948344
3.875278396436526,-0.36068314281041886
3.9086859688195994,-0.43621169953585487
3.942093541202673,-0.4723916432507226
3.9755011135857465,-0.4847020994080815
4.00890868596882,-0.4807661386725725
4.042316258351893,-0.4570051447304739
4.075723830734967,-0.4037942921709199
4.109131403118041,-0.31545259302663486
4.142538975501114,-0.1986323767132584
4.1759465478841875,-0.07380835138799016
4.209354120267261,0.03133350767952273
4.242761692650334,0.09323033564063891
4.276169265033408,0.10257026336605155
4.309576837416482,0.06798752153255946
4.342984409799555,0.011533653164738
4.3763919821826285,-0.04159713960148286
4.409799554565702,-0.07376193062977449
4.443207126948775,-0.08067819963443681
4.476614699331849,-0.06985076819613135
4.510022271714923,-0.05315291977249745
4.543429844097996,-0.038167296331043495
4.5768374164810695,-0.023349473841303998
4.610244988864143,0.0002823794812007597
4.643652561247216,0.04205705949657252
4.67706013363029,0.10344185900288165
4.710467706013364,0.17374775776093015
4.743875278396437,0.23272636662652024
4.77728285077951,0.2593009583528448
4.810690423162584,0.2422484761426724
4.844097995545657,0.18733724536272983
4.877505567928731,0.11692327994803284
4.910913140311805,0.061580869068568814
4.944320712694878,0.0472184163086353
4.977728285077951,0.08339970334186965
5.011135857461025,0.15815645040329585
5.044543429844098,0.24168231719732383
5.077951002227172,0.2973728858049364
5.111358574610246,0.29558870051460795
5.144766146993319,0.22461733594867878
5.178173719376392,0.09479614783090179
5.211581291759466,-0.06528182351239198
5.244988864142539,-0.21853611204825577
5.278396436525613,-0.33129317684456167
5.311804008908687,-0.38315695451536913
5.34521158129176,-0.3718155713886706
5.378619153674833,-0.3116798726179005
5.412026726057907,-0.2273324851486174
5.445434298440981,-0.14439632670784153
5.478841870824054,-0.08115697018936882
5.512249443207128,-0.04385750565926221
5.545657015590201,-0.027110043193094215
5.579064587973274,-0.01881493163738713
5.612472160356348,-0.007153806972825854
5.645879732739422,0.013543874261337258
5.679287305122495,0.04056210758451785
5.712694877505569,0.06484920629664002
5.746102449888642,0.07598217670837172
5.779510022271715,0.06745881015643644
5.812917594654789,0.03987022936622486
5.846325167037863,0.0007665865924234154
5.879732739420936,-0.038344434295093856
5.91314031180401,-0.0662496732660434
5.946547884187083,-0.07565603845788031
5.979955456570156,-0.06491701110049988
6.01336302895323,-0.037608132372633815
6.046770601336304,-0.0005951628383874419
6.080178173719377,0.03833835044759949
6.1135857461024505,0.0723420142049242
6.146993318485524,0.09634128275029208
6.180400890868597,0.1069862180447454
6.213808463251671,0.10228531019416134
6.247216035634745,0.08160347499785936
6.280623608017818,0.04634594500454222
6.3140311804008915,0.000991114090388149
6.347438752783965,-0.04642782576509494
6.380846325167038,-0.08532823560203438
6.414253897550112,-0.1053455836559756
6.447661469933186,-0.10005818893029676
6.481069042316259,-0.06999217122982404
6.5144766146993325,-0.023188892927231024
6.547884187082406,0.027396568903992054
6.581291759465479,0.06881768990047266
6.614699331848553,0.09322027614617422
6.648106904231627,0.10066680112738162
6.6815144766147,0.09828248511683106
6.7149220489977735,0.09608279074071811
6.748329621380847,0.10148653142922982
6.78173719376392,0.11518981129380615
6.815144766146994,0.13042957041052075
6.848552338530068,0.13601728397691754
6.881959910913141,0.12169537259958675
6.915367483296214,0.08327999635180697
6.948775055679288,0.02523505072661461
6.982182628062361,-0.04037783975918634
7.015590200445435,-0.0979444922086176
7.048997772828509,-0.133510488773782
7.082405345211582,-0.13911836903952768
7.115812917594655,-0.11490598207569587
7.149220489977729,-0.06865681674711778
7.182628062360802,-0.01336536807595316
7.216035634743876,0.036217879707455
7.24944320712695,0.0671211791149053
7.282850779510023,0.0710469725969932
7.316258351893096,0.046127923418815234
7.34966592427617,-0.0027897359887785124
7.383073496659243,-0.06546605193126018
7.416481069042317,-0.12898002007057252
7.449888641425391,-0.18116790803317337
7.4832962138084635,-0.21374123520019642
7.516703786191537,-0.2240043630790587
7.550111358574611,-0.21455186366459617
7.583518930957685,-0.1911624252597399
7.616926503340758,-0.1599378207736118
7.650334075723832,-0.12509834940906933
7.683741648106905,-0.08846682404156428
7.717149220489978,-0.05068154189500214
7.750556792873052,-0.013107312958144211
7.783964365256126,0.021071343003896372
7.817371937639199,0.047611369118893306
7.850779510022273,0.06363571017465151
7.884187082405346,0.07029684686635156
7.917594654788419,0.07382798957737473
7.951002227171493,0.08384748595940784
7.984409799554567,0.10926938860503539
8.01781737193764,0.15358514687360839
8.051224944320714,0.21182493896733293
8.084632516703786,0.2708883271634777
8.118040089086861,0.31346688441347287
8.151447661469934,0.3241664486612232
8.184855233853007,0.2954029624232767
8.218262806236082,0.23064752025174334
8.251670378619155,0.14364208815239626
8.285077951002227,0.05385405556948918
8.318485523385302,-0.020032722393612118
8.351893095768375,-0.0660523993321637
8.385300668151448,-0.08213194376329815
8.418708240534523,-0.07555689829554366
8.452115812917596,-0.05929420822384549
8.485523385300668,-0.04685802480936937
8.518930957683743,-0.04771272840811512
8.552338530066816,-0.06470858382704828
8.585746102449889,-0.09409202338954084
8.619153674832964,-0.12769154757960935
8.652561247216036,-0.15628056549198185
8.68596881959911,-0.17293180757622742
8.719376391982184,-0.17530010496877343
8.752783964365257,-0.16610437578643894
8.78619153674833,-0.15161710374588547
8.819599109131405,-0.1386775785469494
8.853006681514477,-0.13140806300447394
8.88641425389755,-0.12906602085065824
8.919821826280625,-0.12606263924636246
8.953229398663698,-0.11423796141704563
8.98663697104677,-0.08646875231087339
9.020044543429846,-0.040103786500829006
9.053452115812918,0.02118857911389618
9.086859688195991,0.08792770115512334
9.120267260579066,0.14756089884923135
9.153674832962139,0.18850416055792094
9.187082405345212,0.20404923523994126
9.220489977728286,0.19466080033317743
9.25389755011136,0.1676737045954384
9.287305122494432,0.13433744112552135
9.320712694877507,0.10525202384147767
9.35412026726058,0.08603400698857483
9.387527839643653,0.07510510654589013
9.420935412026727,0.06466438166292302
9.4543429844098,0.04450310991005252
9.487750556792873,0.007021504019362898
9.521158129175948,-0.048723647936271694
9.55456570155902,-0.11561104000162055
9.587973273942094,-0.1801385768317813
9.621380846325168,-0.22639464557154318
9.654788418708241,-0.24082627247169147
9.688195991091314,-0.21635837982676764
9.721603563474389,-0.1548863372436326
9.755011135857462,-0.06761379588505181
9.788418708240535,0.027025044935267195
9.82182628062361,0.10781081352096249
9.855233853006682,0.15684232012665736
9.888641425389755,0.16561947756532006
9.92204899777283,0.13871284513153503
9.955456570155903,0.09291105472910897
9.988864142538976,0.05133506277567342
10.02227171492205,0.034378199799064084
10.055679287305123,0.05122162625558996
10.089086859688196,0.09584713093839613
10.12249443207127,0.14956089137539014
10.155902004454344,0.18894236558099067
10.189309576837417,0.19552203650394098
10.222717149220491,0.16280657715124525
10.256124721603564,0.09781183098796584
10.289532293986637,0.017064371005412568
10.322939866369712,-0.06048231611523372
10.356347438752785,-0.12021361980003359
10.389755011135858,-0.15568764999611628
10.423162583518932,-0.16872418300756217
10.456570155902005,-0.166645895381172
10.489977728285078,-0.15840611032952054
10.523385300668153,-0.1511884169231662
10.556792873051226,-0.1483568001911764
10.590200445434299,-0.14892667551333186
10.623608017817373,-0.1483346024548915
10.657015590200446,-0.1401815696646313
10.69042316258352,-0.11859480566114146
10.723830734966594,-0.08072265986189861
10.757238307349667,-0.028657135618901635
10.790645879732741,0.030044559094804323
10.824053452115814,0.08385370853180255
10.857461024498887,0.12072565655480856
10.890868596881962,0.1325155240683889
10.924276169265035,0.1185966624450438
10.957683741648108,0.08689943309824623
10.991091314031182,0.05151226914510972
11.024498886414255,0.027515864557325676
11.057906458797328,0.02507840370218979
11.091314031180403,0.04527796865749755
11.124721603563476,0.07939208511874517
11.158129175946549,0.11190409632856466
11.191536748329623,0.1259921575861195
11.224944320712696,0.10945238316964581
11.25835189309577,0.05908037718763988
11.291759465478844,-0.01774139702095473
11.325167037861917,-0.10456641499808393
11.35857461024499,-0.18003060615117109
11.391982182628064,-0.22358485364423536
11.425389755011137,-0.22142146873305607
11.45879732739421,-0.17099904791033121
11.492204899777285,-0.08262686295955954
11.525612472160358,0.02287555333503786
11.55902004454343,0.12024640579599476
11.592427616926505,0.18783360260770812
11.625835189309578,0.21468084755096273
11.659242761692651,0.20364182188989768
11.692650334075726,0.16896226636051798
11.726057906458799,0.12923165240439555
11.759465478841872,0.09889092353117966
11.792873051224946,0.08231629837182097
11.82628062360802,0.0732901694407696
11.859688195991092,0.05993880964041133
11.893095768374167,0.0323832568630522
11.92650334075724,-0.011038631757597563
11.959910913140313,-0.06228125763956539
11.993318485523387,-0.10751692835662913
12.02672605790646,-0.13422134824751528
12.060133630289533,-0.1375337669250118
12.093541202672608,-0.12256859799393208
12.12694877505568,-0.101695449452363
12.160356347438753,-0.08848773987435447
12.193763919821828,-0.09153978353129645
12.227171492204901,-0.11100567624582343
12.260579064587974,-0.13902006504082892
12.293986636971049,-0.1632754731467038
12.327394209354122,-0.17192280303709706
12.360801781737194,-0.1578870200868514
12.39420935412027,-0.12127754788132541
12.427616926503342,-0.06931714436041074
12.461024498886415,-0.013884536925854818
12.49443207126949,0.03259697728889963
12.527839643652563,0.06159628489009494
12.561247216035635,0.07160010466100812
12.59465478841871,0.06859807691101948
12.628062360801783,0.06357469899775377
12.661469933184856,0.06792713196400403
12.69487750556793,0.08867885901880225
12.728285077951004,0.1255009181250075
12.761692650334076,0.17079068346628823
12.795100222717151,0.21272515094754177
12.828507795100224,0.23989718659914988
12.861915367483297,0.24546036806924157
12.895322939866372,0.22899008589290643
12.928730512249444,0.19540987710417546
12.962138084632517,0.15178872861074783
12.995545657015592,0.10384438954708472
13.028953229398665,0.054031415113086435
13.062360801781738,0.0021069943302710484
13.095768374164813,-0.05240958577710923
13.129175946547885,-0.10759423831259896
13.162583518930958,-0.15811548306991724
13.195991091314033,-0.19671014372124407
13.229398663697106,-0.217446220843506
13.262806236080179,-0.21889653961258154
13.296213808463254,-0.20523353773776581
13.329621380846326,-0.18435299209670417
13.3630289532294,-0.16386018773415054
13.396436525612474,-0.14709073318264007
13.429844097995547,-0.13144191479758224
13.46325167037862,-0.11003721495815592
13.496659242761694,-0.07586516817963479
13.530066815144767,-0.026161226434199207
13.56347438752784,0.03525687275995509
13.596881959910915,0.0987793647897278
13.630289532293988,0.15233466472990126
13.66369710467706,0.18553614122284307
13.697104677060135,0.1928254084503441
13.730512249443208,0.1745671036174345
13.763919821826281,0.13610895755554878
13.797327394209356,0.08560446016279229
13.830734966592429,0.03165643784281716
13.864142538975502,-0.018363822432770745
13.897550111358576,-0.058943573963961916
13.93095768374165,-0.08617605679627147
13.964365256124722,-0.09724321713142367
13.997772828507797,-0.09037768998737092
14.03118040089087,-0.06572231804328527
14.064587973273943,-0.02678553786680512
14.097995545657017,0.018561685277134726
14.13140311804009,0.058835721297045895
14.164810690423163,0.08204957733216761
14.198218262806238,0.08037328788767824
14.23162583518931,0.05417699666631317
14.265033407572384,0.012996418445940471
14.298440979955458,-0.02779645105236111
14.331848552338531,-0.05358680353005197
14.365256124721604,-0.05736615792417948
14.398663697104679,-0.04332877604168863
14.432071269487752,-0.025067133715176524
14.465478841870825,-0.01879805817321843
14.4988864142539,-0.03458901959896295
14.532293986636972,-0.06981473318688136
14.565701559020045,-0.10838530267314399
14.59910913140312,-0.1268151008035466
14.632516703786193,-0.1049385248545383
14.665924276169266,-0.03651155616032777
14.69933184855234,0.06556925154716493
14.732739420935413,0.17260697788150983
14.766146993318486,0.2512135338310065
14.79955456570156,0.2773914208262307
14.832962138084634,0.24687379735429807
14.866369710467707,0.17644160347832
14.899777282850781,0.09527208849370766
14.933184855233854,0.0304999314784697
14.966592427616927,-0.005653479342147728
15.0,-0.02047340596531342
