Frequency (Hz),Amplitude
0.0,7.105003331369354
0.01978021978021978,7.102478083984142
0.03956043956043956,7.094906931570338
0.05934065934065934,7.082303652942389
0.07912087912087912,7.06469124489264
0.0989010989010989,7.042101970829925
0.11868131868131868,7.014577429850189
0.13846153846153844,6.982168647225554
0.15824175824175823,6.944936187593608
0.17802197802197803,6.902950292433468
0.1978021978021978,6.856291043730116
0.21758241758241756,6.8050485560542455
0.23736263736263735,6.749323199619889
0.2571428571428572,6.6892258572244945
0.2769230769230769,6.624878218320238
0.2967032967032967,6.556413113804598
0.31648351648351647,6.483974895439239
0.3362637362637363,6.407719864093008
0.35604395604395606,6.3278167512318
0.3758241758241758,6.244447258211072
0.3956043956043956,6.157806657919676
0.4153846153846154,6.068104463111695
0.4351648351648351,5.975565165264608
0.45494505494505494,5.880429046904301
0.4747252747252747,5.782953068900273
0.4945054945054945,5.683411832073457
0.5142857142857143,5.582098609346956
0.5340659340659341,5.4793264403244635
0.5538461538461538,5.375429274263944
0.5736263736263736,5.2707631395323595
0.5934065934065934,5.1657073073442685
0.6131868131868132,5.060665404450223
0.6329670329670329,4.956066413035371
0.6527472527472528,4.8523654761226025
0.6725274725274726,4.750044403221507
0.6923076923076923,4.649611744255913
0.7120879120879121,4.551602271098458
0.7318681318681318,4.456575677549681
0.7516483516483516,4.365114283929645
0.7714285714285715,4.277819516900317
0.7912087912087912,4.195306935790616
0.810989010989011,4.118199602112526
0.8307692307692308,4.047119648214414
0.8505494505494506,3.9826780018797483
0.8703296703296702,3.9254623698407554
0.8901098901098901,3.8760237708867065
0.9098901098901099,3.8348621241415346
0.9296703296703297,3.8024116135977897
0.9494505494505494,3.7790267289510777
0.9692307692307692,3.764969983325922
0.989010989010989,3.760402294074568
1.0087912087912088,3.7653768639740623
1.0285714285714287,3.779837123821158
1.0483516483516484,3.8036189297624308
1.0681318681318681,3.836456808550395
1.087912087912088,3.87799367852551
1.1076923076923075,3.9277932017554007
1.1274725274725275,3.98535377859274
1.1472527472527472,4.050123185905637
1.1670329670329669,4.121512964127399
1.1868131868131868,4.1989118391433955
1.2065934065934065,4.281697681048073
1.2263736263736265,4.369247716091995
1.2461538461538462,4.460946894552894
1.2659340659340659,4.5561944618506285
1.2857142857142858,4.654408879548889
1.3054945054945055,4.755031300833107
1.3252747252747252,4.857527829473005
1.3450549450549452,4.9613907912498085
1.3648351648351649,5.066139230871885
1.3846153846153846,5.17131882253921
1.4043956043956045,5.276501353782424
1.4241758241758242,5.381283913550048
1.443956043956044,5.485287888914274
1.4637362637362636,5.588157851340687
1.4835164835164834,5.689560393633237
1.5032967032967033,5.789182962383353
1.523076923076923,5.886732717724063
1.542857142857143,5.981935441999693
1.5626373626373626,6.074534511155806
1.5824175824175823,6.164289936797857
1.6021978021978023,6.250977482569661
1.621978021978022,6.334387855427325
1.6417582417582417,6.4143259702518955
1.6615384615384616,6.4906102848272536
1.6813186813186813,6.563072201327867
1.7010989010989013,6.631555529973175
1.720879120879121,6.69591601030162
1.7406593406593405,6.7560208855151895
1.7604395604395604,6.8117485254820345
1.7802197802197801,6.862988094213823
1.7999999999999998,6.909639257922221
1.8197802197802198,6.951611930081059
1.8395604395604395,6.9888260502591955
1.8593406593406594,7.021211393834089
1.879120879120879,7.048707410037228
1.8989010989010988,7.071263086117946
1.9186813186813187,7.088836835736951
1.9384615384615385,7.101396410015861
1.9582417582417584,7.10891882997325
1.978021978021978,7.111390339373149
1.9978021978021978,7.108806377299211
2.0175824175824175,7.101171570049939
2.0373626373626372,7.088499742228745
2.0571428571428574,7.070813947180055
2.076923076923077,7.04814651720155
2.096703296703297,7.020539134245086
2.1164835164835165,6.988042922107289
2.1362637362637362,6.9507185614071725
2.1560439560439564,6.90863642895386
2.175824175824176,6.861876763423932
2.195604395604396,6.810529859594681
2.215384615384615,6.754696293716372
2.2351648351648348,6.694487182950097
2.254945054945055,6.630024482143808
2.2747252747252746,6.56144132155909
2.2945054945054943,6.4888823894838
2.314285714285714,6.412504363952355
2.3340659340659338,6.332476398022347
2.353846153846154,6.248980663187565
2.3736263736263736,6.162212955496579
2.3934065934065933,6.0723833687287705
2.413186813186813,5.979717038471203
2.4329670329670328,5.884454960028336
2.452747252747253,5.78685488163877
2.4725274725274726,5.687192272283547
2.4923076923076923,5.585761360219339
2.512087912087912,5.482876233971362
2.5318681318681318,5.3788719915344565
2.5516483516483515,5.274105915559502
2.5714285714285716,5.168958641907022
2.5912087912087913,5.063835275675147
2.610989010989011,4.959166392239986
2.6307692307692307,4.855408840694589
2.6505494505494505,4.7530462433205924
2.6703296703296706,4.652589057823425
2.6901098901098903,4.554574040197973
2.70989010989011,4.4595629175202935
2.7296703296703297,4.368140055353548
2.7494505494505495,4.280908889187963
2.769230769230769,4.198486890574463
2.7890109890109893,4.121498864994037
2.808791208791209,4.050568439146754
2.8285714285714287,3.9863076979686514
2.8483516483516484,3.929305079832098
2.8681318681318677,3.8801118280038556
2.887912087912088,3.8392275127253312
2.9076923076923076,3.80708535416724
2.9274725274725273,3.784038254381507
2.947252747252747,3.7703465441678303
2.9670329670329667,3.766168432138464
2.986813186813187,3.7715539893616756
3.0065934065934066,3.7864432217669437
3.0263736263736263,3.8106684112202207
3.046153846153846,3.8439605044992056
3.0659340659340657,3.8859589648490047
3.085714285714286,3.9362242313202227
3.1054945054945056,3.9942517910613047
3.1252747252747253,4.059486864131668
3.145054945054945,4.131338808095246
3.1648351648351647,4.209194533179784
3.184615384615385,4.292430436153062
3.2043956043956046,4.380422575547525
3.2241758241758243,4.472554996640306
3.243956043956044,4.568226258076297
3.2637362637362637,4.666854310090303
3.2835164835164834,4.767879931047789
3.3032967032967036,4.870768952456431
3.3230769230769233,4.975013501826805
3.342857142857143,5.080132476292447
3.3626373626373627,5.185671434721827
3.3824175824175824,5.2912020673576245
3.4021978021978025,5.396321373310399
3.4219780219780223,5.500650649644065
3.441758241758242,5.603834372418817
3.4615384615384617,5.70553903029567
3.481318681318681,5.805451955102589
3.501098901098901,5.903280180810352
3.520879120879121,5.998749352243796
3.5406593406593405,6.091602697108402
3.5604395604395602,6.181600069105536
3.58021978021978,6.268517065653404
3.5999999999999996,6.352144220688352
3.61978021978022,6.432286270914988
3.6395604395604395,6.5087614924770305
3.659340659340659,6.581401104155142
3.679120879120879,6.650048732721832
3.6989010989010986,6.71455993588915
3.718681318681319,6.774801778289529
3.7384615384615385,6.830652456072014
3.758241758241758,6.882000965928752
3.7780219780219784,6.928746814657657
3.7978021978021976,6.9707997656904235
3.8175824175824173,7.008079619356218
3.8373626373626375,7.040516023996189
3.8571428571428568,7.068048315386979
3.876923076923077,7.090625382266698
3.896703296703296,7.108205556082649
3.916483516483517,7.120756523395403
3.936263736263736,7.128255259678541
3.956043956043956,7.130687983549383
3.9758241758241755,7.1280501307542
3.9956043956043956,7.1203463475138955
4.015384615384615,7.107590503115671
4.035164835164835,7.089805721914761
4.054945054945055,7.067024435189849
4.0747252747252745,7.039288453580239
4.094505494505494,7.006649061122219
4.114285714285715,6.969167132200553
4.134065934065934,6.926913273038567
4.153846153846154,6.879967989668818
4.173626373626373,6.828421884655661
4.193406593406594,6.772375885180098
4.213186813186813,6.711941505444028
4.232967032967033,6.647241146699264
4.252747252747253,6.578408438549989
4.2725274725274724,6.505588625502379
4.292307692307692,6.428939003024301
4.312087912087913,6.348629407606653
4.331868131868132,6.2648427654501
4.351648351648352,6.177775704389092
4.371428571428571,6.087639233444698
4.391208791208792,5.994659493882379
4.410989010989011,5.899078584728249
4.43076923076923,5.801155464220701
4.450549450549451,5.701166926458235
4.4703296703296695,5.59940864931318
4.49010989010989,5.496196305228174
4.50989010989011,5.391866720451202
4.52967032967033,5.286779060194628
4.549450549450549,5.181316006679127
4.569230769230769,5.075884883585798
4.589010989010989,4.970918663668916
4.608791208791209,4.8668767758913924
4.628571428571428,4.764245604420366
4.648351648351649,4.663538544627864
4.6681318681318675,4.565295452096886
4.687912087912088,4.4700812918373884
4.707692307692308,4.37848377020825
4.7274725274725276,4.291109716885962
4.747252747252747,4.208579985896906
4.767032967032967,4.131522671984319
4.786813186813187,4.060564500614985
4.806593406593407,3.9963203544877017
4.826373626373626,3.93938104992194
4.846153846153847,3.8902996686637494
4.8659340659340655,3.8495769691980186
4.885714285714286,3.817646618947107
4.905494505494506,3.7948611665568888
4.9252747252747255,3.7814797693492372
4.945054945054945,3.777658668568846
4.964835164835165,3.7834452459030143
4.984615384615385,3.7987762078227383
5.004395604395604,3.82348006798321
5.024175824175824,3.8572836929800687
5.043956043956045,3.8998223113444346
5.0637362637362635,3.9506521177118366
5.083516483516483,4.0092644674136535
5.103296703296703,4.07510065537144
5.123076923076923,4.147566385050303
5.142857142857143,4.2260452201686
5.162637362637362,4.30991053150454
5.182417582417583,4.398535666729718
5.2021978021978015,4.4913022571122925
5.221978021978022,4.58760671788502
5.241758241758242,4.686865096254104
5.2615384615384615,4.788516476791748
5.281318681318681,4.892025176446769
5.301098901098901,4.996881959840633
5.320879120879121,5.102604488433701
5.340659340659341,5.208737191527707
5.36043956043956,5.314850718080933
5.380219780219781,5.420541099428281
5.3999999999999995,5.52542872631739
5.41978021978022,5.62915722026701
5.43956043956044,5.73139225949658
5.4593406593406595,5.831820403496493
5.479120879120879,5.930147947392979
5.498901098901099,6.026099827178829
5.518681318681319,6.119418589174144
5.538461538461538,6.209863431311273
5.558241758241758,6.297209319613402
5.578021978021979,6.381246180221757
5.5978021978021975,6.461778165243216
5.617582417582418,6.5386229893131125
5.637362637362637,6.611611332918085
5.6571428571428575,6.6805863080606205
5.676923076923077,6.745402981663098
5.696703296703297,6.805927952122165
5.716483516483517,6.862038974572897
5.736263736263735,6.9136246306605385
5.756043956043956,6.9605840389126215
5.775824175824176,7.002826602131782
5.795604395604395,7.040271788572911
5.815384615384615,7.072848944016274
5.835164835164835,7.100497132192867
5.854945054945055,7.123165001355526
5.874725274725275,7.140810675116861
5.894505494505494,7.153401665991629
5.914285714285715,7.160914810387556
5.934065934065933,7.163336224085945
5.953846153846154,7.160661277542883
5.973626373626374,7.152894590626096
5.993406593406593,7.14005004668344
6.013186813186813,7.122150826119315
6.032967032967033,7.099229459936982
6.052747252747253,7.071327903990814
6.072527472527473,7.038497634984806
6.092307692307692,7.000799769554328
6.112087912087913,6.958305208078644
6.131868131868131,6.911094805193534
6.151648351648352,6.859259569306076
6.171428571428572,6.8029008937568785
6.191208791208791,6.7421308226255166
6.210989010989011,6.677072354528397
6.230769230769231,6.607859788105983
6.2505494505494505,6.534639113226444
6.270329670329671,6.457568452227203
6.29010989010989,6.376818555749142
6.309890109890111,6.292573357854431
6.329670329670329,6.205030595110481
6.349450549450549,6.1144024941026105
6.36923076923077,6.020916531320998
6.3890109890109885,5.92481626843792
6.408791208791209,5.826362264501728
6.428571428571428,5.725833064335068
6.4483516483516485,5.623526259198957
6.468131868131868,5.519759611278761
6.487912087912088,5.414872227412388
6.507692307692308,5.309225759306436
6.527472527472527,5.203205596821005
6.547252747252747,5.097222007281109
6.567032967032967,4.991711156765039
6.5868131868131865,4.887135928635364
6.606593406593407,4.783986430202419
6.626373626373626,4.682780050816746
6.6461538461538465,4.584060905115319
6.665934065934065,4.488398465940264
6.685714285714286,4.396385166417243
6.705494505494506,4.308632735392786
6.725274725274725,4.225767032298592
6.745054945054945,4.148421175437674
6.764835164835165,4.077226821024826
6.7846153846153845,4.012803556900616
6.804395604395605,3.9557465280940645
6.824175824175824,3.9066126068107874
6.8439560439560445,3.865905641290682
6.863736263736263,3.8340615380016487
6.883516483516484,3.8114341108374763
6.903296703296704,3.7982827262083587
6.923076923076923,3.7947627474168977
6.942857142857143,3.800919617332513
6.962637362637362,3.8166871248450382
6.9824175824175825,3.84189001756251
7.002197802197802,3.87625071284051
7.021978021978022,3.9193994907049308
7.041758241758242,3.9708872839315545
7.061538461538461,4.030200046003517
7.081318681318681,4.0967736801449774
7.101098901098901,4.170008629033602
7.1208791208791204,4.249283416021255
7.140659340659341,4.333966651747485
7.16043956043956,4.423427237883703
7.1802197802197805,4.51704268680026
7.199999999999999,4.614205619135789
7.21978021978022,4.714328598043055
7.23956043956044,4.8168475139227755
7.259340659340659,4.921223755093219
7.279120879120879,5.026945397442495
7.298901098901099,5.133527628298396
7.318681318681318,5.240512593540945
7.338461538461539,5.3474688275432944
7.358241758241758,5.45399039631767
7.3780219780219785,5.559695857341315
7.397802197802197,5.6642271159910225
7.417582417582418,5.76724823867472
7.437362637362638,5.868444266527572
7.457142857142857,5.967520060609819
7.476923076923077,6.064199199463934
7.496703296703297,6.15822294219463
7.516483516483516,6.249349264483351
7.536263736263736,6.337351970744912
7.556043956043957,6.422019882639402
7.575824175824176,6.503156102089336
7.595604395604395,6.580577345592047
7.615384615384615,6.654113345783711
7.635164835164835,6.723606315761731
7.654945054945055,6.78891047150047
7.674725274725275,6.849891607718529
7.694505494505494,6.906426722713338
7.7142857142857135,6.958403687924502
7.734065934065935,7.005720958288926
7.753846153846154,7.048287319783541
7.7736263736263735,7.086021670899764
7.793406593406592,7.118852835145505
7.813186813186814,7.146719402019141
7.832967032967034,7.169569594240052
7.852747252747252,7.187361159350769
7.872527472527472,7.2000612841249
7.892307692307693,7.207646530524108
7.912087912087912,7.210102792246725
7.931868131868132,7.207425271202689
7.951648351648351,7.19961847353601
7.971428571428572,7.186696225099372
7.991208791208791,7.168681706568072
8.010989010989011,7.145607508665404
8.03076923076923,7.117515708260175
8.05054945054945,7.084457966392779
8.07032967032967,7.046495649590448
8.09010989010989,7.003699976146896
8.10989010989011,6.956152189367583
8.129670329670331,6.903943760119946
8.149450549450549,6.847176621376081
8.169230769230769,6.785963437792562
8.189010989010988,6.720427913731888
8.20879120879121,6.650705143485426
8.22857142857143,6.576942007795845
8.248351648351647,6.499297621080157
8.268131868131867,6.417943833996531
8.287912087912087,6.333065796143818
8.307692307692308,6.244862583682448
8.327472527472528,6.153547896453709
8.347252747252746,6.059350828662414
8.367032967032966,5.962516716260842
8.386813186813187,5.863308062678184
8.406593406593407,5.762005542288592
8.426373626373627,5.658909077759845
8.446153846153845,5.554338982876573
8.465934065934066,5.448637156228446
8.485714285714286,5.342168302878799
8.505494505494505,5.235321150319858
8.525274725274725,5.128509611197934
8.545054945054945,5.022173828015542
8.564835164835165,4.916781013982424
8.584615384615384,4.812825979369939
8.604395604395604,4.7108312045954825
8.624175824175826,4.611346291076193
8.643956043956043,4.514946591023691
8.663736263736263,4.422230791680988
8.683516483516483,4.33381721371151
8.703296703296704,4.250338585113196
8.723076923076924,4.172435080261743
8.742857142857142,4.100745478072732
8.762637362637362,4.035896401865494
8.782417582417583,3.978489759843692
8.802197802197803,3.929088704568744
8.821978021978023,3.888202656331853
8.84175824175824,3.856272159904823
8.86153846153846,3.8336545268072046
8.881318681318682,3.820611311751053
8.901098901098901,3.8172986447689836
8.920879120879121,3.823761271300447
8.940659340659339,3.8399308515037163
8.96043956043956,3.865628678267016
8.98021978021978,3.9005725546724612
9.0,3.9443871968843554
9.01978021978022,3.9966172570322094
9.03956043956044,4.056741926394033
9.05934065934066,4.124190084747634
9.079120879120879,4.1983550829768275
9.098901098901099,4.278608442595498
9.11868131868132,4.36431198380037
9.138461538461538,4.4548281153369835
9.158241758241758,4.5495282090421565
9.178021978021977,4.647799126417053
9.197802197802199,4.749048061713273
9.217582417582419,4.852705920720918
9.237362637362637,4.958229475374267
9.257142857142856,5.065102531025162
9.276923076923078,5.172836324554299
9.296703296703297,5.280969344499279
9.316483516483517,5.389066734283529
9.336263736263735,5.496719409902275
9.356043956043957,5.60354299612699
9.375824175824176,5.7091766614584
9.395604395604396,5.8132819120195185
9.415384615384616,5.915541388228007
9.435164835164835,6.015657695074948
9.454945054945055,6.1133522867108265
9.474725274725275,6.208364418323852
9.494505494505495,6.3004501725378015
9.514285714285714,6.3893815633574995
9.534065934065934,6.474945717706375
9.553846153846154,6.556944132551105
9.573626373626373,6.635192004264432
9.593406593406593,6.7095176260585045
9.613186813186815,6.779761848886787
9.632967032967032,6.845777601054661
9.652747252747252,6.907429461814496
9.672527472527472,6.964593284390143
9.692307692307693,7.017155864131461
9.712087912087913,7.065014647809968
9.731868131868131,7.108077480407517
9.75164835164835,7.146262386105052
9.771428571428572,7.179497380536289
9.791208791208792,7.207720311725339
9.810989010989012,7.2308787274722155
9.83076923076923,7.248929767284979
9.850549450549451,7.261840077280654
9.87032967032967,7.2695857467895
9.89010989010989,7.272152265700373
9.90989010989011,7.269534501880413
9.92967032967033,7.26173669829183
9.94945054945055,7.248772489715922
9.96923076923077,7.230664939280061
9.989010989010989,7.207446595272284
10.008791208791209,7.179159569020421
10.028571428571428,7.145855634913066
10.048351648351648,7.107596353948224
10.068131868131868,7.06445322251571
10.08791208791209,7.0165078484510515
10.107692307692307,6.963852156743543
10.127472527472527,6.906588627636782
10.147252747252747,6.844830570225775
10.167032967032966,6.7787024350240905
10.186813186813188,6.708340169340935
10.206593406593406,6.633891619658402
10.226373626373626,6.555516985515923
10.246153846153845,6.473389329666159
10.265934065934067,6.38769514942877
10.285714285714286,6.2986350141859635
10.305494505494504,6.206424273769837
10.325274725274724,6.111293841998107
10.345054945054946,6.013491058703542
10.364835164835165,5.913280632122101
10.384615384615385,5.810945661259885
10.404395604395603,5.706788734603264
10.424175824175824,5.601133096967711
10.443956043956044,5.494323870030373
10.463736263736264,5.386729303734365
10.483516483516484,5.278742024810385
10.503296703296703,5.170780234637376
10.523076923076923,5.063288791096436
10.542857142857143,4.956740087633211
10.562637362637362,4.8516346173839775
10.582417582417584,4.748501081394368
10.602197802197802,4.647895868908637
10.621978021978022,4.55040170682982
10.641758241758241,4.456625248679643
10.661538461538463,4.367193356521553
10.681318681318682,4.282747830117933
10.7010989010989,4.203938365468418
10.72087912087912,4.131413589762313
10.740659340659342,4.06581013011549
10.760439560439561,4.007739833104062
10.780219780219781,3.957775456565901
10.799999999999999,3.916435388107331
10.819780219780219,3.8841681764603337
10.83956043956044,3.8613378510716974
