Time (s),Filtered Signal
0.0,-0.06849251954934212
0.03337004405286344,-0.12255342371740212
0.06674008810572687,-0.14798076123423265
0.10011013215859031,-0.12782950344923535
0.13348017621145375,-0.06245108681007533
0.16685022026431717,0.03013953852628676
0.20022026431718062,0.12049423864944842
0.23359030837004408,0.17842635726966122
0.2669603524229075,0.18428969079310265
0.3003303964757709,0.13658135579802813
0.33370044052863435,0.05285375908730423
0.3670704845814978,-0.03658798386449975
0.40044052863436125,-0.09993627830049309
0.43381057268722467,-0.11586177341729255
0.46718061674008815,-0.08171003566767768
0.5005506607929515,-0.014850851413856054
0.533920704845815,0.053325863712220964
0.5672907488986785,0.08863791106265642
0.6006607929515418,0.06664761201048718
0.6340308370044053,-0.017832199981107848
0.6674008810572687,-0.14762393907169633
0.7007709251101322,-0.28775143616498894
0.7341409691629956,-0.396370790302915
0.767511013215859,-0.43837830080142554
0.8008810572687225,-0.3967445774457579
0.834251101321586,-0.2771916718786876
0.8676211453744493,-0.10436196465871136
0.9009911894273128,0.08869947273680082
0.9343612334801763,0.2727979490218874
0.9677312775330397,0.4308141600027512
1.001101321585903,0.5583607216897761
1.0344713656387665,0.6575377051703056
1.06784140969163,0.7282524951340559
1.1012114537444935,0.7626927988700705
1.134581497797357,0.7463778044003299
1.1679515418502202,0.6652034999574135
1.2013215859030837,0.5145088485464502
1.2346916299559472,0.3052550436126178
1.2680616740088106,0.06410227096449803
1.3014317180616741,-0.1727938559018067
1.3348017621145374,-0.36973586347299614
1.3681718061674009,-0.5013618961299325
1.4015418502202643,-0.5589282815302852
1.4349118942731278,-0.5509868355423845
1.4682819383259913,-0.4985605996380121
1.5016519823788548,-0.426995267824957
1.535022026431718,-0.35796933228293604
1.5683920704845815,-0.30500375167844523
1.601762114537445,-0.2740140507180762
1.6351321585903085,-0.26766596557062655
1.668502202643172,-0.28996872332891754
1.7018722466960352,-0.34711945932940574
1.7352422907488987,-0.4426393510164891
1.7686123348017622,-0.5685057306052221
1.8019823788546256,-0.6974273910881832
1.8353524229074891,-0.7825683829800172
1.8687224669603526,-0.768637690027137
1.9020925110132159,-0.6127318666485031
1.9354625550660793,-0.30701550144038275
1.9688325991189428,0.10816731268713436
2.002202643171806,0.5499346431568317
2.0355726872246698,0.9184291644074782
2.068942731277533,1.1332231519956755
2.1023127753303967,1.1646423612400325
2.13568281938326,1.0449930708366022
2.1690528634361232,0.8535127700244741
2.202422907488987,0.6812771756674572
2.23579295154185,0.5918861098742532
2.269162995594714,0.5956832532443311
2.302533039647577,0.64876142223618
2.3359030837004404,0.6764665454089283
2.369273127753304,0.6101197315307803
2.4026431718061674,0.4201655784155437
2.436013215859031,0.13106913229786937
2.4693832599118943,-0.18825129200964832
2.5027533039647576,-0.45370733420235887
2.5361233480176213,-0.6016016014007607
2.5694933920704845,-0.6144217155742501
2.6028634361233483,-0.5255624200369117
2.6362334801762115,-0.40168086949534043
2.6696035242290748,-0.3118922872281677
2.7029735682819385,-0.29873803531121246
2.7363436123348017,-0.36392430469228515
2.7697136563876654,-0.4735339959261467
2.8030837004405287,-0.577552596140794
2.8364537444933924,-0.6325231365872211
2.8698237885462556,-0.6167526629961703
2.903193832599119,-0.5334801197583453
2.9365638766519826,-0.4045651401412672
2.969933920704846,-0.261140917652031
3.0033039647577096,-0.13637675317523196
3.036674008810573,-0.06074182344309218
3.070044052863436,-0.05615303167689771
3.1034140969162998,-0.12590471925658564
3.136784140969163,-0.2427170354763536
3.1701541850220267,-0.3436859279364036
3.20352422907489,-0.342381376789283
3.2368942731277532,-0.161234028571489
3.270264317180617,0.2258728780706564
3.30363436123348,0.7621177377774635
3.337004405286344,1.3090785714609674
3.370374449339207,1.6890782973670464
3.4037444933920704,1.7550933945504166
3.437114537444934,1.4572123914026949
3.4704845814977974,0.8722913729913232
3.503854625550661,0.17926836034746252
3.5372246696035243,-0.4111193336675111
3.5705947136563876,-0.7407347461925162
3.6039647577092513,-0.7640484298980322
3.6373348017621145,-0.5573831780935877
3.6707048458149782,-0.2756054007910758
3.7040748898678415,-0.07877051636101177
3.737444933920705,-0.06349551021005452
3.7708149779735685,-0.22904355578422103
3.8041850220264317,-0.48981277506221244
3.8375550660792954,-0.7237654984266092
3.8709251101321587,-0.8309552708333227
3.9042951541850224,-0.7743093618149715
3.9376651982378856,-0.5860544556833325
3.971035242290749,-0.34126922790844055
4.004405286343612,-0.11575738476847247
4.037775330396476,0.048807077363672804
4.0711453744493395,0.15586905458805128
4.104515418502203,0.23881611707847625
4.137885462555066,0.3314775953870597
4.171255506607929,0.44265598553542035
4.2046255506607935,0.5490787824576805
4.237995594713657,0.6096621266618302
4.27136563876652,0.5917021384511967
4.304735682819383,0.49324963842809594
4.3381057268722465,0.3486061436376145
4.371475770925111,0.21370450760376536
4.404845814977974,0.13941069124797034
4.438215859030837,0.14723914275617436
4.4715859030837,0.2202350167381379
4.504955947136564,0.31311322176887935
4.538325991189428,0.3752144906572047
4.571696035242291,0.37336475109797285
4.605066079295154,0.30277359136081516
4.638436123348018,0.18178570896594887
4.671806167400881,0.035895210276767335
4.705176211453745,-0.11782670371674249
4.738546255506608,-0.2762136405134405
4.7719162995594715,-0.4432129536880836
4.805286343612335,-0.6171003974626603
4.838656387665198,-0.7817887002588647
4.872026431718062,-0.9090819192815317
4.905396475770925,-0.9708837369571494
4.938766519823789,-0.9534176063811973
4.972136563876652,-0.8641603422396332
5.005506607929515,-0.7271620589058946
5.038876651982379,-0.5701682250553516
5.072246696035243,-0.41217981393961867
5.105616740088106,-0.2593201962356569
5.138986784140969,-0.11073712484278242
5.172356828193832,0.030996797518261364
5.2057268722466965,0.1538669405976471
5.23909691629956,0.2406564937148615
5.272466960352423,0.28183464935032543
5.305837004405286,0.2885221247456289
5.3392070484581495,0.29534173951447296
5.372577092511014,0.34816639891133605
5.405947136563877,0.4809478219503862
5.43931718061674,0.6934418983445703
5.4726872246696034,0.9429055410576129
5.506057268722468,1.1564995468141381
5.539427312775331,1.2603944327067673
5.572797356828194,1.2122818471184056
5.606167400881057,1.0213079653127928
5.639537444933921,0.7449980932865786
5.672907488986785,0.46382542424015344
5.706277533039648,0.24516154254019532
5.739647577092511,0.1139018918581879
5.7730176211453745,0.04421227322914262
5.806387665198238,-0.0232638754069682
5.839757709251102,-0.14703352195031094
5.873127753303965,-0.35045422909838087
5.9064977973568284,-0.6052525938052588
5.939867841409692,-0.8419971019699211
5.973237885462555,-0.9830113727238203
6.006607929515419,-0.9815263539542136
6.039977973568282,-0.8473636185542854
6.073348017621146,-0.6460248581258451
6.106718061674009,-0.4712214054198352
6.140088105726872,-0.40374298288667093
6.173458149779736,-0.4757816692453319
6.2068281938325995,-0.656773215065183
6.240198237885463,-0.8664883303435166
6.273568281938326,-1.0086722998766156
6.306938325991189,-1.0097337474348635
6.3403083700440535,-0.8456233377767651
6.373678414096917,-0.5464128952063646
6.40704845814978,-0.17886269649493614
6.440418502202643,0.1829372945500342
6.4737885462555065,0.48468320442345647
6.507158590308371,0.705741884840593
6.540528634361234,0.8568278112591616
6.573898678414097,0.9664762590580956
6.60726872246696,1.0649801595705495
6.640638766519824,1.1726508277378733
6.674008810572688,1.294396843022632
6.707378854625551,1.4186697962143557
6.740748898678414,1.5183544877178283
6.774118942731278,1.5535691650841197
6.807488986784141,1.4785998160416778
6.840859030837005,1.2545665592202226
6.874229074889868,0.865694159827145
6.9075991189427315,0.33280914386160226
6.940969162995595,-0.28361112704052927
6.974339207048458,-0.8950639633064884
7.007709251101322,-1.4086940693095962
7.041079295154185,-1.7539503900884814
7.074449339207049,-1.9011145641891303
7.107819383259912,-1.8644520155786353
7.141189427312775,-1.6904284254728077
7.174559471365639,-1.4384032118531607
7.207929515418503,-1.163347176626221
7.241299559471366,-0.9065443420997458
7.274669603524229,-0.6938824790795088
7.308039647577092,-0.5368851152900109
7.3414096916299565,-0.43208433989733197
7.37477973568282,-0.3588231461422413
7.408149779735683,-0.28007509087234683
7.441519823788546,-0.1512344303572835
7.47488986784141,0.0629438456002979
7.508259911894274,0.36987125788073993
7.541629955947137,0.7394508006098812
7.575,1.1108025705527984
7.608370044052863,1.414769968110602
7.641740088105728,1.6025938555930752
7.675110132158591,1.6667598826426313
7.708480176211454,1.6429066984436034
7.741850220264317,1.590420372856205
7.775220264317181,1.5596566605807491
7.808590308370045,1.5608650371403725
7.841960352422908,1.5505281596540752
7.875330396475771,1.4441561035399082
7.9087004405286345,1.1527454558386319
7.942070484581498,0.628091448486651
7.975440528634362,-0.10396349320244197
8.008810572687224,-0.9393761370123604
8.042180616740088,-1.7249377178197243
8.075550660792953,-2.3088570810002906
8.108920704845815,-2.5910374810595034
8.142290748898679,-2.5519302211448567
8.175660792951541,-2.2497912249500254
8.209030837004406,-1.7910454542963892
8.24240088105727,-1.2894639804784973
8.275770925110132,-0.8320919781158468
8.309140969162996,-0.46356575623459656
8.342511013215859,-0.19004164583275093
8.375881057268723,0.00488078048329039
8.409251101321587,0.14316074714755309
8.44262114537445,0.24234747272862428
8.475991189427313,0.31442360036831724
8.509361233480176,0.36949792112995106
8.54273127753304,0.4184223463626751
8.576101321585904,0.470833302629501
8.609471365638766,0.5297677752911408
8.64284140969163,0.5874688289335827
8.676211453744493,0.6268610608476666
8.709581497797357,0.6295525066059058
8.742951541850221,0.5865789183065561
8.776321585903084,0.5056029657464021
8.809691629955948,0.40969318628175816
8.84306167400881,0.3274322310805426
8.876431718061674,0.2792309851954503
8.909801762114538,0.2673022227759532
8.9431718061674,0.27517060866173404
8.976541850220265,0.2775919301610562
9.009911894273127,0.2559516839162786
9.043281938325991,0.21075308659852332
9.076651982378856,0.16374524308789393
9.110022026431718,0.1474447602525307
9.143392070484582,0.18677468516026172
9.176762114537445,0.2824764008900037
9.210132158590309,0.4057506441409125
9.243502202643173,0.5079102844300564
9.276872246696035,0.5406948150734625
9.3102422907489,0.4770594937524329
9.343612334801762,0.32217391765184605
9.376982378854626,0.10989515044188648
9.41035242290749,-0.11246451039761236
9.443722466960352,-0.30313316685917907
9.477092511013216,-0.44038382424578587
9.510462555066079,-0.5278964537907083
9.543832599118943,-0.5908920349792743
9.577202643171807,-0.6658596858362595
9.61057268722467,-0.7872980071413889
9.643942731277534,-0.9743227398511071
9.677312775330396,-1.2196806606800097
9.71068281938326,-1.4840409271740986
9.744052863436124,-1.6986247966363808
9.777422907488987,-1.7781841801619382
9.81079295154185,-1.6435636920771062
9.844162995594713,-1.2491001178153511
9.877533039647577,-0.6063713650101524
9.910903083700441,0.2056890502735429
9.944273127753304,1.0517386558789277
9.977643171806168,1.7724773783228744
10.01101321585903,2.229762544115668
10.044383259911895,2.3483168084627724
10.077753303964759,2.1372680060212987
10.111123348017621,1.682260196383695
10.144493392070485,1.1116273279820998
10.177863436123348,0.5516939511783508
10.211233480176212,0.09041339525195437
10.244603524229076,-0.23691006594908795
10.277973568281938,-0.4379142532800849
10.311343612334802,-0.5392420203600821
10.344713656387665,-0.5635773088454112
10.378083700440529,-0.5198243410778897
10.411453744493393,-0.4094130934284226
10.444823788546255,-0.24178090879315034
10.47819383259912,-0.0469260964706148
10.511563876651982,0.12479733347935983
10.544933920704846,0.21745784742652488
10.57830396475771,0.19187161777457354
10.611674008810573,0.04387994463067127
10.645044052863437,-0.19103171880558797
10.678414096916299,-0.4493773915177917
10.711784140969163,-0.6621946972372219
10.745154185022027,-0.778214944750252
10.77852422907489,-0.7778558213764345
10.811894273127754,-0.6732628161826251
10.845264317180618,-0.4965069029962847
10.87863436123348,-0.2832410483218209
10.912004405286345,-0.06015160047728817
10.945374449339207,0.15873127046575417
10.978744493392071,0.3671716901489643
11.012114537444935,0.5579830425880353
11.045484581497798,0.7163521412100542
11.078854625550662,0.8193728442513051
11.112224669603524,0.8425072400023468
11.145594713656388,0.7703607367049793
11.178964757709252,0.6070147444517133
11.212334801762115,0.380760481943851
11.245704845814979,0.13971575922708546
11.279074889867841,-0.06166536516655178
11.312444933920705,-0.18086193530931025
11.34581497797357,-0.2029354834511617
11.379185022026432,-0.14631332991686594
11.412555066079296,-0.05534877866427812
11.445925110132158,0.017681079164482208
11.479295154185023,0.033349313456772965
11.512665198237887,-0.020637492204814985
11.546035242290749,-0.12777356019844074
11.579405286343613,-0.25357827795761106
11.612775330396476,-0.3626491923933737
11.64614537444934,-0.43297726004088344
11.679515418502204,-0.46080483215411805
11.712885462555066,-0.4552494632059642
11.74625550660793,-0.4280579882956069
11.779625550660793,-0.38640363216224394
11.812995594713657,-0.33385290532062556
11.846365638766521,-0.27812160094739224
11.879735682819383,-0.23825468141218528
11.913105726872248,-0.2427529056334221
11.94647577092511,-0.3154786082842771
11.979845814977974,-0.4552000851799138
12.013215859030838,-0.6215912132622818
12.0465859030837,-0.7399829362970061
12.079955947136565,-0.7279597404301168
12.113325991189427,-0.5335824543486021
12.146696035242291,-0.16576037862956935
12.180066079295155,0.3012241131965495
12.213436123348018,0.7543735985106382
12.246806167400882,1.0881183342966612
12.280176211453744,1.2469912398699203
12.313546255506608,1.2434016027081005
12.346916299559473,1.142596216706989
12.380286343612335,1.0244214578023372
12.413656387665199,0.9429771441150414
12.447026431718061,0.904692763478254
12.480396475770926,0.8739521169196546
12.51376651982379,0.8001898442907673
12.547136563876652,0.6498410091097457
12.580506607929516,0.4257769040863089
12.613876651982379,0.16528498935085764
12.647246696035243,-0.08016315912195475
12.680616740088107,-0.2709194583290459
12.71398678414097,-0.3967104778053452
12.747356828193833,-0.4772335228402156
12.780726872246696,-0.5469114565943027
12.81409691629956,-0.6331781350588862
12.847466960352424,-0.740424130631666
12.880837004405286,-0.8479082800669537
12.91420704845815,-0.9219359079107056
12.947577092511013,-0.9349138838798853
12.980947136563877,-0.8805995306131748
13.014317180616741,-0.7774434982553263
13.047687224669604,-0.6586395294369671
13.081057268722468,-0.5545565940428998
13.11442731277533,-0.4769761600937002
13.147797356828194,-0.41329477729034864
13.181167400881058,-0.3335371153668301
13.21453744493392,-0.20657203987499603
13.247907488986785,-0.01757859805860305
13.281277533039647,0.2215147917573744
13.314647577092511,0.4733891097101226
13.348017621145376,0.6878301184635862
13.381387665198238,0.819852847103959
13.414757709251102,0.8457231401771242
13.448127753303964,0.7703723346383184
13.481497797356829,0.6237130587681369
13.514867841409693,0.44824699844297017
13.548237885462555,0.2838196014243695
13.58160792951542,0.1558917903722637
13.614977973568282,0.0712613813840824
13.648348017621146,0.02125699020917141
13.68171806167401,-0.010820800770445647
13.715088105726872,-0.04222251671276472
13.748458149779736,-0.08600981375494728
13.781828193832599,-0.14927169805184543
13.815198237885463,-0.2327162752085824
13.848568281938327,-0.3301463487109596
13.88193832599119,-0.42793126648380775
13.915308370044054,-0.5061311206127355
13.948678414096916,-0.5428523435365781
13.98204845814978,-0.5214349792754048
14.015418502202644,-0.4375256895864309
14.048788546255507,-0.3020087636939555
14.08215859030837,-0.13734702878408095
14.115528634361233,0.03152476239818185
14.148898678414097,0.18721268639693944
14.182268722466961,0.3253303036547751
14.215638766519824,0.4523234868079268
14.249008810572688,0.5768612265751436
14.28237885462555,0.6997034019814945
14.315748898678414,0.8079352142747552
14.349118942731279,0.8772320585401167
14.382488986784141,0.8816312560714883
14.415859030837005,0.8062797094753789
14.449229074889868,0.6567853049091068
14.482599118942732,0.4601034827887229
14.515969162995596,0.2558274095140224
14.549339207048458,0.08143550968038327
14.582709251101322,-0.04190068845255673
14.616079295154185,-0.11652434952560338
14.649449339207049,-0.1653812654487181
14.682819383259913,-0.22050864233291856
14.716189427312775,-0.3081422802332401
14.74955947136564,-0.43677792278377814
14.782929515418502,-0.5928809223561857
14.816299559471366,-0.7456082554915195
14.84966960352423,-0.8584233461908642
14.883039647577093,-0.9030834434562505
14.916409691629957,-0.870769329924222
14.94977973568282,-0.7761489059470975
14.983149779735683,-0.652571226525645
15.016519823788547,-0.5397337312375802
15.04988986784141,-0.4681385881594124
15.083259911894274,-0.44636902733400835
15.116629955947138,-0.4567415084446616
15.15,-0.4619598701082999
15.183370044052865,-0.420837221694737
15.216740088105727,-0.30681365583664455
15.250110132158591,-0.1210353150122119
15.283480176211455,0.10650536018927556
15.316850220264318,0.32921044132475835
15.350220264317182,0.5046362258465779
15.383590308370044,0.6142553370864418
15.416960352422908,0.6721302001581235
15.450330396475772,0.7167591601705227
15.483700440528635,0.7883007166809407
15.517070484581499,0.9015555822602799
15.550440528634361,1.0292365502543483
15.583810572687225,1.1070622392496359
15.61718061674009,1.0621914683369624
15.650550660792952,0.8536500805024331
15.683920704845816,0.5044544442740672
15.717290748898678,0.10597226824091766
15.750660792951543,-0.2130481465429444
15.784030837004407,-0.34232140094998864
15.817400881057269,-0.24532713613883506
15.850770925110133,0.014467212358688575
15.884140969162996,0.2931030549221518
15.91751101321586,0.4259553632148175
15.950881057268724,0.3014142967771259
15.984251101321586,-0.08660690519509222
16.01762114537445,-0.632984834966951
16.050991189427315,-1.165209668610574
16.084361233480177,-1.515078098668948
16.11773127753304,-1.5840236596482329
16.151101321585905,-1.373292664317278
16.184471365638768,-0.9695954544388903
16.21784140969163,-0.4988655063796096
16.251211453744492,-0.07373988652436651
16.284581497797358,0.24106892645490507
16.31795154185022,0.4343967584619022
16.351321585903083,0.5304411721740944
16.38469162995595,0.5626500228911282
16.41806167400881,0.5558568794685809
16.451431718061674,0.5240609761738998
16.48480176211454,0.4796469414368385
16.518171806167402,0.44268376775968976
16.551541850220264,0.44022294503855464
16.584911894273127,0.49371812651856783
16.618281938325993,0.6020643179615262
16.651651982378855,0.7321433582153145
16.685022026431717,0.8253933332713774
16.718392070484583,0.8198616627344655
16.751762114537446,0.6778633493128897
16.785132158590308,0.4052225765885537
16.818502202643174,0.051594971232350705
16.851872246696036,-0.30925499980194937
16.8852422907489,-0.6101038983270374
16.91861233480176,-0.8170525446706118
16.951982378854627,-0.9395138535205461
16.98535242290749,-1.0188871577637153
17.01872246696035,-1.1020121501654103
17.052092511013218,-1.2129477284421182
17.08546255506608,-1.3372806339611396
17.118832599118942,-1.4268517932679565
17.152202643171808,-1.422686757851252
17.18557268722467,-1.2849253548678086
17.218942731277533,-1.0149272879146056
17.2523127753304,-0.6582219943926246
17.28568281938326,-0.2860628608752268
17.319052863436124,0.03609660810413841
17.352422907488986,0.2779124477467189
17.385792951541852,0.4562601277593937
