Frequency (Hz),Amplitude
0.0,4.522434467142055
0.01993355481727575,4.520226915043702
0.0398671096345515,4.51360650562091
0.059800664451827246,4.50257997803987
0.079734219269103,4.487158559426428
0.09966777408637874,4.4673579577018305
0.11960132890365449,4.443198351679694
0.13953488372093023,4.414704378555865
0.159468438538206,4.381905118967699
0.17940199335548174,4.344834079849878
0.19933554817275748,4.303529175372392
0.21926910299003324,4.258032706314985
0.23920265780730898,4.2083913383141205
0.25913621262458475,4.154656079517469
0.27906976744186046,4.096882258301407
0.29900332225913623,4.035129501855929
0.318936877076412,3.9694617166265243
0.3388704318936877,3.899947071835285
0.3588039867109635,3.8266579875980486
0.37873754152823924,3.749671129530557
0.39867109634551495,3.6690674122208087
0.4186046511627907,3.5849320145732837
0.4385382059800665,3.497354410853372
0.4584717607973422,3.4064284223467727
0.47840531561461797,3.3122522959963083
0.49833887043189373,3.214928818326459
0.5182724252491695,3.1145654756130416
0.5382059800664452,3.011274674891764
0.5581395348837209,2.905174045450944
0.5780730897009968,2.7963868475571907
0.5980066445182725,2.685042525280351
0.6179401993355482,2.5712774548956774
0.637873754152824,2.455235961756688
0.6578073089700996,2.337071710423384
0.6777408637873754,2.2169496211405515
0.6976744186046512,2.095048540302123
0.717607973421927,1.971565009853547
0.7375415282392027,1.846718669189209
0.7574750830564785,1.7207601332914346
0.7774086378737541,1.593982713460367
0.7973421926910299,1.4667402498780346
0.8172757475083057,1.3394749252753984
0.8372093023255814,1.2127618329739769
0.8571428571428572,1.0873824425558065
0.877076411960133,0.9644490850546893
0.8970099667774087,0.8456205625598524
0.9169435215946844,0.7334772515540974
0.9368770764119602,0.6321458885911281
0.9568106312292359,0.5481626633203058
0.9767441860465116,0.4909228560348955
0.9966777408637875,0.4705482123087317
1.0166112956810631,0.49172599694346847
1.036544850498339,0.5496045422841974
1.0564784053156147,0.6340297703015089
1.0764119601328903,0.7356560626332326
1.0963455149501662,0.848002425913998
1.1162790697674418,0.9669800799683578
1.1362126245847177,1.0900315610742795
1.1561461794019936,1.2155115323798173
1.176079734219269,1.3423156557579996
1.196013289036545,1.4696673098769366
1.2159468438538206,1.5969944086989998
1.2358803986710964,1.7238566680407967
1.255813953488372,1.8499014572299195
1.275747508305648,1.9748362324682582
1.2956810631229239,2.098410853806942
1.3156146179401993,2.220405957474456
1.3355481727574752,2.34062513719617
1.3554817275747508,2.458889581247864
1.3754152823920267,2.575034329180107
1.3953488372093024,2.6889056192781053
1.4152823920265782,2.800358984650802
1.435215946843854,2.909257872104044
1.4551495016611296,3.015472631853441
1.4750830564784054,3.11887977404507
1.495016611295681,3.2193614196920435
1.514950166112957,3.3168048948885764
1.5348837209302328,3.4111024316684833
1.5548172757475083,3.502150948921897
1.5747508305647842,3.589851893839627
1.5946843853820598,3.6741111293733657
1.6146179401993357,3.754838856813383
1.6345514950166113,3.8319495652164806
1.6544850498338872,3.905362001353463
1.6744186046511629,3.97499915528475
1.6943521594684385,4.040788257753336
1.7142857142857144,4.1026607864025
1.73421926910299,4.1605524784509855
1.754152823920266,4.214403347940171
1.7740863787375416,4.2641577060419875
1.7940199335548175,4.309764183209775
1.8139534883720931,4.351175752185591
1.8338870431893688,4.388349751062246
1.8538205980066447,4.421247905746218
1.8737541528239203,4.449836351288101
1.893687707641196,4.47408565164542
1.9136212624584719,4.493970817524422
1.9335548172757475,4.509471322015883
1.9534883720930232,4.52057111379827
1.9734219269102993,4.527258627732317
1.993355481727575,4.5295267927156635
2.0132890365448506,4.52737303670696
2.0332225913621262,4.520799288866257
2.0531561461794023,4.509811978794793
2.073089700996678,4.494422032892627
2.0930232558139537,4.474644867888802
2.1129568106312293,4.450500381636647
2.132890365448505,4.422012941307522
2.1528239202657806,4.389211369161765
2.1727574750830567,4.352128926126583
2.1926910299003324,4.310803293469937
2.212624584717608,4.265276552928917
2.2325581395348837,4.215595165734003
2.25249169435216,4.161809951070749
2.2724252491694354,4.103976064642647
2.292358803986711,4.042152978149919
2.312292358803987,3.9764044606867235
2.332225913621263,3.906798563295305
2.352159468438538,3.833407608214553
2.3720930232558137,3.7563081847420645
2.39202657807309,3.675581154120188
2.4119601328903655,3.5913116664945606
2.431893687707641,3.5035891938287316
2.4518272425249172,3.412507583761458
2.471760797342193,3.318165140863343
2.4916943521594686,3.2206647437275695
2.511627906976744,3.1201140090182267
2.5315614617940203,3.016625517293391
2.551495016611296,2.9103171205525418
2.5714285714285716,2.801312358675561
2.5913621262458477,2.6897410222026346
2.611295681063123,2.5757399137554278
2.6312292358803986,2.459453882169523
2.6511627906976742,2.3410372358313536
2.6710963455149503,2.2206556908348847
2.691029900332226,2.098489085377161
2.7109634551495017,1.974735211126431
2.7308970099667778,1.849615304128046
2.7508305647840534,1.723382053313893
2.770764119601329,1.59633151619681
2.7906976744186047,1.4688212494437183
2.810631229235881,1.3412985883519914
2.8305647840531565,1.2143459587511638
2.850498338870432,1.0887555513973985
2.870431893687708,0.9656557836611744
2.8903654485049834,0.8467300700553982
2.910299003322259,0.7345964892247041
2.9302325581395348,0.6334368559153839
2.950166112956811,0.5498542585784336
2.9700996677740865,0.4932807041050022
2.990033222591362,0.47375616309302365
3.0099667774086383,0.4957648575722757
3.029900332225914,0.5543165459761892
3.0498338870431896,0.6392698519294691
3.0697674418604657,0.7413444209776893
3.089700996677741,0.8541071845159875
3.1096345514950166,0.9734937544856348
3.129568106312292,1.0969571409151846
3.1495016611295683,1.222855790227514
3.169435215946844,1.3500861716759596
3.1893687707641196,1.4778712101079479
3.2093023255813957,1.6056378684993717
3.2292358803986714,1.7329447487560832
3.249169435215947,1.8594380854259132
3.2691029900332227,1.9848242353522199
3.289036544850499,2.108852012989205
3.3089700996677744,2.23130106476783
3.32890365448505,2.351974045981902
3.3488372093023258,2.4706912513613015
3.3687707641196014,2.5872868651963503
3.388704318936877,2.701606302849425
3.4086378737541527,2.8135043017910024
3.428571428571429,2.922843536325675
3.4485049833887045,3.029493603980893
3.46843853820598,3.133330279414264
3.4883720930232562,3.2342349633345284
3.508305647840532,3.3320942751955975
3.5282392026578075,3.4267997529427014
3.548172757475083,3.518247633150999
3.5681063122923593,3.606338691965421
3.588039867109635,3.690978132280333
3.60797342192691,3.772075506220251
3.6279069767441863,3.849544664621443
3.647840531561462,3.923303727156744
3.6677740863787376,3.993275068190246
3.6877076411960132,4.059385314533072
3.7076411960132893,4.12156535209273
3.727574750830565,4.179750339036551
3.7475083056478407,4.2338797235735
3.7674418604651168,4.283897264834655
3.787375415282392,4.32975105562743
3.807308970099668,4.371393546071134
3.8272425249169437,4.408781567307089
3.8471760797342194,4.441876354625334
3.867109634551495,4.470643569471016
3.887043189368771,4.495053319892342
3.9069767441860463,4.515080179074383
3.9269102990033224,4.5307032016717725
3.9468438538205985,4.541905937712183
3.9667774086378738,4.548676443893453
3.98671096345515,4.55100729214252
4.0066445182724255,4.548895575345044
4.026578073089701,4.542342910192994
4.046511627906977,4.531355437133635
4.0664451827242525,4.5159438174396955
4.086378737541528,4.496123227457091
4.106312292358805,4.4719133501250266
4.1262458471760795,4.443338363905133
4.146179401993356,4.410426929302207
4.166112956810632,4.373212173211601
4.186046511627907,4.331731671388617
4.205980066445183,4.286027429406416
4.225913621262459,4.236145862553822
4.245847176079734,4.182137775226843
4.26578073089701,4.124058340492986
4.2857142857142865,4.061967080662108
4.305647840531561,3.9959278498900117
4.325581395348838,3.9260088200828958
4.345514950166113,3.852282471677314
4.365448504983389,3.7748255912616244
4.385382059800665,3.693719278508892
4.40531561461794,3.609048965545589
4.425249169435216,3.520904452737181
4.445182724252492,3.4293799660032027
4.465116279069767,3.3345742422827596
4.485049833887043,3.236590651801285
4.50498338870432,3.1355373685482104
4.524916943521594,3.0315276041662953
4.544850498338871,2.9246799257205556
4.5647840531561465,2.8151186852230157
4.584717607973422,2.7029745993432237
4.604651162790698,2.588385532978346
4.624584717607974,2.471497562702381
4.644518272425249,2.352466429394056
4.664451827242526,2.2314595397608477
4.6843853820598005,2.1086587542705595
4.704318936877076,1.98426432142755
4.724252491694353,1.8585005151093965
4.7441860465116275,1.7316238551830176
4.764119601328904,1.603935336286761
4.78405315614618,1.4757990296541825
4.803986710963455,1.3476710857302265
4.823920265780731,1.220146175033624
4.8438538205980075,1.094033944839738
4.863787375415282,0.9704882830875087
4.883720930232559,0.8512303104491143
4.9036544850498345,0.7389334761712069
4.92358803986711,0.637855703215186
4.943521594684386,0.5546827164955214
4.963455149501661,0.4988711568840341
4.983388704318937,0.4803227437269857
5.003322259136213,0.5032660211553224
5.023255813953488,0.562586240492918
5.043189368770764,0.6481974032566661
5.063122923588041,0.7509041644958259
5.083056478405315,0.8643190082417027
5.102990033222592,0.9843918122936771
5.122923588039868,1.1085756616136517
5.142857142857143,1.2352242503013207
5.162790697674419,1.36322830615713
5.182724252491695,1.4918053525374668
5.20265780730897,1.6203776407037054
5.222591362126246,1.7484997552149097
5.242524916943522,1.875814509649366
5.262458471760797,2.0020253228777416
5.282392026578074,2.1268784535793235
5.3023255813953485,2.2501512926755933
5.322259136212625,2.371644476095139
5.342192691029901,2.4911764659889313
5.362126245847176,2.608579763104328
5.382059800664452,2.7236982194634782
5.4019933554817285,2.83638510735247
5.421926910299003,2.9465017171539984
5.44186046511628,3.0539163307633537
5.4617940199335555,3.1585034655176227
5.48172757475083,3.260143315438031
5.501661129568107,3.3587213380213097
5.5215946843853825,3.454127949463275
5.541528239202658,3.546258301353888
5.561461794019934,3.635012119022088
5.5813953488372094,3.7202935867915805
5.601328903654485,3.802011269071141
5.621262458471762,3.8800780588718546
5.641196013289036,3.954411147309192
5.661129568106313,4.0249320091099205
5.681063122923589,4.091566400241746
5.700996677740864,4.154244364615827
5.72093023255814,4.212900247448261
5.740863787375416,4.267472713357082
5.760797342192691,4.317904767652569
5.780730897009967,4.36414377957735
5.800664451827243,4.406141506488819
5.820598006644518,4.443854118164531
5.840531561461795,4.477242220562439
5.8604651162790695,4.50627087849048
5.880398671096346,4.53090963674065
5.900332225913622,4.551132539326012
5.920265780730897,4.566918146529332
5.940199335548173,4.578249549531629
5.960132890365449,4.585114382440984
5.980066445182724,4.587504831587876
6.0,4.585417641995146
6.0199335548172765,4.578854120969473
6.039867109634551,4.567820138798785
6.059800664451828,4.552326126576692
6.0797342192691035,4.532387071212944
6.099667774086379,4.508022507728397
6.119601328903655,4.479256508975852
6.139534883720931,4.446117672975662
6.159468438538206,4.408639108109092
6.179401993355482,4.3668584164746385
6.1993355481727574,4.320817675786366
6.219269102990033,4.270563420280758
6.23920265780731,4.216146621205018
6.259136212624584,4.15762266758932
6.279069767441861,4.0950513481658035
6.299003322259137,4.028496835496623
6.318936877076412,3.958027673624394
6.338870431893688,3.8837167708758544
6.3588039867109645,3.8056413998559724
6.378737541528239,3.723883207192198
6.398671096345516,3.6385282362677835
6.418604651162791,3.5496669670717553
6.438538205980066,3.4573943784677734
6.458471760797343,3.361810039749007
6.4784053156146175,3.263018240453151
6.498338870431894,3.161128170275006
6.51827242524917,3.056254164848797
6.538205980066445,2.948516038639314
6.558139534883721,2.838039533870092
6.578073089700998,2.7249569253697983
6.598006644518272,2.609407837038015
6.617940199335549,2.4915403488181225
6.6378737541528245,2.371512507592643
6.6578073089701,2.2494944077103196
6.677740863787376,2.1256710875173956
6.6976744186046515,2.0002466151479696
6.717607973421927,1.873449940644385
6.737541528239203,1.7455434262681389
6.7574750830564785,1.6168355298736485
6.777408637873754,1.4877000862857368
6.797342192691031,1.3586063437361255
6.8172757475083055,1.2301670007394379
6.837209302325582,1.1032171442325196
6.857142857142858,0.9789473283030342
6.877076411960133,0.8591320996745603
6.897009966777409,0.7465216210987073
6.9169435215946855,0.6454755090678949
6.93687707641196,0.5627816802793666
6.956810631229236,0.5079082153882508
6.9767441860465125,0.4905522191096152
6.996677740863787,0.5146186054761834
7.016611295681064,0.5748707502400277
7.036544850498339,0.6613193145256182
7.056478405315615,0.7648788573597936
7.076411960132891,0.8792105437617614
7.096345514950166,1.0002720228771216
7.116279069767442,1.1255080645139175
7.136212624584719,1.2532601028556118
7.156146179401993,1.3824070754660671
7.17607973421927,1.5121563831425069
7.196013289036546,1.6419218913504434
7.21594684385382,1.771251279349756
7.235880398671097,1.899781633371238
7.2558139534883725,2.027211558264759
7.275747508305648,2.1532832016859267
7.295681063122924,2.2777703856257747
7.3156146179402,2.400470597928533
7.335548172757475,2.521199482535435
7.355481727574752,2.6397869835310686
7.3754152823920265,2.7560746063120116
7.395348837209303,2.8699134475563395
7.415282392026579,2.9811627633470335
7.435215946843854,3.089688919858387
7.45514950166113,3.1953646198236743
7.475083056478406,3.298068330320742
7.495016611295681,3.3976838591736795
7.514950166112956,3.4941000421524104
7.5348837209302335,3.5872105134814634
7.554817275747508,3.6769135394352412
7.574750830564784,3.7631118999745525
7.5946843853820605,3.8457128071118327
7.614617940199336,3.924627851414212
7.634551495016611,3.999772970059194
7.6544850498338874,4.071068431350156
7.674418604651163,4.13843883172044
7.694352159468439,4.20181310210494
7.714285714285715,4.26112452120827
7.73421926910299,4.316310733700158
7.754152823920266,4.367313771758414
7.774086378737542,4.414080078685841
7.794019933554818,4.456560533568687
7.813953488372093,4.494710476137114
7.83388704318937,4.52848973114286
7.853820598006645,4.557862631695053
7.8737541528239205,4.582798041098102
7.893687707641197,4.603269372821293
7.913621262458472,4.619254608301381
7.9335548172757475,4.630736312341094
7.953488372093024,4.6377016459196465
7.9734219269103,4.640142376278682
7.9933554817275745,4.638054884190195
8.013289036544851,4.631440168353013
8.033222591362128,4.620303846903001
8.053156146179402,4.604656156060483
8.073089700996679,4.584511945977295
8.093023255813954,4.559890673887226
8.11295681063123,4.530816394708108
8.132890365448505,4.4973177492934076
8.152823920265782,4.459427950587705
8.172757475083056,4.417184768005446
8.192691029900331,4.370630510429753
8.21262458471761,4.319812008319575
8.232558139534884,4.264780595525146
8.252491694352159,4.205592091547577
8.272425249169435,4.142306785146632
8.292358803986712,4.074989420410274
8.312292358803987,4.0037091866629595
8.332225913621263,3.928539713923514
8.352159468438538,3.849559076049976
8.372093023255815,3.766849804258087
8.392026578073091,3.6804989144137092
8.411960132890366,3.590597952433605
8.43189368770764,3.4972430633633547
8.451827242524917,3.4005350913464714
8.471760797342194,3.300579719913194
8.491694352159469,3.1974876650274893
8.511627906976745,3.091374937466747
8.53156146179402,2.9823631968549233
8.551495016611296,2.870580227751506
8.571428571428573,2.7561605797092628
8.591362126245848,2.6392464298360894
8.611295681063122,2.5199887507539565
8.6312292358804,2.398548903107291
8.651162790697676,2.2751008266676336
8.67109634551495,2.149834088709066
8.691029900332227,2.0229581813493587
8.710963455149502,1.8947086730196319
8.730897009966778,1.7653561694096083
8.750830564784053,1.635219627092161
8.77076411960133,1.504686573433463
8.790697674418604,1.3742445635678073
8.81063122923588,1.2445313949054708
8.830564784053157,1.116417396502614
8.850498338870432,0.9911435771035401
8.870431893687707,0.8705572897298964
8.890365448504983,0.7575116591434176
8.91029900332226,0.6564991770106904
8.930232558139535,0.5744331114446506
8.950166112956811,0.5207759473634158
8.970099667774086,0.5049398372215539
8.990033222591363,0.530420792844162
9.00996677740864,0.5918515304861852
9.029900332225914,0.6793798696055883
9.049833887043189,0.7840612730990477
9.069767441860467,0.8996150842461781
9.089700996677742,1.022004379511013
9.109634551495017,1.1486594526876956
9.129568106312293,1.277903045977275
9.14950166112957,1.4085967233057157
9.169435215946844,1.5399332013536773
9.189368770764121,1.6713142968105896
9.209302325581396,1.8022778376306563
9.22923588039867,1.9324527885530929
9.249169435215949,2.061530966297923
9.269102990033224,2.1892487532395695
9.289036544850498,2.3153749933388985
9.308970099667773,2.4397028070247893
9.328903654485051,2.5620439493367324
9.348837209302326,2.682224854956245
9.368770764119601,2.800083824822213
9.388704318936878,2.9154689996543364
9.408637873754152,3.028236885094222
9.428571428571429,3.138251269483042
9.448504983388705,3.2453824250113064
9.46843853820598,3.3495065159494843
9.488372093023255,3.4505051599028347
9.508305647840533,3.5482651032610004
9.528239202657808,3.642677982592573
9.548172757475083,3.7336401511853623
9.56810631229236,3.8210525552464163
9.588039867109636,3.9048206481100856
9.60797342192691,3.9848543336004654
9.627906976744187,4.061067931757537
9.647840531561462,4.133380161672948
9.667774086378738,4.201714137336383
9.687707641196015,4.265997373269763
9.70764119601329,4.326161797396929
9.727574750830565,4.382143769113781
9.747508305647841,4.43388410092629
9.767441860465118,4.481328082339437
9.787375415282392,4.5244255049296624
9.807308970099669,4.563130687732465
9.827242524916944,4.597402502236864
9.84717607973422,4.627204396408392
9.867109634551497,4.652504417269021
9.887043189368772,4.673275231650871
9.906976744186046,4.689494144815146
9.926910299003321,4.701143116691263
9.9468438538206,4.708208775546579
9.966777408637874,4.710682428946292
9.986710963455149,4.708560071907822
10.006644518272426,4.70184239219588
10.026578073089702,4.690534772744665
10.046511627906977,4.674647291233831
10.066445182724253,4.654194716885647
10.086378737541528,4.629196504594334
10.106312292358805,4.599676786545435
10.126245847176081,4.565664361535607
10.146179401993356,4.527192682262768
10.16611295681063,4.48429984092585
10.186046511627907,4.437028553554998
10.205980066445184,4.385426143590906
10.225913621262459,4.329544525350056
10.245847176079735,4.269440188157662
10.26578073089701,4.205174182108956
10.285714285714286,4.136812106642622
10.305647840531563,4.064424103390794
10.325581395348838,3.9880848551258463
10.345514950166113,3.907873593078681
10.36544850498339,3.8238741154890796
10.385382059800666,3.7361748210091803
10.40531561461794,3.644868761577648
10.425249169435217,3.5500537206980916
10.445182724252492,3.451832324810276
10.465116279069768,3.3503121978041492
10.485049833887045,3.24560617193726
10.50498338870432,3.1378325728267593
10.524916943521594,3.027115602315446
10.544850498338871,2.913585851628166
10.564784053156147,2.7973809895065
10.584717607973422,2.6786466877261113
10.604651162790697,2.557537872353478
10.624584717607974,2.434220427714588
10.64451827242525,2.3088735384757895
10.664451827242525,2.1816929452405827
10.684385382059801,2.052895530391234
10.704318936877076,1.9227258773880698
10.724252491694353,1.7914658175969713
10.74418604651163,1.6594485997373036
10.764119601328904,1.5270803808185065
10.784053156146179,1.39487359952753
10.803986710963457,1.2635001118824472
10.823920265780732,1.1338779366047993
