Time (s),Filtered Signal
0.0,0.006513067432809619
0.03337028824833703,0.13655299473456356
0.06674057649667406,0.26681257457459684
0.10011086474501109,0.3864377067735703
0.13348115299334812,0.47157759799267324
0.16685144124168516,0.495640233049816
0.20022172949002218,0.4458010157336671
0.2335920177383592,0.3349938410507266
0.26696230598669624,0.20075799989912116
0.3003325942350333,0.09017218713659193
0.3337028824833703,0.0386250281296959
0.3670731707317073,0.053992140233442364
0.40044345898004435,0.11467846465353525
0.4338137472283814,0.18206003158205022
0.4671840354767184,0.2200109808947319
0.5005543237250555,0.21093635691954774
0.5339246119733925,0.16054284488769416
0.5672949002217295,0.09036746291063003
0.6006651884700666,0.02371254834918377
0.6340354767184035,-0.026531682331603145
0.6674057649667406,-0.06182530924558338
0.7007760532150776,-0.09272460569436286
0.7341463414634146,-0.12881666283727608
0.7675166297117517,-0.17052050585710396
0.8008869179600887,-0.20769171904405687
0.8342572062084257,-0.2255333909140319
0.8676274944567628,-0.21392288277784033
0.9009977827050998,-0.17440493128563983
0.9343680709534368,-0.12066901727440739
0.9677383592017739,-0.07223300944125356
1.001108647450111,-0.044952758622853105
1.0344789356984478,-0.04364878277365879
1.067849223946785,-0.060736798079191856
1.101219512195122,-0.08121982600345344
1.134589800443459,-0.09088015308068498
1.167960088691796,-0.08301978384160949
1.2013303769401331,-0.06035302333709223
1.23470066518847,-0.03170640063381313
1.268070953436807,-0.006094252343532991
1.3014412416851442,0.01216426608902567
1.3348115299334813,0.02476027450192587
1.3681818181818182,0.037026697596536845
1.4015521064301553,0.053856677449595255
1.4349223946784924,0.07647901372031043
1.4682926829268292,0.10169044625347126
1.5016629711751663,0.1234662548182907
1.5350332594235034,0.13560081989495176
1.5684035476718403,0.1338235793925237
1.6017738359201774,0.11658321151474588
1.6351441241685145,0.0847274269777162
1.6685144124168514,0.04090700788540056
1.7018847006651885,-0.010624843437828083
1.7352549889135256,-0.06384628421577886
1.7686252771618625,-0.11113017188118296
1.8019955654101996,-0.14451898037438138
1.8353658536585367,-0.15823099080220066
1.8687361419068735,-0.1514715994745154
1.9021064301552106,-0.12990301418701405
1.9354767184035477,-0.10434464504356843
1.9688470066518848,-0.08652383232190758
2.002217294900222,-0.08339911698339872
2.035587583148559,-0.09277383056073592
2.0689578713968957,-0.10279632384461235
2.102328159645233,-0.09634671038326034
2.13569844789357,-0.05889664893022179
2.1690687361419068,0.013605094119448475
2.202439024390244,0.11077594980146009
2.235809312638581,0.21022968562912972
2.269179600886918,0.285890023092752
2.302549889135255,0.3186663899766935
2.335920177383592,0.3045064334043323
2.369290465631929,0.2558517759240249
2.4026607538802662,0.19564396627785888
2.436031042128603,0.14670534921126224
2.46940133037694,0.12162793566028726
2.5027716186252773,0.11800425148743408
2.536141906873614,0.12107976880465131
2.569512195121951,0.11216463717398216
2.6028824833702884,0.07838175766030844
2.6362527716186253,0.018934596700398338
2.6696230598669626,-0.05487235966772485
2.7029933481152995,-0.12534041476255817
2.7363636363636363,-0.17653348846022282
2.7697339246119737,-0.20074605757511738
2.8031042128603105,-0.20045554741046062
2.8364745011086474,-0.18553047305047748
2.8698447893569847,-0.16783627844451776
2.9032150776053216,-0.15626625629116164
2.9365853658536585,-0.15434417803776973
2.969955654101996,-0.1606931028595266
3.0033259423503327,-0.1711077967414555
3.0366962305986696,-0.1805729723165081
3.070066518847007,-0.18429747049805423
3.1034368070953438,-0.17792390897744464
3.1368070953436806,-0.15768949805160523
3.170177383592018,-0.12113226004093276
3.203547671840355,-0.06826108173567426
3.2369179600886917,-0.00253070025480143
3.270288248337029,0.06909757178680996
3.303658536585366,0.13727836156198747
3.337028824833703,0.19224951769236528
3.37039911308204,0.22594893986507533
3.403769401330377,0.23365712557947982
3.437139689578714,0.2148949823200681
3.470509977827051,0.17361795801322089
3.503880266075388,0.11778361434467555
3.537250554323725,0.058179768664012844
3.5706208425720622,0.006289751270358236
3.603991130820399,-0.028743440640059154
3.637361419068736,-0.04329306267973679
3.6707317073170733,-0.04110671501785235
3.70410199556541,-0.032341343799430586
3.737472283813747,-0.029273793141132383
3.7708425720620844,-0.03997194632291632
3.8042128603104213,-0.06282957839283047
3.8375831485587586,-0.08519021897071041
3.8709534368070955,-0.08775457871413121
3.9043237250554323,-0.05359627877498577
3.9376940133037697,0.022143255444718284
3.9710643015521065,0.12681778010622383
4.004434589800444,0.23247483401078387
4.037804878048781,0.30552076502773073
4.071175166297118,0.31991828553398055
4.1045454545454545,0.26801499151288943
4.137915742793791,0.16404200260878904
4.171286031042128,0.03872000804789067
4.204656319290466,-0.07249728269164642
4.238026607538803,-0.14229232434972017
4.27139689578714,-0.16010939576177313
4.304767184035477,-0.13351731636983097
4.3381374722838135,-0.08271783619896
4.371507760532151,-0.03141145469094663
4.404878048780488,0.0017814739032523145
4.438248337028825,0.008146800019279966
4.471618625277162,-0.011041914186170143
4.504988913525499,-0.047981557338460455
4.538359201773836,-0.09294426095394621
4.571729490022173,-0.13778959075184988
4.60509977827051,-0.17726566352689951
4.638470066518847,-0.20832172413721986
4.671840354767184,-0.22855730283865489
4.705210643015521,-0.23510992421021795
4.738580931263858,-0.22481718488119207
4.771951219512196,-0.1956723396349826
4.8053215077605325,-0.14878604048994784
4.838691796008869,-0.08962175552193954
4.872062084257206,-0.02744101930907654
4.905432372505543,0.027307438067564877
4.93880266075388,0.06680898029924556
4.972172949002218,0.08920713530823134
5.005543237250555,0.09964511872530066
5.0389135254988915,0.10812693625575401
5.072283813747228,0.12481403134676376
5.105654101995565,0.15477280749263964
5.139024390243902,0.19469819662006965
5.17239467849224,0.233386918577084
5.205764966740577,0.2560122694040496
5.239135254988914,0.2504134894423434
5.2725055432372505,0.21262104654419414
5.305875831485587,0.14920817816291024
5.339246119733925,0.07553861909886407
5.372616407982262,0.010728051746802804
5.405986696230599,-0.028719696782982078
5.439356984478936,-0.034458784886043994
5.472727272727273,-0.009403793798322181
5.5060975609756095,0.032517544456832435
5.539467849223947,0.07017938282922521
5.572838137472284,0.08205560512695641
5.606208425720621,0.05432731016381627
5.639578713968958,-0.012477629538916646
5.672949002217295,-0.10144880284514726
5.706319290465632,-0.1838651525423185
5.7396895787139695,-0.22974368158661285
5.773059866962306,-0.2206392334550191
5.806430155210643,-0.15909567188670332
5.83980044345898,-0.06984098168831361
5.873170731707317,0.008837409697493631
5.906541019955654,0.040525522356897
5.939911308203992,0.006381853606077017
5.9732815964523285,-0.0860006989896784
6.006651884700665,-0.20478148934604573
6.040022172949002,-0.3062802257115192
6.073392461197339,-0.3520709837460211
6.106762749445676,-0.3232084124149766
6.140133037694014,-0.22568085953216716
6.173503325942351,-0.08556308349953455
6.2068736141906875,0.0628735296753506
6.240243902439024,0.1900554367800437
6.273614190687361,0.2793917680996706
6.306984478935698,0.3283901860709973
6.340354767184036,0.3438646468058518
6.373725055432373,0.3350598831568197
6.40709534368071,0.3087246313211166
6.4404656319290465,0.2682681268123237
6.473835920177383,0.21640834830994352
6.507206208425721,0.158685272779896
6.540576496674058,0.10486022915053829
6.573946784922395,0.06661169813228861
6.607317073170732,0.052260415858967284
6.640687361419069,0.061269362733386956
6.674057649667406,0.08187309815841659
6.707427937915743,0.09396624659103678
6.74079822616408,0.07680731395502688
6.774168514412417,0.018414753721960088
6.807538802660754,-0.07780994930483079
6.840909090909091,-0.1928108343202719
6.874279379157428,-0.29864809788462915
6.9076496674057655,-0.3694856290311873
6.941019955654102,-0.39171148916328585
6.974390243902439,-0.3684445055121354
7.007760532150776,-0.31653251110186764
7.041130820399113,-0.25795568061932056
7.07450110864745,-0.21018585971619166
7.107871396895788,-0.18013961428118672
7.1412416851441245,-0.16406034581565493
7.174611973392461,-0.15243754606918888
7.207982261640798,-0.13668762367609774
7.241352549889135,-0.11385608876236272
7.274722838137472,-0.08703343966564006
7.30809312638581,-0.061622783414441336
7.341463414634147,-0.03984479127223019
7.3748337028824835,-0.01688530958750589
7.40820399113082,0.018609147824758875
7.441574279379157,0.0791711029688027
7.474944567627494,0.17051518572860375
7.508314855875832,0.28509603988688353
7.541685144124169,0.4014020776891799
7.575055432372506,0.4907912916421494
7.6084257206208425,0.5297742890481032
7.641796008869179,0.5121294364632593
7.675166297117517,0.45420699701994816
7.708536585365854,0.38933024317557363
7.741906873614191,0.35251097149299754
7.775277161862528,0.3621664915359136
7.808647450110865,0.40805194362725383
7.842017738359202,0.4523968051808972
7.875388026607539,0.4449947350183333
7.908758314855876,0.3458561602324301
7.942128603104213,0.14484724063015614
7.97549889135255,-0.1311046962717686
8.008869179600888,-0.42667712578556466
8.042239467849225,-0.6785020336781822
8.075609756097561,-0.837772855351075
8.108980044345898,-0.8853932818778955
8.142350332594235,-0.8343199558175165
8.175720620842572,-0.7200166413694054
8.209090909090909,-0.5847258253968618
8.242461197339246,-0.46257674043404257
8.275831485587583,-0.370605273241279
8.30920177383592,-0.30734130650408314
8.342572062084257,-0.2576523221985473
8.375942350332595,-0.20101661672103335
8.409312638580932,-0.12023849158545996
8.442682926829269,-0.008180140840816464
8.476053215077606,0.1291318187656075
8.509423503325943,0.2737706187631884
8.54279379157428,0.40119081740814017
8.576164079822616,0.48794746376371284
8.609534368070953,0.5193159561357815
8.64290465631929,0.4941107207459888
8.676274944567627,0.42490416442451817
8.709645232815964,0.33357792798546565
8.743015521064303,0.24398051938817733
8.77638580931264,0.17456933767968646
8.809756097560976,0.13375037384844007
8.843126385809313,0.11929331232308965
8.87649667405765,0.12138659917868189
8.909866962305987,0.12750938561809871
8.943237250554324,0.12693849377163868
8.97660753880266,0.1133758706630424
9.009977827050998,0.08534370474818971
9.043348115299334,0.044968153697331315
9.076718403547671,-0.003857448380180094
9.110088691796008,-0.057132483968295456
9.143458980044347,-0.11183648628104831
9.176829268292684,-0.16632659377206124
9.21019955654102,-0.22001928744535895
9.243569844789358,-0.27240629565259644
9.276940133037694,-0.3216671230896283
9.310310421286031,-0.3634283658875681
9.343680709534368,-0.3903532579659833
9.377050997782705,-0.3930533658388528
9.410421286031042,-0.36234898073433136
9.443791574279379,-0.29237895191228735
9.477161862527716,-0.18366439004515545
9.510532150776053,-0.04503868791480866
9.543902439024391,0.10658603907154152
9.577272727272728,0.24921784466108596
9.610643015521065,0.3612428379228581
9.644013303769402,0.42781284782388707
9.677383592017739,0.4456809585927719
9.710753880266076,0.42407087185912623
9.744124168514412,0.38060071668071455
9.77749445676275,0.33359488937799975
9.810864745011086,0.2941161003297076
9.844235033259423,0.26151834482652503
9.87760532150776,0.224804762947592
9.910975609756099,0.16923524950578042
9.944345898004435,0.08494058549490062
9.977716186252772,-0.026759970816384916
10.01108647450111,-0.1524468790990676
10.044456762749446,-0.27138917603754276
10.077827050997783,-0.3634581457399381
10.11119733924612,-0.416237749935417
10.144567627494457,-0.4282055346829513
10.177937915742794,-0.40716987778783875
10.21130820399113,-0.3655417319305759
10.244678492239467,-0.3152089538869708
10.278048780487804,-0.2643456732700315
10.311419068736143,-0.21695067856638445
10.34478935698448,-0.17428420212769744
10.378159645232817,-0.13655484733123766
10.411529933481154,-0.10352667217963075
10.44490022172949,-0.07383550519937997
10.478270509977827,-0.043960575061333385
10.511640798226164,-0.008243376653332173
10.545011086474501,0.03922913371964389
10.578381374722838,0.10134012504624709
10.611751662971175,0.17492822962145585
10.645121951219512,0.2500412525850047
10.67849223946785,0.31254756111885956
10.711862527716187,0.34941343777862954
10.745232815964524,0.35426757552723587
10.778603104212861,0.33033755869021525
10.811973392461198,0.288954459806326
10.845343680709535,0.24411878264181322
10.878713968957872,0.205846820478428
10.912084257206208,0.17582892878056178
10.945454545454545,0.14775648629834912
10.978824833702882,0.11212805305784496
11.012195121951219,0.06288565714326025
11.045565410199556,0.0022514364221435587
11.078935698447895,-0.058882629974527666
11.112305986696231,-0.10534567820528601
11.145676274944568,-0.12480655599779084
11.179046563192905,-0.11423472371929691
11.212416851441242,-0.08254360295522042
11.245787139689579,-0.04786794517867361
11.279157427937916,-0.030278839104194728
11.312527716186253,-0.04292806210211782
11.34589800443459,-0.08568554474802105
11.379268292682926,-0.14461661429399666
11.412638580931263,-0.198158273673607
11.4460088691796,-0.2275394197091596
11.479379157427939,-0.22646385747764247
11.512749445676276,-0.20484965981852132
11.546119733924613,-0.18397697609137248
11.57949002217295,-0.18471271065380843
11.612860310421286,-0.21439545892308165
11.646230598669623,-0.2592998206386349
11.67960088691796,-0.2873961639045797
11.712971175166297,-0.2612678418941563
11.746341463414634,-0.15590021181728186
11.77971175166297,0.02676707804161311
11.813082039911308,0.2536307630449222
11.846452328159646,0.46923593039442646
11.879822616407983,0.6145090725296095
11.91319290465632,0.6478770584028526
11.946563192904657,0.5601641664821823
11.979933481152994,0.37738238321810796
12.01330376940133,0.15074011861840428
12.046674057649668,-0.061529348441270844
12.080044345898004,-0.21295832606014284
12.113414634146341,-0.28123582630988436
12.146784922394678,-0.2706545085255283
12.180155210643015,-0.20552582631205682
12.213525498891352,-0.1187360582234127
12.24689578713969,-0.04044519180942321
12.280266075388028,0.009466506635498752
12.313636363636364,0.02398957071586032
12.347006651884701,0.007427951788571819
12.380376940133038,-0.028548438470460288
12.413747228381375,-0.06953422527838486
12.447117516629712,-0.10250041657014215
12.480487804878049,-0.11866630858935906
12.513858093126386,-0.11473733552315314
12.547228381374723,-0.09243450285684551
12.58059866962306,-0.05668640606131289
12.613968957871396,-0.013325974495825038
12.647339246119735,0.03266956500626557
12.680709534368072,0.07768001655190113
12.714079822616409,0.11873187984475882
12.747450110864746,0.1523864981048757
12.780820399113082,0.17428184784494447
12.81419068736142,0.1799148892243193
12.847560975609756,0.16638337000905987
12.880931263858093,0.13413726198776563
12.91430155210643,0.08774550251717464
12.947671840354767,0.03521391146969729
12.981042128603104,-0.013923139004495625
13.014412416851442,-0.05107908648721363
13.04778270509978,-0.07092308332939605
13.081152993348116,-0.07290090388982476
13.114523281596453,-0.06149873987016703
13.14789356984479,-0.044980293454951185
13.181263858093127,-0.03271690296890599
13.214634146341464,-0.03181861696232596
13.2480044345898,-0.04430316254797438
13.281374722838137,-0.06611345134321008
13.314745011086474,-0.08868905193662033
13.348115299334811,-0.10268961957245054
13.381485587583148,-0.10238324216606302
13.414855875831487,-0.08872598894706629
13.448226164079824,-0.06957018539175414
13.48159645232816,-0.05661148398191442
13.514966740576497,-0.06011620126932218
13.548337028824834,-0.08353355078003966
13.581707317073171,-0.12032862672204493
13.615077605321508,-0.15466215240265802
13.648447893569845,-0.16614643967378756
13.681818181818182,-0.13730989945377767
13.715188470066519,-0.06116313275610754
13.748558758314855,0.05412914567382826
13.781929046563192,0.1857269641917263
13.815299334811531,0.30223575334190167
13.848669623059868,0.37372502968262605
13.882039911308205,0.38208233055036606
13.915410199556542,0.3276074988811989
13.948780487804878,0.22894169047747803
13.982150776053215,0.1160352304098509
14.015521064301552,0.01885728380069747
14.048891352549889,-0.04344242730176186
14.082261640798226,-0.06827154581983812
14.115631929046563,-0.06786609637145019
14.1490022172949,-0.0612372657096665
14.182372505543238,-0.06394677191481976
14.215742793791575,-0.08080129254941681
14.249113082039912,-0.10488783832743803
14.282483370288249,-0.12295821591106626
14.315853658536586,-0.1238412549205691
14.349223946784923,-0.10511200118753246
14.38259423503326,-0.07442966763987315
14.415964523281596,-0.04505837305826216
14.449334811529933,-0.028344822983666595
14.48270509977827,-0.02753118720677808
14.516075388026607,-0.036371503950663825
14.549445676274944,-0.04316543269600875
14.582815964523283,-0.03769971252200926
14.61618625277162,-0.01701525074959718
14.649556541019956,0.013218834260614631
14.682926829268293,0.042237428736164984
14.71629711751663,0.06028122232058675
14.749667405764967,0.06365055364375123
14.783037694013304,0.05602614674616765
14.81640798226164,0.04574906831666367
14.849778270509978,0.041003350030369375
14.883148558758315,0.045678278578414555
14.916518847006651,0.05786534492661754
14.949889135254988,0.07125618937199141
14.983259423503327,0.07828006672540584
15.016629711751664,0.07334566695497725
15.05,0.054969703038435486
15.083370288248338,0.02631912635918782
15.116740576496674,-0.005764733102488891
15.150110864745011,-0.0329713304481192
15.183481152993348,-0.0485136717996682
15.216851441241685,-0.05012929946475022
15.250221729490022,-0.04189179236218059
15.283592017738359,-0.03359695140303126
15.316962305986696,-0.03724963389607789
15.350332594235034,-0.061637076850384165
15.383702882483371,-0.10737905190758285
15.417073170731708,-0.16519465833753919
15.450443458980045,-0.21887706152580724
15.483813747228382,-0.25203970684017607
15.517184035476719,-0.2553823940935047
15.550554323725056,-0.2304890326386834
15.583924611973393,-0.1877279660205821
15.61729490022173,-0.13907181606004582
15.650665188470066,-0.08983332431570779
15.684035476718403,-0.034456331341472184
15.71740576496674,0.04037495796222595
15.750776053215079,0.1461709753927433
15.784146341463416,0.2815875584203872
15.817516629711752,0.4264530605061115
15.85088691796009,0.5453103261890947
15.884257206208426,0.6000264350141185
15.917627494456763,0.5659942489886735
15.9509977827051,0.4440901623310803
15.984368070953437,0.26226823848185793
16.017738359201775,0.06565542337301539
16.05110864745011,-0.10034196868327472
16.08447893569845,-0.20609981483467452
16.117849223946784,-0.24592658270760623
16.151219512195123,-0.23548018716385447
16.184589800443458,-0.2009560650624252
16.217960088691797,-0.16608255746764358
16.251330376940132,-0.14307763501864
16.28470066518847,-0.13083638892054036
16.31807095343681,-0.11966461846622314
16.351441241685144,-0.09900520845425557
16.384811529933483,-0.06400688151530777
16.418181818181818,-0.018249349020857574
16.451552106430157,0.02773176735793855
16.48492239467849,0.060619942197394756
16.51829268292683,0.06904882760911485
16.551662971175165,0.04721324197591902
16.585033259423504,-0.003391740486152453
16.61840354767184,-0.07412689140167654
16.651773835920178,-0.15098515993483588
16.685144124168513,-0.21764239571681523
16.71851441241685,-0.2592737879138153
16.75188470066519,-0.2662917583177377
16.785254988913525,-0.2369006403065816
16.818625277161864,-0.1775230701442217
16.8519955654102,-0.10083445118923606
16.885365853658538,-0.02205688020501618
16.918736141906873,0.04518378800289495
16.95210643015521,0.09208686251725424
16.985476718403547,0.1161530204161066
17.018847006651885,0.12078781805384975
17.05221729490022,0.11347172686150307
17.08558758314856,0.10318789228314844
17.118957871396898,0.09781155237586513
