Frequency (Hz),Amplitude
0.0,2.5167945564970013
0.019867549668874173,2.5166423793871266
0.039735099337748346,2.5161863882520525
0.059602649006622516,2.5154282023293613
0.07947019867549669,2.514370515858163
0.09933774834437085,2.5130170913314163
0.11920529801324503,2.5113727500246634
0.13907284768211922,2.5094433597773493
0.15894039735099338,2.507235819996565
0.17880794701986755,2.5047580438480828
0.1986754966887417,2.502018937594535
0.2185430463576159,2.499028377037004
0.23841059602649006,2.495797181013816
0.2582781456953642,2.49233708190869
0.27814569536423844,2.4886606931206674
0.2980132450331126,2.4847814734498863
0.31788079470198677,2.4807136883566763
0.33774834437086093,2.4764723680569425
0.3576158940397351,2.4720732624244985
0.3774834437086093,2.4675327926807364
0.3973509933774834,2.4628679998647254
0.4172185430463576,2.458096490091548
0.4370860927152318,2.453236376624737
0.45695364238410596,2.4483062188090385
0.4768211920529801,2.443324957933142
0.49668874172185434,2.4383118501183905
0.5165562913907285,2.4332863963581017
0.5364238410596026,2.4282682698639566
0.5562913907284769,2.4232772409096404
0.5761589403973509,2.418333099397701
0.5960264900662252,2.4134555754134164
0.6158940397350993,2.4086642580678395
0.6357615894039735,2.4039785129717046
0.6556291390728477,2.3994173987208924
0.6754966887417219,2.3949995828124573
0.695364238410596,2.390743257446815
0.7152317880794702,2.386666055705761
0.7350993377483444,2.382784968626509
0.7549668874172186,2.379116263717954
0.7748344370860927,2.3756754054863136
0.7947019867549668,2.3724769785515845
0.8145695364238411,2.369534613944052
0.8344370860927152,2.366860919169616
0.8543046357615894,2.3644674126243217
0.8741721854304636,2.3623644629212843
0.8940397350993378,2.360561233667165
0.9139072847682119,2.359065634190434
0.9337748344370861,2.357884276680241
0.9536423841059603,2.3570224401429396
0.9735099337748344,2.356484041524546
0.9933774834437087,2.356271614281606
1.0132450331125828,2.3563862946123293
1.033112582781457,2.356827815484792
1.0529801324503312,2.357594508521295
1.0728476821192052,2.3586833137194705
1.0927152317880795,2.3600897969120482
1.1125827814569538,2.3618081747908968
1.1324503311258278,2.3638313472476615
1.1523178807947019,2.366150936715097
1.1721854304635762,2.3687573341304637
1.1920529801324504,2.3716397510871
1.2119205298013245,2.374786277692388
1.2317880794701985,2.378183945610886
1.2516556291390728,2.38181879574116
1.271523178807947,2.385675949952701
1.2913907284768211,2.389739686296769
1.3112582781456954,2.3939935171003324
1.3311258278145695,2.3984202693561327
1.3509933774834437,2.403002166832806
1.370860927152318,2.407720913346734
1.390728476821192,2.4125577766607713
1.410596026490066,2.4174936725035567
1.4304635761589404,2.4225092482352295
1.4503311258278146,2.427584965721149
1.4701986754966887,2.4327011830124063
1.4900662251655628,2.4378382344712106
1.5099337748344372,2.442976509018138
1.5298013245033113,2.448096526217669
1.5496688741721854,2.453179009956565
1.5695364238410596,2.45820495950651
1.5894039735099337,2.4631557177974326
1.609271523178808,2.4680130367608575
1.6291390728476822,2.472759139632796
1.6490066225165563,2.477376780133574
1.6688741721854303,2.4818492984667153
1.6887417218543048,2.4861606741013467
1.7086092715231789,2.4902955753215057
1.728476821192053,2.494239405542615
1.7483443708609272,2.497978346408968
1.7682119205298013,2.5014993976975104
1.7880794701986755,2.5047904140619983
1.8079470198675496,2.507840138658338
1.8278145695364238,2.510638233696546
1.847682119205298,2.5131753079673254
1.8675496688741722,2.5154429413925556
1.8874172185430464,2.517433706648234
1.9072847682119205,2.5191411879069006
1.9271523178807946,2.520559996743213
1.9470198675496688,2.521685785242889
1.9668874172185429,2.5225152563499567
1.9867549668874174,2.523046171482252
2.0066225165562916,2.5232773554386565
2.0264900662251657,2.5232086986156994
2.0463576158940397,2.5228411565441005
2.066225165562914,2.522176746749451
2.086092715231788,2.521218542934251
2.1059602649006623,2.5199706664722155
2.1258278145695364,2.5184382751993293
2.1456953642384105,2.516627549480361
2.165562913907285,2.5145456755241655
2.185430463576159,2.5122008259167115
2.205298013245033,2.5096021373367425
2.2251655629139075,2.5067596854163914
2.2450331125827816,2.503684456707417
2.2649006622516556,2.500388317713411
2.2847682119205297,2.4968839809494563
2.3046357615894038,2.493184967993551
2.324503311258278,2.4893055694988115
2.3443708609271523,2.485260802141755
2.364238410596027,2.4810663624910556
2.384105960264901,2.4767385777918034
2.403973509933775,2.472294353673755
2.423841059602649,2.4677511188079846
2.443708609271523,2.4631267665546446
2.463576158940397,2.4584395936655894
2.4834437086092715,2.453708236129237
2.5033112582781456,2.448951602271178
2.52317880794702,2.4441888032525747
2.543046357615894,2.439439081139098
2.562913907284768,2.434721734746018
2.5827814569536423,2.4300560434991785
2.6026490066225163,2.4254611895873
2.622516556291391,2.4209561787171414
2.642384105960265,2.416559759819346
2.662251655629139,2.4122903440885803
2.6821192052980134,2.4081659237760014
2.7019867549668874,2.404203991184289
2.7218543046357615,2.4004214583451553
2.741721854304636,2.3968345778847433
2.76158940397351,2.393458865603348
2.781456953642384,2.390309025311834
2.801324503311258,2.3873988764762752
2.821192052980132,2.384741285225267
2.8410596026490067,2.382348099269388
2.8609271523178808,2.380230087269845
2.8807947019867552,2.378396883172659
2.9006622516556293,2.3768569359957055
2.9205298013245033,2.37561746551953
2.9403973509933774,2.374684424287762
2.9602649006622515,2.374062466271837
2.9801324503311255,2.3737549224962353
3.0,2.373763783857218
3.0198675496688745,2.374089691299984
3.0397350993377485,2.3747319334483956
3.0596026490066226,2.3756884517081747
3.0794701986754967,2.376955852791748
3.0993377483443707,2.378529428540274
3.119205298013245,2.3804031828484904
3.1390728476821192,2.3825698654319085
3.1589403973509933,2.385021012114072
3.1788079470198674,2.3877469912561446
3.198675496688742,2.390737055902101
3.218543046357616,2.3939794011710678
3.23841059602649,2.3974612263948507
3.2582781456953644,2.40116880147294
3.2781456953642385,2.405087536899773
3.2980132450331126,2.4092020569096664
3.3178807947019866,2.4134962751831646
3.3377483443708607,2.4179534725637115
3.3576158940397347,2.422556376245924
3.3774834437086096,2.427287239914589
3.3973509933774837,2.4321279243365805
3.4172185430463577,2.437059977935199
3.437086092715232,2.442064716907443
3.456953642384106,2.4471233044778646
3.47682119205298,2.4522168289180843
3.4966887417218544,2.45732637999696
3.5165562913907285,2.4624331235632946
3.5364238410596025,2.4675183739987765
3.556291390728477,2.4725636643142974
3.576158940397351,2.4775508136969067
3.596026490066225,2.4824619923465363
3.615894039735099,2.4872797834720264
3.6357615894039736,2.4919872423437144
3.6556291390728477,2.4965679523252944
3.6754966887417218,2.50100607783042
3.695364238410596,2.5052864141699587
3.7152317880794703,2.5093944342731933
3.7350993377483444,2.513316332281759
3.754966887417219,2.5170390640275815
3.774834437086093,2.520550384416503
3.794701986754967,2.523838881747712
3.814569536423841,2.526894009004963
3.834437086092715,2.529706112160124
3.854304635761589,2.5322664555321084
3.8741721854304636,2.53456724424543
3.8940397350993377,2.536601643832068
3.9139072847682117,2.538363797019262
3.9337748344370858,2.5398488377430684
3.9536423841059607,2.541052902424181
3.9735099337748347,2.541973138538444
3.993377483443709,2.5426077105099143
4.013245033112583,2.542955802948948
4.033112582781457,2.543017621252735
4.052980132450331,2.542794389579783
4.072847682119205,2.5422883462043866
4.0927152317880795,2.5415027362517133
4.112582781456953,2.54044180180849
4.132450331125828,2.5391107693996338
4.152317880794702,2.5375158348163778
4.172185430463576,2.5356641452777033
4.19205298013245,2.53356377890357
4.211920529801325,2.5312237214762
4.231788079470199,2.528653840464052
4.251655629139073,2.525864856283397
4.271523178807947,2.5228683107727874
4.291390728476821,2.5196765328587305
4.311258278145695,2.5163026013946257
4.33112582781457,2.512760305160593
4.3509933774834435,2.509064100019452
4.370860927152318,2.5052290632336423
4.390728476821192,2.5012708449587677
4.410596026490066,2.4972056169437153
4.43046357615894,2.493050018482169
4.450331125827815,2.4888210996788924
4.470198675496689,2.484536262113718
4.490066225165563,2.4802131970085255
4.509933774834438,2.47586982102662
4.529801324503311,2.471524209859894
4.549668874172186,2.46719452978692
4.569536423841059,2.462898967414091
4.589403973509934,2.458655657841996
4.6092715231788075,2.454482611529946
4.629139072847682,2.450397640162442
4.649006622516556,2.4464182818517384
4.66887417218543,2.4425617260401977
4.688741721854305,2.4388447384941427
4.708609271523179,2.4352835868062748
4.728476821192054,2.431893966846634
4.748344370860927,2.4286909306208964
4.768211920529802,2.42568881600962
4.788079470198675,2.422901178871678
4.80794701986755,2.4203407279992573
4.827814569536423,2.418019263410072
4.847682119205298,2.415947618454157
4.867549668874172,2.4141356061973585
4.887417218543046,2.4125919705223744
4.9072847682119205,2.4113243423590798
4.927152317880794,2.4103392014212544
4.947019867549669,2.409641843785078
4.966887417218543,2.409236355597939
4.986754966887418,2.409125593153833
5.006622516556291,2.4093111695157687
5.026490066225166,2.409793447805455
5.04635761589404,2.410571541219523
5.066225165562914,2.4116433197681686
5.086092715231788,2.413005423669654
5.105960264900662,2.414653283272348
5.125827814569536,2.4165811453166346
5.14569536423841,2.4187821052929657
5.1655629139072845,2.4212481456007655
5.185430463576159,2.4239701791655497
5.205298013245033,2.42693809813157
5.225165562913908,2.4301408272114786
5.245033112582782,2.43356638124735
5.264900662251656,2.4372019265153213
5.28476821192053,2.441033845292124
5.304635761589404,2.445047803193635
5.324503311258278,2.449228818794513
5.344370860927152,2.4535613350422762
5.364238410596027,2.4580292919896456
5.3841059602649,2.4626162003841032
5.403973509933775,2.467305215672803
5.4238410596026485,2.472079212004433
5.443708609271523,2.476920855835327
5.463576158940397,2.481812678775658
5.483443708609272,2.4867371493412675
5.503311258278146,2.491676743307647
5.52317880794702,2.4966140123935405
5.543046357615895,2.501531651033102
5.562913907284768,2.506412561025402
5.582781456953643,2.5112399138799693
5.602649006622516,2.515997210704671
5.622516556291391,2.520668339508696
5.642384105960264,2.5252376298180708
5.662251655629139,2.5296899045232544
5.682119205298013,2.5340105288992247
5.701986754966887,2.5381854567561417
5.7218543046357615,2.5422012736953836
5.741721854304636,2.54604523745907
5.7615894039735105,2.5497053153736484
5.781456953642384,2.5531702188975864
5.801324503311259,2.5564294352917156
5.821192052980132,2.559473256436452
5.841059602649007,2.562292804825655
5.860927152317881,2.564880056769184
5.880794701986755,2.567227862839002
5.900662251655629,2.569329965593453
5.920529801324503,2.5711810146148832
5.940397350993377,2.572776578893849
5.960264900662251,2.5741131565915416
5.980132450331126,2.575188182209169
6.0,2.576000031190136
6.0198675496688745,2.5765480219772185
6.039735099337749,2.5768324155431075
6.059602649006623,2.576854412409058
6.079470198675497,2.5766161471622975
6.099337748344371,2.576120680479117
6.119205298013245,2.5753719886570696
6.139072847682119,2.5743749506565137
6.158940397350993,2.5731353326486577
6.178807947019867,2.5716597700655908
6.198675496688741,2.5699557471456482
6.218543046357616,2.5680315739670387
6.23841059602649,2.565896360962659
6.258278145695365,2.563559990910079
6.2781456953642385,2.5610330883929624
6.298013245033113,2.558326986733421
6.317880794701987,2.5554536923997575
6.337748344370861,2.5524258468998826
6.357615894039735,2.5492566861784147
6.377483443708609,2.5459599975445726
6.397350993377484,2.542550074168488
6.417218543046357,2.5390416671962583
6.437086092715232,2.5354499355476015
6.456953642384105,2.5317903934758506
6.47682119205298,2.5280788559871867
6.496688741721854,2.5243313822344717
6.516556291390729,2.520564217021371
6.5364238410596025,2.5167937305733377
6.556291390728477,2.5130363567548857
6.5761589403973515,2.5093085299348563
6.596026490066225,2.505626620725732
6.6158940397351,2.5020068708458267
6.635761589403973,2.4984653273774393
6.655629139072848,2.4950177767160198
6.675496688741721,2.491679678527536
6.695364238410596,2.488466100050899
6.715231788079469,2.4853916511004104
6.735099337748344,2.4824704201382244
6.754966887417219,2.4797159117994876
6.774834437086093,2.477140986260872
6.794701986754967,2.474757800848424
6.814569536423841,2.4725777542807004
6.8344370860927155,2.4706114339386014
6.854304635761589,2.4688685665444896
6.874172185430464,2.467357972618219
6.894039735099337,2.466087525058676
6.913907284768212,2.465064112174725
6.933774834437086,2.4642936054599405
6.95364238410596,2.463780832372093
6.973509933774834,2.463529554339612
6.993377483443709,2.463542450176418
7.013245033112583,2.4638211050410184
7.033112582781457,2.464366005029716
7.052980132450331,2.465176537444554
7.072847682119205,2.4662509967279616
7.0927152317880795,2.4675865960065604
7.112582781456954,2.4691794841387806
7.132450331125828,2.4710247681139523
7.152317880794702,2.473116540607048
7.172185430463576,2.4754479124517292
7.19205298013245,2.4780110497577232
7.211920529801324,2.480797215365214
7.231788079470198,2.4837968143008546
7.251655629139073,2.4869994428765185
7.271523178807947,2.4903939410536013
7.291390728476822,2.493968447682589
7.311258278145695,2.4977104582194585
7.33112582781457,2.501606884517287
7.3509933774834435,2.5056441162929945
7.370860927152318,2.50980808387491
7.390728476821192,2.5140843218467155
7.410596026490066,2.5184580332164135
7.430463576158941,2.522914153755515
7.450331125827814,2.5274374161722077
7.470198675496689,2.5320124138032924
7.490066225165562,2.5366236635320547
7.509933774834438,2.5412556676625546
7.52980132450331,2.5458929745050565
7.549668874172186,2.550520237451455
7.569536423841059,2.555122272343617
7.589403973509934,2.559684112961325
7.6092715231788075,2.5641910644789783
7.629139072847682,2.5686287547621536
7.649006622516557,2.5729831833956283
7.66887417218543,2.5772407683535365
7.6887417218543055,2.5813883902399954
7.708609271523178,2.5854134340445825
7.728476821192054,2.589303828371803
7.748344370860927,2.5930480821160473
7.768211920529802,2.596635318565533
7.788079470198675,2.6000553069280055
7.80794701986755,2.6032984912794155
7.827814569536423,2.6063560169438893
7.847682119205298,2.6092197543187297
7.8675496688741715,2.611882320162564
7.887417218543046,2.614337096368299
7.907284768211921,2.6165782462444893
7.927152317880795,2.6186007283305033
7.9470198675496695,2.620400307771185
7.966887417218543,2.621973565276974
7.986754966887418,2.623317903694551
8.006622516556291,2.624431552212377
8.026490066225167,2.625313568223832
8.046357615894038,2.6259638368692455
8.066225165562914,2.6263830682763025
8.086092715231787,2.626572792516328
8.105960264900663,2.6265353522926462
8.125827814569536,2.626273893375066
8.14569536423841,2.625792352793655
8.165562913907285,2.625095444803622
8.185430463576159,2.624188644632644
8.205298013245034,2.623078170021779
8.225165562913906,2.621770960571545
8.245033112582782,2.620274654905861
8.264900662251655,2.6185975656683196
8.28476821192053,2.616748652367869
8.304635761589404,2.6147374920944513
8.324503311258278,2.6125742481295315
8.344370860927151,2.6102696364817772
8.364238410596027,2.6078348903844883
8.3841059602649,2.605281722798823
8.403973509933774,2.602622286975209
8.42384105960265,2.5998691351350254
8.443708609271523,2.597035175344861
8.463576158940398,2.594133626667612
8.483443708609272,2.591177972686851
8.503311258278146,2.588181913514523
8.52317880794702,2.5851593164059703
8.543046357615895,2.5821241651214812
8.562913907284768,2.5790905081883517
8.582781456953642,2.5760724062335476
8.602649006622515,2.5730838785726204
8.62251655629139,2.570138849256172
8.642384105960264,2.567251092790341
8.66225165562914,2.564434179762662
8.682119205298013,2.5617014226180523
8.701986754966887,2.559065821842356
8.721854304635762,2.5565400128216833
8.741721854304636,2.554136213654895
8.76158940397351,2.551866174203577
8.781456953642383,2.5497411266682612
8.801324503311259,2.547771737981711
8.821192052980132,2.54596806430884
8.841059602649008,2.5443395079388305
8.86092715231788,2.5428947768478007
8.880794701986755,2.5416418471995454
8.90066225165563,2.540587929038176
8.920529801324504,2.539739435409254
8.940397350993377,2.5391019551256857
8.960264900662251,2.538680229371415
8.980132450331126,2.538478132309926
9.0,2.538498655836309
9.019867549668875,2.5387438985809783
9.039735099337747,2.539215059241363
9.059602649006623,2.539912434284328
9.079470198675496,2.540835420028451
9.099337748344372,2.5419825190810332
9.119205298013245,2.5433513510709056
9.139072847682119,2.544938667585141
9.158940397350994,2.54674037118617
9.178807947019868,2.54875153835572
9.198675496688743,2.5509664461842507
9.218543046357615,2.553378602599527
9.23841059602649,2.555980779904995
9.258278145695364,2.5587650513797047
9.27814569536424,2.5617228306750697
9.298013245033111,2.5648449137308544
9.317880794701987,2.568121522923277
9.33774834437086,2.571542353152044
9.357615894039736,2.5750966195697242
9.37748344370861,2.578773106657612
9.397350993377483,2.5825602183545366
9.417218543046358,2.5864460289513658
9.437086092715232,2.59041833447157
9.456953642384107,2.59446470426871
9.47682119205298,2.5985725325836073
9.496688741721854,2.602729089817598
9.516556291390728,2.6069215732928277
9.536423841059603,2.6111371572865663
9.556291390728477,2.615363042142407
9.57615894039735,2.6195865022781972
9.596026490066224,2.6237949329270114
9.6158940397351,2.6279758954643504
9.635761589403973,2.6321171611908145
9.655629139072847,2.636206753455418
9.675496688741722,2.6402329880198443
9.695364238410596,2.6441845115782328
9.715231788079471,2.648050338360692
9.735099337748345,2.6518198847612533
9.754966887417218,2.655483001942593
9.774834437086092,2.659030006380492
9.794701986754967,2.6624517083204253
9.814569536423841,2.6657394381274635
9.834437086092716,2.6688850705180953
9.854304635761588,2.6718810466692675
9.874172185430464,2.6747203942057083
9.894039735099337,2.677396745071434
9.913907284768213,2.679904351295573
9.933774834437086,2.6822380986657675
9.95364238410596,2.684393518325496
9.973509933774835,2.686366796313476
9.993377483443709,2.6881547810651334
10.013245033112582,2.6897549888972923
10.033112582781456,2.6911656074979806
10.052980132450331,2.6923854974439543
10.072847682119205,2.693414191768687
10.09271523178808,2.694251893603852
10.112582781456952,2.6948994719173287
10.132450331125828,2.6953584553709606
10.152317880794701,2.695631024321152
10.172185430463577,2.695720000985838
10.192052980132452,2.6956288378016082
10.211920529801324,2.6953616039952677
10.2317880794702,2.6949229703952042
10.251655629139073,2.6943181925087356
10.271523178807948,2.693553091893441
10.29139072847682,2.6926340358522776
10.311258278145695,2.6915679154845145
10.331125827814569,2.690362122127573
10.350993377483444,2.6890245222279296
10.370860927152318,2.687563430683261
10.390728476821192,2.685987582702299
10.410596026490065,2.6843061042335616
10.43046357615894,2.682528481020034
10.450331125827816,2.6806645263420634
10.470198675496688,2.67872434751814
10.490066225165563,2.6767183112390143
10.509933774834437,2.6746570078190817
10.529801324503312,2.6725512144557237
10.549668874172186,2.670411857595908
10.56953642384106,2.6682499745174204
10.589403973509933,2.666076674240342
10.609271523178808,2.6639030978931095
10.629139072847682,2.6617403786656486
10.649006622516556,2.659599601490324
10.66887417218543,2.657491762599279
10.688741721854305,2.6554277291141695
10.70860927152318,2.653418198831137
10.728476821192054,2.651473660369654
10.748344370860927,2.649604353859412
10.7682119205298,2.6478202323432356
10.788079470198676,2.6461309240769837
