Frequency (Hz),Amplitude
0.0,0.24494229101396603
0.019801980198019802,0.28781285602379786
0.039603960396039604,0.3889280145788564
0.0594059405940594,0.5147951182804623
0.07920792079207921,0.6508733610404566
0.09900990099009901,0.7915224634691258
0.1188118811881188,0.9342545452747386
0.13861386138613863,1.077793607916807
0.15841584158415842,1.2213906060073032
0.1782178217821782,1.364551774564133
0.19801980198019803,1.5069184943649332
0.21782178217821782,1.6482091434501274
0.2376237623762376,1.788188800039776
0.25742574257425743,1.9266524791116375
0.27722772277227725,2.0634153892788203
0.297029702970297,2.198307036892105
0.31683168316831684,2.331167539068786
0.33663366336633666,2.46184525664066
0.3564356435643564,2.590195243431155
0.37623762376237624,2.7160782157098007
0.39603960396039606,2.839359861832952
0.4158415841584158,2.959910379439113
0.43564356435643564,3.077604167858049
0.45544554455445546,3.1923196281693507
0.4752475247524752,3.3039390389666945
0.495049504950495,3.4123484859556905
0.5148514851485149,3.5174378301417892
0.5346534653465347,3.619100703808984
0.5544554455445545,3.7172345265213638
0.5742574257425742,3.811740535480367
0.594059405940594,3.9025238260471897
0.613861386138614,3.989493399292758
0.6336633663366337,4.07256221419751
0.6534653465346534,4.15164724267853
0.6732673267326733,4.226669526031771
0.6930693069306931,4.297554231683886
0.7128712871287128,4.36423070937921
0.7326732673267327,4.426632546104431
0.7524752475247525,4.484697619189231
0.7722772277227723,4.538368147126962
0.7920792079207921,4.587590737743038
0.8118811881188118,4.63231643340448
0.8316831683168316,4.6725007530174985
0.8514851485148516,4.708103730602982
0.8712871287128713,4.739089950275481
0.891089108910891,4.765428577480854
0.9108910891089109,4.787093386372466
0.9306930693069307,4.8040627832279705
0.9504950495049505,4.816319825826771
0.9702970297029703,4.823852238725387
0.99009900990099,4.82665242438272
1.00990099009901,4.8247174701014846
1.0297029702970297,4.818049150764819
1.0495049504950495,4.8066539273598465
1.0693069306930694,4.7905429412928555
1.0891089108910892,4.769732004512627
1.108910891089109,4.744241585472133
1.1287128712871286,4.71409679097195
1.1485148514851484,4.679327343944021
1.1683168316831685,4.639967557250059
1.188118811881188,4.596056303587619
1.2079207920792079,4.54763698161718
1.227722772277228,4.494757478447982
1.2475247524752475,4.437470128648561
1.2673267326732673,4.375831669982146
1.2871287128712872,4.309903196107867
1.3069306930693068,4.239750106540012
1.3267326732673268,4.165442054219423
1.3465346534653466,4.087052891131047
1.3663366336633662,4.004660612500876
1.3861386138613863,3.9183473002345406
1.405940594059406,3.8281990664258716
1.4257425742574257,3.734305997981652
1.4455445544554455,3.6367621036964675
1.4653465346534653,3.5356652654966845
1.4851485148514851,3.4311171960919142
1.504950495049505,3.3232234059825783
1.5247524752475248,3.2120931837540887
1.5445544554455446,3.0978395949625166
1.5643564356435644,2.9805795068680934
1.5841584158415842,2.860433649081562
1.6039603960396038,2.7375267242977066
1.6237623762376237,2.611987589401289
1.6435643564356437,2.4839495364912554
1.6633663366336633,2.353550717684857
1.683168316831683,2.220934780193253
1.7029702970297032,2.0862518148199833
1.7227722772277227,1.949659782062739
1.7425742574257426,1.811326684747291
1.7623762376237624,1.6714339421864732
1.782178217821782,1.5301817644881412
1.801980198019802,1.3877979891295151
1.8217821782178218,1.244553190334952
1.8415841584158414,1.1007877801319474
1.8613861386138615,0.9569635449313809
1.881188118811881,0.813768936948526
1.900990099009901,0.6723540293677075
1.920792079207921,0.5349141367047977
1.9405940594059405,0.406324251071595
1.9603960396039604,0.2990689820168978
1.98019801980198,0.243858370285893
2.0,0.27440660813968915
2.01980198019802,0.3699784853225575
2.0396039603960396,0.4939513030248503
2.0594059405940595,0.629441936019314
2.0792079207920793,0.7700137840397374
2.099009900990099,0.9129043851861877
2.118811881188119,1.0567303033438606
2.1386138613861387,1.2006950412504702
2.1584158415841586,1.3442816206021502
2.1782178217821784,1.4871190317400633
2.1980198019801978,1.6289185012893281
2.217821782178218,1.7694406615111722
2.237623762376238,1.9084775521614397
2.257425742574257,2.0458422387426145
2.2772277227722775,2.1813625693941665
2.297029702970297,2.314877291033883
2.3168316831683167,2.446233566620256
2.336633663366337,2.5752853543937926
2.3564356435643563,2.701892333870825
2.376237623762376,2.8259191879774646
2.3960396039603964,2.9472351225819478
2.4158415841584158,3.0657135474652866
2.4356435643564356,3.1812318689659893
2.455445544554456,3.2936713609858295
2.4752475247524752,3.4029170916144977
2.495049504950495,3.508857889565449
2.514851485148515,3.6113863392518297
2.5346534653465347,3.710398796484976
2.5544554455445545,3.805795418958509
2.5742574257425743,3.8974802072100725
2.594059405940594,3.985361052840954
2.6138613861386135,4.069349791557364
2.633663366336634,4.1493622591689485
2.6534653465346536,4.225318349101482
2.673267326732673,4.297142070295553
2.6930693069306932,4.364761604599762
2.712871287128713,4.428109362947746
2.7326732673267324,4.487122039747146
2.7524752475247527,4.5417406650165715
2.7722772277227725,4.591910653891466
2.792079207920792,4.63758185318703
2.811881188118812,4.678708584760185
2.8316831683168315,4.715249685456474
2.8514851485148514,4.747168543463839
2.8712871287128716,4.774433130924751
2.891089108910891,4.797016032683837
2.910891089108911,4.814894471069499
2.9306930693069306,4.828050326626782
2.9504950495049505,4.836470154735714
2.9702970297029703,4.840145198063844
2.99009900990099,4.839071394816086
3.00990099009901,4.8332493827574705
3.0297029702970297,4.822684498997177
3.0495049504950495,4.807386775534197
3.0693069306930694,4.787370930577489
3.089108910891089,4.762656355665598
3.108910891089109,4.733267098624441
3.128712871287129,4.699231842415519
3.148514851485148,4.660583879942484
3.1683168316831685,4.617361084901138
3.1881188118811883,4.569605878777283
3.2079207920792077,4.517365194119394
3.227722772277228,4.460690434239662
3.2475247524752473,4.399637429527921
3.267326732673267,4.334266390601547
3.2871287128712874,4.264641858560363
3.3069306930693068,4.190832652673451
3.3267326732673266,4.112911815896654
3.346534653465347,4.030956558710734
3.366336633663366,3.945048201887209
3.386138613861386,3.855272118939407
3.4059405940594063,3.76171767921378
3.4257425742574257,3.6644781928368193
3.4455445544554455,3.5636508590798153
3.4653465346534653,3.4593367201722764
3.485148514851485,3.351640623233018
3.504950495049505,3.240671193869511
3.5247524752475248,3.126540826227456
3.5445544554455446,3.0093656960173454
3.564356435643564,2.889265805551389
3.5841584158415842,2.7663650734823
3.603960396039604,2.6407914873640066
3.6237623762376234,2.5126773453578517
3.6435643564356437,2.3821596260557287
3.6633663366336635,2.2493805453228117
3.683168316831683,2.114488391242829
3.702970297029703,1.9776387816242418
3.722772277227723,1.8389965797634933
3.7425742574257423,1.698738865497649
3.762376237623762,1.5570596550420681
3.7821782178217824,1.4141776323178488
3.801980198019802,1.2703493040232754
3.8217821782178216,1.1258924527923337
3.841584158415842,0.981230412207305
3.8613861386138613,0.8369817490704917
3.881188118811881,0.6941584652858812
3.9009900990099013,0.554653710168091
3.9207920792079207,0.4226028302505356
3.9405940594059405,0.30860365419631813
3.96039603960396,0.24065206166180358
3.98019801980198,0.2584324550998737
4.0,0.3490543967075769
4.01980198019802,0.4720887377926252
4.03960396039604,0.6078588561970608
4.0594059405940595,0.7491008627463637
4.079207920792079,0.8928096225358251
4.099009900990099,1.0375215294418314
4.118811881188119,1.182410588763455
4.138613861386139,1.3269480302587466
4.158415841584159,1.4707577895058686
4.178217821782178,1.613548741561927
4.198019801980198,1.7550802684488953
4.217821782178218,1.895143589190776
4.237623762376238,2.0335510869070346
4.257425742574258,2.1701299386186705
4.2772277227722775,2.3047181776697405
4.297029702970297,2.437162190779869
4.316831683168317,2.5673150924242365
4.336633663366336,2.6950356528250583
4.356435643564357,2.8201875849215474
4.376237623762377,2.942639069675643
4.3960396039603955,3.062262442877573
4.415841584158416,3.1789339933100353
4.435643564356436,3.2925338388232896
4.455445544554455,3.4029458575584735
4.475247524752476,3.510057658542031
4.4950495049504955,3.613760580529885
4.514851485148514,3.713949711137937
4.534653465346535,3.810523920472785
4.554455445544555,3.903385905000388
4.574257425742574,3.9924422384716363
4.594059405940594,4.077603427501671
4.613861386138614,4.158783969965337
4.633663366336633,4.235902414788363
4.653465346534653,4.308881422023985
4.673267326732674,4.377647822338355
4.693069306930693,4.442132675205876
4.712871287128713,4.502271325251889
4.732673267326733,4.5580034562863965
4.752475247524752,4.609273142655327
4.772277227722772,4.656028897602025
4.792079207920793,4.6982237183842495
4.811881188118812,4.735815127934837
4.8316831683168315,4.768765212889452
4.851485148514852,4.797040657833717
4.871287128712871,4.8206127756470645
4.891089108910891,4.83945753384129
4.910891089108912,4.853555576810392
4.930693069306931,4.862892243924301
4.9504950495049505,4.867457583413715
4.97029702970297,4.867246362006551
4.99009900990099,4.862258070289206
5.00990099009901,4.852496923777554
5.02970297029703,4.837971859694341
5.0495049504950495,4.818696529461383
5.069306930693069,4.794689286926605
5.089108910891089,4.765973172358451
5.108910891089109,4.732575892253217
5.128712871287129,4.694529795015048
5.148514851485149,4.651871842584165
5.1683168316831685,4.604643578106505
5.188118811881188,4.552891089758199
5.207920792079208,4.496664970862229
5.227722772277227,4.436020276462535
5.247524752475248,4.371016476554423
5.267326732673268,4.301717406211558
5.2871287128712865,4.228191212899932
5.306930693069307,4.150510301333012
5.326732673267327,4.068751276301426
5.346534653465346,3.9829948840128573
5.366336633663367,3.8933259526087562
5.3861386138613865,3.7998333326958167
5.405940594059405,3.7026098389555138
5.425742574257426,3.6017521941951163
5.445544554455446,3.4973609776076082
5.465346534653465,3.3895405795579063
5.485148514851486,3.2783991659704603
5.504950495049505,3.164048656450356
5.524752475247524,3.0466047217644814
5.544554455445545,2.926186808452674
5.564356435643565,2.802918201459797
5.584158415841584,2.6769261403016897
5.603960396039604,2.5483420112461603
5.623762376237624,2.4173016487070655
5.643564356435643,2.2839457958918534
5.663366336633663,2.14842080185714
5.683168316831684,2.010879676955902
5.702970297029703,1.8714837050229691
5.7227722772277225,1.7304049451638368
5.742574257425743,1.5878302021669948
5.762376237623762,1.4439675150225273
5.782178217821782,1.29905715844844
5.801980198019803,1.153391166465136
5.821782178217822,1.007349983260371
5.841584158415841,0.8614762272390425
5.861386138613861,0.7166366224977906
5.881188118811881,0.5744183616671406
5.900990099009901,0.43823765119447083
5.920792079207921,0.316893806862157
5.9405940594059405,0.23547682461481131
5.96039603960396,0.239450240990011
5.98019801980198,0.3257299382409504
6.0,0.4489686139911737
6.01980198019802,0.5860067718323697
6.03960396039604,0.7287386405126676
6.0594059405940595,0.8739721473513227
6.079207920792079,1.020203180007228
6.099009900990099,1.1666002461321827
6.118811881188119,1.3126372544199894
6.138613861386139,1.4579420362234083
6.158415841584159,1.6022268096983883
6.178217821782178,1.7452534170864817
6.198019801980198,1.8868147156764778
6.217821782178218,2.0267240502157895
6.237623762376237,2.164809024486401
6.257425742574258,2.300907680908217
6.2772277227722775,2.434866089198541
6.297029702970296,2.5665367909931347
6.316831683168317,2.6957777814935175
6.336633663366337,2.822451837582971
6.356435643564356,2.946426074938534
6.376237623762377,3.0675716596787774
6.396039603960396,3.185763626161314
6.415841584158415,3.3008807687729966
6.435643564356436,3.412805585900724
6.455445544554456,3.521424261008992
6.475247524752475,3.626626670225544
6.495049504950495,3.728306408863308
6.514851485148515,3.826360831387733
6.534653465346534,3.920691100791078
6.554455445544554,4.01120224436405
6.574257425742575,4.09780321359297
6.594059405940594,4.180406946446851
6.6138613861386135,4.258930430713108
6.633663366336634,4.333294767333417
6.653465346534653,4.403425232911696
6.673267326732673,4.469251340733523
6.693069306930694,4.530706899764561
6.712871287128713,4.587730071195437
6.732673267326732,4.640263422178516
6.752475247524753,4.688253976463878
6.772277227722772,4.731653261691508
6.792079207920792,4.770417353136783
6.811881188118813,4.8045069137395675
6.8316831683168315,4.833887230274423
6.851485148514851,4.858528245542835
6.871287128712871,4.878404586487987
6.891089108910891,4.893495588150005
6.910891089108911,4.903785313394702
6.930693069306931,4.909262568362694
6.9504950495049505,4.909920913598181
6.97029702970297,4.905758670828606
6.99009900990099,4.896778925377385
7.00990099009901,4.882989524202936
7.02970297029703,4.864403069567927
7.0495049504950495,4.841036908353587
7.069306930693069,4.8129131170450785
7.089108910891089,4.7800584824260515
7.108910891089109,4.742504478032864
7.128712871287128,4.700287236433279
7.148514851485149,4.653447517409735
7.1683168316831685,4.602030672145227
7.188118811881187,4.546086603530133
7.207920792079208,4.485669722732436
7.227722772277228,4.420838902202468
7.247524752475247,4.351657425318022
7.267326732673268,4.278192932918099
7.287128712871287,4.200517367026593
7.306930693069306,4.118706912133337
7.326732673267327,4.032841934484683
7.346534653465347,3.9430069199439446
7.366336633663366,3.849290411123407
7.3861386138613865,3.751784944674706
7.405940594059406,3.650586989870791
7.425742574257425,3.5457968899431673
7.445544554455446,3.4375188080877876
7.465346534653466,3.325860680670671
7.485148514851485,3.210934181025147
7.504950495049505,3.092854698446984
7.524752475247524,2.9717413387323997
7.544554455445544,2.8477169551310353
7.564356435643565,2.7209082223208485
7.584158415841584,2.5914457716309793
7.603960396039604,2.4594644143614035
7.623762376237624,2.325103493567227
7.643564356435643,2.188507426383988
7.663366336633663,2.0498265347628974
7.683168316831684,1.9092183232738449
7.702970297029703,1.7668494693738077
7.7227722772277225,1.6228989861867846
7.742574257425743,1.4775633884879724
7.762376237623762,1.3310654345176267
7.782178217821782,1.1836695905774297
7.801980198019803,1.0357109441940502
7.821782178217822,0.8876531260308758
7.841584158415841,0.7402148966804099
7.861386138613862,0.5946792653948545
7.881188118811881,0.45376305677128675
7.900990099009901,0.3245069888996613
7.92079207920792,0.22865739346658923
7.9405940594059405,0.21698260531237473
7.96039603960396,0.2995845560658395
7.980198019801979,0.4244510994371064
8.0,0.563900107006731
8.01980198019802,0.7090250209374016
8.03960396039604,0.8565426322354854
8.05940594059406,1.0049650590593495
8.07920792079208,1.153486574932651
8.099009900990099,1.3016015083799757
8.118811881188119,1.4489520927563073
8.138613861386139,1.5952603549887232
8.158415841584159,1.7402946982127567
8.178217821782178,1.8838522730278109
8.198019801980198,2.025749122766533
8.217821782178218,2.1658144122584733
8.237623762376238,2.3038869202897847
8.257425742574258,2.439812845313289
8.277227722772277,2.5734444031203276
8.297029702970297,2.704638918262111
8.316831683168317,2.8332582322516138
8.336633663366337,2.95916832008754
8.356435643564357,3.082239046703162
8.376237623762377,3.202344019090668
8.396039603960396,3.3193605048072627
8.415841584158416,3.4331693970603796
8.435643564356436,3.5436552127267724
8.455445544554456,3.650706113735628
8.475247524752476,3.7542139449932304
8.495049504950495,3.854074283909896
8.514851485148515,3.950186497901427
8.534653465346535,4.042453807163589
8.554455445544555,4.1307833506812495
8.574257425742575,4.215086253915112
8.594059405940595,4.295277696961588
8.613861386138613,4.37127698224377
8.633663366336634,4.443007600988098
8.653465346534654,4.510397297890721
8.673267326732672,4.5733781334920645
8.693069306930694,4.631886543867201
8.712871287128714,4.6858633973090935
8.732673267326732,4.7352540477371505
8.752475247524753,4.780008384607887
8.772277227722773,4.820080879140385
8.792079207920791,4.855430626698927
8.811881188118813,4.886021385199974
8.831683168316832,4.911821609431226
8.85148514851485,4.932804481188734
8.871287128712872,4.948947935153542
8.891089108910892,4.960234680443165
8.91089108910891,4.966652217785719
8.930693069306932,4.96819285227607
8.950495049504951,4.964853701683864
8.97029702970297,4.956636700293794
8.990099009900991,4.943548598267988
9.00990099009901,4.925600956530407
9.029702970297029,4.902810137182687
9.04950495049505,4.875197289471062
9.06930693069307,4.842788331334225
9.089108910891088,4.8056139265733
9.10891089108911,4.763709457696799
9.12871287128713,4.717114994506908
9.148514851485148,4.6658752585080405
9.16831683168317,4.610039583235648
9.188118811881187,4.5496618706227485
9.207920792079207,4.484800543545043
9.227722772277229,4.415518494712816
9.247524752475247,4.341883032111938
9.267326732673267,4.2639658212375275
9.287128712871288,4.181842824415884
9.306930693069306,4.0955942375757735
9.326732673267326,4.005304424914106
9.346534653465348,3.911061852009699
9.366336633663366,3.8129590180810182
9.386138613861386,3.711092388272298
9.405940594059407,3.6055623271048614
9.425742574257425,3.496473034572715
9.445544554455445,3.3839324868313514
9.465346534653467,3.2680523840814186
9.485148514851485,3.1489481091687495
9.504950495049505,3.026738701736407
9.524752475247526,2.901546854671172
9.544554455445544,2.7734989423996304
9.564356435643564,2.642725094813003
9.584158415841586,2.5093593370678398
9.603960396039604,2.373539825630019
9.623762376237623,2.235409227142449
9.643564356435645,2.0951153133646803
9.663366336633663,1.9528118906075411
9.683168316831683,1.808660261190927
9.702970297029704,1.6628315582883597
9.722772277227723,1.5155105685761767
9.742574257425742,1.3669022019805581
9.762376237623764,1.2172429204668116
9.782178217821782,1.066822051006077
9.801980198019802,0.9160243474941749
9.821782178217823,0.7654227424766223
9.841584158415841,0.6160047129044449
9.861386138613861,0.46981382511156267
9.881188118811881,0.3321590357438741
9.900990099009901,0.2208028022068845
9.92079207920792,0.19048461038504624
9.94059405940594,0.27021254741606177
9.96039603960396,0.39855417380262026
9.98019801980198,0.5417410070879234
10.0,0.6902488562151557
10.01980198019802,0.8408630067005182
10.03960396039604,0.9921902761352576
10.05940594059406,1.1434897061615112
10.07920792079208,1.2942967071780225
10.099009900990099,1.444279547254216
10.118811881188119,1.5931769387550885
10.138613861386139,1.740768058629598
10.158415841584159,1.8868569909205855
10.178217821782178,2.0312641465300656
10.198019801980198,2.173821297563779
10.217821782178218,2.314368593137391
10.237623762376238,2.452752714107278
10.257425742574258,2.5888257092716835
10.277227722772277,2.7224442535528466
10.297029702970297,2.853469175270906
10.316831683168317,2.9817651593813737
10.336633663366337,3.107200568255658
10.356435643564357,3.2296473423809062
10.376237623762377,3.348980956168685
10.396039603960396,3.465080412156413
10.415841584158416,3.577828262114784
10.435643564356436,3.687110647023461
10.455445544554454,3.7928173501944324
10.475247524752476,3.8948418594063527
10.495049504950495,3.9930814350132393
10.514851485148514,4.087437181766091
10.534653465346535,4.177814122639966
10.554455445544555,4.264121273360183
10.574257425742573,4.346271716615114
10.594059405940595,4.424182675161203
10.613861386138614,4.497775583189295
10.633663366336632,4.56697615544567
10.653465346534654,4.631714453696321
10.673267326732674,4.691924950197013
10.693069306930692,4.7475465878898735
10.712871287128714,4.798522837093277
10.732673267326733,4.844801748489011
10.752475247524751,4.886336002241044
10.772277227722773,4.923082953105209
