Frequency (Hz),Amplitude
0.0,2.7146986953454406
0.020066889632107024,2.718576149265202
0.04013377926421405,2.730160306366153
0.060200668896321065,2.7493086387181305
0.0802675585284281,2.775790335256322
0.10033444816053512,2.8092956825652533
0.12040133779264213,2.849447887503569
0.14046822742474915,2.8958163070717347
0.1605351170568562,2.9479300670279613
0.1806020066889632,3.005291189373127
0.20066889632107024,3.0673865626284043
0.22073578595317725,3.133698328023725
0.24080267558528426,3.203712478788181
0.2608695652173913,3.276925653083627
0.2809364548494983,3.3528502331124317
0.3010033444816054,3.43101794447277
0.3210702341137124,3.51098218882568
0.34113712374581934,3.5923193501384976
0.3612040133779264,3.674629300904955
0.3812709030100334,3.7575353088862067
0.4013377926421405,3.8406835138942315
0.42140468227424743,3.9237421125723264
0.4414715719063545,4.006400359805808
0.4615384615384615,4.08836746974374
0.4816053511705685,4.169371477925756
0.5016722408026756,4.249158108611123
0.5217391304347826,4.327489677713326
0.5418060200668896,4.404144051227806
0.5618729096989966,4.478913671151498
0.5819397993311036,4.551604655111381
0.6020066889632107,4.622035971789563
0.6220735785953176,4.69003869137104
0.6421404682274248,4.7554553083352005
0.6622073578595318,4.81813913271554
0.6822742474916387,4.877953745271209
0.7023411371237458,4.934772511701092
0.7224080267558528,4.9884781509749
0.7424749163879598,5.0389623529735115
0.7625418060200668,5.086125440861797
0.7826086956521738,5.129876073917645
0.802675585284281,5.170130986880042
0.8227424749163879,5.206814762234888
0.8428093645484949,5.2398596322155235
0.862876254180602,5.269205307646408
0.882943143812709,5.294798831096912
0.903010033444816,5.316594452135231
0.923076923076923,5.334553522778541
0.9431438127090299,5.348644411525065
0.963210702341137,5.358842434627696
0.983277591973244,5.365129803528847
1.0033444816053512,5.367495587624743
1.0234113712374582,5.365935691766235
1.0434782608695652,5.36045284813526
1.0635451505016722,5.351056622364189
1.0836120401337792,5.33776343399129
1.1036789297658862,5.320596591573089
1.1237458193979932,5.299586343005493
1.1438127090301002,5.274769941843009
1.1638795986622072,5.24619173065198
1.1839464882943145,5.213903242691317
1.2040133779264215,5.177963323485689
1.2240802675585283,5.138438274142301
1.2441471571906353,5.095402018565587
1.2642140468227423,5.048936297043531
1.2842809364548495,4.999130889015114
1.3043478260869565,4.94608386817715
1.3244147157190636,4.889901893445676
1.3444816053511706,4.830700539643366
1.3645484949832773,4.768604672126668
1.3846153846153846,4.703748869874195
1.4046822742474916,4.636277901802304
1.4247491638795986,4.566347261213228
1.4448160535117056,4.494123763258562
1.4648829431438126,4.419786210037731
1.4849498327759196,4.343526127341223
1.5050167224080266,4.265548575952267
1.5250836120401337,4.1860730386528076
1.5451505016722407,4.105334381404415
1.5652173913043477,4.0235838832913515
1.5852842809364547,3.941090324352466
1.605351170568562,3.858141112948038
1.625418060200669,3.7750434242996502
1.6454849498327757,3.692125308757925
1.6655518394648827,3.6097367116619843
1.6856187290969897,3.528250325936575
1.705685618729097,3.4480621736844337
1.725752508361204,3.3695917843487813
1.745819397993311,3.2932818057743836
1.765886287625418,3.2195968531997297
1.7859531772575248,3.1490213741260575
1.806020066889632,3.082056290536652
1.826086956521739,3.0192141827517043
1.846153846153846,2.9610128117788888
1.866220735785953,2.9079668502385654
1.8862876254180598,2.8605778144290808
1.9063545150501673,2.8193223643064274
1.926421404682274,2.784639355807757
1.9464882943143813,2.756916268297512
1.966555183946488,2.736475851001771
1.9866220735785953,2.7235639874783923
2.0066889632107023,2.7183398178129723
2.026755852842809,2.7208690507634468
2.0468227424749164,2.7311211384707503
2.0668896321070234,2.748970607443665
2.0869565217391304,2.774202406274866
2.1070234113712374,2.806520723310523
2.1270903010033444,2.8455604192048716
2.1471571906354514,2.8909000555796758
2.1672240802675584,2.942075490842258
2.1872909698996654,2.998593133230905
2.2073578595317724,3.0599421443163326
2.2274247491638794,3.1256051233304247
2.2474916387959865,3.195067031180843
2.267558528428094,3.2678223044707706
2.2876254180602005,3.343380251115873
2.3076923076923075,3.4212689093468582
2.3277591973244145,3.501037597907558
2.3478260869565215,3.5822583975444107
2.367892976588629,3.664526793274677
2.3879598662207355,3.7474616828286678
2.408026755852843,3.830704926312907
2.4280936454849495,3.913920580529204
2.4481605351170566,3.996793931599112
2.468227424749164,4.079030413222731
2.4882943143812706,4.160354475687432
2.508361204013378,4.240508452646206
2.5284280936454846,4.319251458365712
2.548494983277592,4.39635833709525
2.568561872909699,4.471618677879879
2.5886287625418056,4.544835902007795
2.608695652173913,4.6158264258769135
2.6287625418060196,4.684418898992455
2.648829431438127,4.750453514742343
2.668896321070234,4.813781390281631
2.688963210702341,4.874264011089557
2.709030100334448,4.931772735387565
2.7290969899665547,4.986188353506597
2.749163879598662,5.037400697379796
2.769230769230769,5.085308295548041
2.789297658862876,5.129818069353991
2.809364548494983,5.17084506633209
2.82943143812709,5.208312227154677
2.849498327759197,5.242150182851805
2.869565217391304,5.272297079374357
2.8896321070234112,5.298698426910674
2.9096989966555182,5.321306971692085
2.9297658862876252,5.3400825883316205
2.9498327759197323,5.354992191032129
2.9698996655518393,5.36600966227669
2.9899665551839463,5.373115797876118
3.0100334448160533,5.3762982674990525
3.0301003344481603,5.375551590049982
3.0501672240802673,5.370877123494133
3.0702341137123748,5.362283068956117
3.0903010033444813,5.349784489145954
3.1103678929765888,5.333403341392449
3.1304347826086953,5.313168525794699
3.1505016722408024,5.289115949237838
3.1705685618729094,5.261288606264158
3.1906354515050164,5.229736678045494
3.210702341137124,5.194517650971269
3.2307692307692304,5.155696456649328
3.250836120401338,5.113345635415871
3.270903010033445,5.067545525766179
3.2909698996655514,5.018384482449357
3.311036789297659,4.965959126314819
3.3311036789297654,4.910374629352134
3.351170568561873,4.8517450387194945
3.3712374581939795,4.790193643898515
3.391304347826087,4.725853391423413
3.411371237458194,4.658867351885517
3.4314381270903005,4.589389244067817
3.451505016722408,4.517584021067234
3.471571906354515,4.443628523037739
3.491638795986622,4.367712200636693
3.511705685618729,4.29003791224443
3.531772575250836,4.210822796379896
3.551839464882943,4.130299218223718
3.5719063545150496,4.04871578550124
3.591973244147157,3.966338423812905
3.612040133779264,3.8834514944047713
3.632107023411371,3.8003589278517316
3.652173913043478,3.7173853346451797
3.672240802675585,3.634877037700934
3.692307692307692,3.5532029518945354
3.712374581939799,3.4727552116933795
3.732441471571906,3.39394942006381
3.752508361204013,3.317224361146259
3.7725752508361197,3.243040987969566
3.7926421404682276,3.171880468621273
3.8127090301003346,3.104241055775864
3.832775919732441,3.040633543518669
3.852842809364548,2.9815751021130588
3.872909698996655,2.92758134656203
3.8929765886287626,2.879156607631335
3.9130434782608696,2.8367825381743548
3.933110367892976,2.8009053970471496
3.953177257525083,2.771922587755132
3.9732441471571907,2.7501692541845184
3.9933110367892977,2.7359059045594742
4.013377926421405,2.729308098117658
4.033444816053511,2.730459150007618
4.053511705685618,2.7393465785890374
4.073578595317726,2.755862661491925
4.093645484949833,2.779809041759626
4.113712374581939,2.810904911325476
4.133779264214047,2.8487979709862308
4.153846153846153,2.8930771750918853
4.173913043478261,2.943286231146286
4.193979933110368,2.9989369208487098
4.214046822742475,3.059521498066212
4.234113712374581,3.1245236511585457
4.254180602006689,3.193427747729008
4.274247491638796,3.265726278242408
4.294314381270903,3.340925565210029
4.314381270903009,3.4185499038228317
4.334448160535117,3.498144353640921
4.354515050167224,3.5792764191009154
4.374581939799331,3.661536849987466
4.394648829431437,3.7445397713000657
4.414715719063545,3.8279223227337296
4.434782608695651,3.9113439566559913
4.454849498327759,3.994485513412241
4.474916387959866,4.0770481659141025
4.494983277591973,4.158752302571504
4.5150501672240795,4.239336398839357
4.535117056856188,4.318555912684728
4.555183946488294,4.396182227665543
4.575250836120401,4.472001658506882
4.595317725752508,4.545814527538555
4.615384615384615,4.617434315641215
4.635451505016722,4.686686888032361
4.655518394648829,4.75340979297125
4.6755852842809364,4.817451630005115
4.695652173913043,4.878671483505531
4.71571906354515,4.936938416791423
4.735785953177258,4.992131021979153
4.7558528428093645,5.044137020748617
4.775919732441471,5.092852911398177
4.795986622073578,5.138183657831428
4.816053511705686,5.180042416439029
4.8361204013377925,5.218350297184609
4.856187290969899,5.253036155557838
4.8762541806020065,5.284036412408645
4.896321070234113,5.311294899017403
4.916387959866221,5.334762725082567
4.936454849498328,5.354398167617893
4.956521739130435,5.370166579045589
4.976588628762541,5.3820403130501475
4.996655518394649,5.389998667022116
5.016722408026756,5.394027840172658
5.036789297658863,5.394120906641903
5.056856187290969,5.390277803157715
5.076923076923077,5.382505331030895
5.096989966555184,5.370817172498728
5.117056856187291,5.3552339216555875
5.137123745819398,5.335783130438185
5.157190635451505,5.312499370367686
5.177257525083611,5.2854243109930525
5.197324414715719,5.254606816232609
5.217391304347826,5.220103060075428
5.237458193979933,5.181976663383487
5.257525083612039,5.140298853829744
5.277591973244148,5.095148651318103
5.297658862876254,5.046613081557213
5.317725752508361,4.994787420799329
5.337792642140468,4.939775475103901
5.357859531772575,4.881689897834838
5.377926421404682,4.8206525494396
5.397993311036789,4.756794903868148
5.418060200668896,4.690258506245505
5.438127090301003,4.621195486575242
5.458193979933109,4.549769134271548
5.478260869565218,4.476154538124088
5.498327759197324,4.4005392957965865
5.518394648829431,4.323124296021031
5.538461538461538,4.244124575106455
5.558528428093646,4.163770247019905
5.578595317725752,4.082307502843604
5.598662207357859,3.999999670526693
5.618729096989966,3.9171283191237887
5.638795986622073,3.833994382670087
5.65886287625418,3.750919266961462
5.678929765886288,3.6682458872623265
5.698996655518394,3.5863395659057624
5.719063545150501,3.5055886956449203
5.739130434782608,3.4264050476519587
5.759197324414716,3.3492235731494873
5.7792642140468224,3.27450151681297
5.799331103678929,3.202716631861875
5.8193979933110365,3.1343642666854485
5.839464882943144,3.0699530886379325
5.8595317725752505,3.0099992319569915
5.879598662207358,2.9550187142148143
5.8996655518394645,2.9055180687046986
5.919732441471571,2.8619832935039886
5.9397993311036785,2.824867417577554
5.959866220735786,2.7945772132068365
5.9799331103678925,2.7714598104039854
5.999999999999999,2.755790148503074
6.020066889632107,2.7477602843016484
6.040133779264214,2.7474715255767923
6.060200668896321,2.7549301580391763
6.080267558528428,2.7700472014150552
6.100334448160535,2.792642219009672
6.120401337792642,2.8224507893347766
6.1404682274247495,2.859134903954003
6.160535117056856,2.902295338510978
6.180602006688963,2.951484976584545
6.200668896321069,3.0062221365410293
6.2207357859531776,3.0660031225375812
6.240802675585284,3.130313444084675
6.260869565217391,3.1986373788487135
6.280936454849498,3.2704657572325173
6.301003344481605,3.3453020061097374
6.321070234113712,3.422666597579104
6.341137123745819,3.502100110770306
6.361204013377926,3.583165139634832
6.381270903010033,3.6654472778760656
6.40133779264214,3.7485553935438065
6.421404682274248,3.8321213782816557
6.441471571906354,3.915799525529097
6.461538461538461,3.9992656619023155
6.481605351170568,4.082216128672152
6.501672240802676,4.164366686737756
6.521739130434782,4.245451399015232
6.54180602006689,4.325221528525613
6.561872909698996,4.403444478245108
6.581939799331103,4.479902789452977
6.60200668896321,4.55439320835381
6.622073578595318,4.626725825681169
6.642140468227424,4.6967232903920495
6.662207357859531,4.764220096090188
6.682274247491639,4.829061937190268
6.702341137123746,4.891105130834345
6.722408026755852,4.95021610002333
6.742474916387959,5.006270913200613
6.762541806020066,5.059154875522078
6.782608695652174,5.108762167194862
6.80267558528428,5.15499552451213
6.822742474916388,5.197765959514588
6.842809364548494,5.236992514544515
6.862876254180601,5.272602048305567
6.882943143812709,5.304529050389242
6.903010033444816,5.332715481568395
6.9230769230769225,5.357110637485147
6.94314381270903,5.3776710336720495
6.963210702341137,5.3943603101412885
6.983277591973244,5.407149154056853
7.0033444816053505,5.416015239270671
7.023411371237458,5.420943181757316
7.0434782608695645,5.421924510224821
7.063545150501672,5.418957651414327
7.083612040133779,5.412047929830626
7.103678929765886,5.4012075818722405
7.123745819397993,5.386455784555453
7.143812709030099,5.3678186992549515
7.1638795986622075,5.345329531116575
7.183946488294314,5.319028605037538
7.204013377926421,5.288963459359136
7.224080267558528,5.255188958678105
7.2441471571906355,5.217767427457476
7.264214046822742,5.176768806407203
7.2842809364548495,5.132270833909838
7.304347826086956,5.084359255086106
7.324414715719063,5.033128061428064
7.34448160535117,4.9786797642688905
7.364548494983278,4.921125705701375
7.384615384615384,4.860586410890446
7.404682274247491,4.797191986031479
7.424749163879598,4.731082566461298
7.444816053511706,4.662408819596884
7.464882943143812,4.591332507409749
7.48494983277592,4.51802711297444
7.505016722408026,4.442678535166875
7.525083612040134,4.365485854712795
7.545150501672239,4.286662173339107
7.565217391304348,4.2064355255579855
7.585284280936455,4.125049859354961
7.605351170568561,4.04276607743566
7.625418060200669,3.9598631243207913
7.645484949832775,3.8766390960113664
7.665551839464882,3.7934123376717745
7.685618729096991,3.710522480284922
7.705685618729096,3.628331349071274
7.725752508361204,3.5472236543698243
7.74581939799331,3.4676073497719164
7.765886287625418,3.389913513347823
7.785953177257525,3.3145955775966085
7.806020066889631,3.242127705500336
7.826086956521739,3.1730020888419435
7.846153846153847,3.1077249379216614
7.866220735785952,3.0468109481167884
7.88628762541806,2.99077607863248
7.906354515050166,2.9401285717869823
7.926421404682274,2.895358282928026
7.946488294314381,2.856924579386616
7.966555183946488,2.8252432876211016
7.986622073578595,2.8006733924821576
8.006688963210701,2.7835043800913204
8.02675585284281,2.7739452189819906
8.046822742474916,2.7721159519038143
8.066889632107022,2.778042702600028
8.08695652173913,2.7916565991828333
8.107023411371236,2.812796723581239
8.127090301003344,2.841216784406729
8.147157190635452,2.876594853569244
8.167224080267557,2.9185452648112467
8.187290969899665,2.9666316744058987
8.207357859531772,3.0203803257693576
8.227424749163879,3.079292708701023
8.247491638795987,3.1428570147151853
8.267558528428093,3.2105580169289496
8.2876254180602,3.2818852106438117
8.307692307692307,3.3563392176399405
8.327759197324415,3.4334365753120797
8.347826086956522,3.512713103190251
8.367892976588628,3.593726072037706
8.387959866220736,3.67605540475344
8.408026755852843,3.759304123593464
8.42809364548495,3.843098233001888
8.448160535117056,3.9270861977522387
8.468227424749163,4.01093814627589
8.488294314381271,4.094344901475869
8.508361204013378,4.177016917243136
8.528428093645484,4.258683178728351
8.548494983277592,4.339090108085989
8.568561872909697,4.418000504530543
8.588628762541806,4.495192537636906
8.608695652173914,4.570458805365947
8.628762541806019,4.6436054628199965
8.648829431438127,4.714451423807584
8.668896321070234,4.782827634565759
8.68896321070234,4.848576417160651
8.709030100334449,4.911550878930584
8.729096989966555,4.971614383670676
8.749163879598662,5.02864007994391
8.769230769230768,5.082510481836511
8.789297658862875,5.1331170975766724
8.809364548494983,5.180360101647236
8.82943143812709,5.224148046303469
8.849498327759196,5.264397608726286
8.869565217391303,5.301033370379096
8.889632107023411,5.33398762547782
8.909698996655518,5.363200215820189
8.929765886287624,5.38861838954606
8.949832775919733,5.410196681712297
8.96989966555184,5.427896814862422
8.989966555183946,5.44168761805293
9.010033444816054,5.451544963065716
9.030100334448159,5.457451716791
9.050167224080267,5.459397709009594
9.070234113712376,5.457379715039356
9.09030100334448,5.451401452940597
9.110367892976589,5.441473595201928
9.130434782608695,5.427613795053278
9.150501672240802,5.40984672778004
9.17056856187291,5.388204147643351
9.190635451505017,5.3627249612490475
9.210702341137123,5.333455318454286
9.23076923076923,5.300448722157852
9.250836120401337,5.263766158590366
9.270903010033445,5.223476250004109
9.290969899665551,5.179655431960949
9.311036789297658,5.1323881577291575
9.331103678929765,5.081767132624904
9.351170568561873,5.027893581467494
9.37123745819398,4.970877552652074
9.391304347826086,4.910838262669312
9.411371237458194,4.8479044852018545
9.4314381270903,4.78221498917914
9.451505016722408,4.713919030341751
9.471571906354516,4.64317690090807
9.49163879598662,4.570160541786359
9.511705685618729,4.4950542213485845
9.531772575250837,4.41805528396524
9.551839464882942,4.339374970143819
9.57190635451505,4.259239308024071
9.591973244147155,4.177890072916496
9.612040133779264,4.09558580722108
9.632107023411372,4.012602887062655
9.652173913043477,3.9292366138946155
9.672240802675585,3.845802298674517
9.692307692307692,3.7626362925066825
9.712374581939798,3.6800969004344246
9.732441471571907,3.5985650940653913
9.752508361204013,3.5184449139820457
9.77257525083612,3.4401634250673916
9.792642140468226,3.364170058526111
9.812709030100335,3.2909351463821843
9.832775919732441,3.2209474321840315
9.852842809364548,3.154710332138973
9.872909698996656,3.0927367324647985
9.89297658862876,3.0355421511819114
9.91304347826087,2.9836361753174905
9.933110367892976,2.937512213896274
9.953177257525082,2.897635782665573
9.97324414715719,2.8644317469721963
9.993311036789297,2.838271169816959
10.013377926421404,2.8194586051624215
10.033444816053512,2.8082207969561703
10.053511705685617,2.8046977502684465
10.073578595317725,2.808937007601986
10.093645484949834,2.8208916946806153
10.113712374581938,2.840422532667771
10.133779264214047,2.8673036108712355
10.153846153846153,2.9012313484698087
10.17391304347826,2.941835808179017
10.193979933110368,2.9886933950037524
10.214046822742475,3.041339982308032
10.234113712374581,3.099283629938323
10.254180602006688,3.162016253068262
10.274247491638796,3.2290238208178077
10.294314381270903,3.299794873189326
10.31438127090301,3.373827319095771
10.334448160535118,3.4506336062953524
10.354515050167223,3.5297444356288112
10.37458193979933,3.610711233523713
10.394648829431437,3.693107607739895
10.414715719063544,3.7765300015328536
10.434782608695652,3.860597739275405
10.454849498327757,3.9449526286278007
10.474916387959865,4.029258255122351
10.494983277591974,4.113199077367628
10.515050167224079,4.1964794065125
10.535117056856187,4.278822332766229
10.555183946488295,4.359968644693371
10.5752508361204,4.439675773405909
10.595317725752508,4.517716783215818
10.615384615384615,4.5938794222955295
10.635451505016722,4.667965240944676
10.65551839464883,4.739788780749365
10.675585284280936,4.8091768348798105
10.695652173913043,4.875967777700528
10.71571906354515,4.940010960521889
10.735785953177256,5.001166169511449
10.755852842809364,5.05930314136027
10.775919732441471,5.114301132150539
10.795986622073578,5.166048534912077
10.816053511705684,5.2144425415235105
10.836120401337793,5.259388844863584
10.856187290969899,5.300801377416113
10.876254180602006,5.338602082855537
10.896321070234114,5.372720717472404
10.916387959866219,5.403094678629217
10.936454849498327,5.429668857760155
10.956521739130435,5.452395515738771
