Time (s),Filtered Signal
0.0,0.0014924495633227796
0.033370535714285714,0.1970167369779886
0.06674107142857143,0.4072517969536048
0.10011160714285713,0.6325230913081766
0.13348214285714285,0.8512384634193316
0.16685267857142858,1.0239435459988302
0.20022321428571427,1.1073385692284894
0.23359375,1.0721628678760955
0.2669642857142857,0.9166928830947536
0.30033482142857143,0.6692303981105633
0.33370535714285715,0.3778773165408975
0.36707589285714287,0.09205381371259802
0.40044642857142854,-0.15529309426618998
0.43381696428571426,-0.355645227742868
0.4671875,-0.5188192945338952
0.5005580357142857,-0.656606933720608
0.5339285714285714,-0.7664815272110727
0.5672991071428571,-0.8263318104165518
0.6006696428571429,-0.8046916640436594
0.6340401785714286,-0.6809071081930856
0.6674107142857143,-0.46260065899187525
0.70078125,-0.1887090014678644
0.7341517857142857,0.0848537260383781
0.7675223214285715,0.30878793290520296
0.8008928571428571,0.45913527307990154
0.8342633928571428,0.540187680014215
0.8676339285714285,0.5709443740115707
0.9010044642857142,0.5651280499109572
0.934375,0.5187383885079934
0.9677455357142857,0.41392421260609435
1.0011160714285714,0.23714231275972666
1.0344866071428571,8.936954443278673e-05
1.0678571428571428,-0.2505729443379818
1.1012276785714286,-0.4430005571747897
1.1345982142857143,-0.5073559864043323
1.16796875,-0.4086552203564897
1.2013392857142857,-0.16932530077519609
1.2347098214285714,0.13110250013540997
1.2680803571428572,0.3819149049598996
1.3014508928571429,0.4833741592819524
1.3348214285714286,0.3870921569581914
1.3681919642857143,0.11624263131413398
1.4015625,-0.24396085712459006
1.4349330357142858,-0.5812107725051258
1.4683035714285715,-0.8003151141522459
1.5016741071428572,-0.8567929452305229
1.535044642857143,-0.765999943100242
1.5684151785714286,-0.5861231502945459
1.6017857142857141,-0.38537068815883774
1.6351562499999999,-0.20987077840017163
1.6685267857142856,-0.0669719137095046
1.7018973214285713,0.06960848606507015
1.735267857142857,0.23691004220116746
1.7686383928571427,0.45444969883858366
1.8020089285714285,0.7051400135145341
1.8353794642857142,0.9353699664165839
1.86875,1.0747806250048715
1.9021205357142856,1.0665795692645086
1.9354910714285714,0.8940805200904409
1.968861607142857,0.59103924422389
2.002232142857143,0.23117579198202978
2.0356026785714287,-0.09805712736166511
2.0689732142857142,-0.3257296182126545
2.10234375,-0.4193370879021451
2.1357142857142857,-0.3909713280331584
2.169084821428571,-0.2877262219947807
2.202455357142857,-0.17209128956042058
2.2358258928571426,-0.10023303732114888
2.2691964285714286,-0.10498234120891807
2.302566964285714,-0.1876939044088062
2.3359375,-0.3202255646834719
2.3693080357142855,-0.4555978162590471
2.4026785714285714,-0.5437138531931467
2.436049107142857,-0.5473359781902216
2.469419642857143,-0.45371151824169353
2.5027901785714284,-0.27865927743811253
2.5361607142857143,-0.061998519917037684
2.56953125,0.1445482584291458
2.6029017857142858,0.29367203518562324
2.6362723214285713,0.3580003006403227
2.669642857142857,0.33935052492846873
2.7030133928571427,0.267770449741446
2.7363839285714286,0.18990561021607655
2.769754464285714,0.1504578645281594
2.803125,0.17357728768204225
2.8364955357142856,0.25148159986258517
2.8698660714285715,0.3451721806695603
2.903236607142857,0.3977821112621788
2.936607142857143,0.3563753489218912
2.9699776785714285,0.1944170898439948
3.0033482142857144,-0.0740178130692205
3.03671875,-0.3949397546135801
3.070089285714286,-0.6909955277517025
3.1034598214285714,-0.8877087614493187
3.1368303571428573,-0.9383217150893208
3.170200892857143,-0.8366824447500947
3.2035714285714283,-0.6138579799230015
3.2369419642857142,-0.322527098868448
3.2703124999999997,-0.018543658502845894
3.3036830357142857,0.2516850873190129
3.337053571428571,0.4549730543332485
3.370424107142857,0.569425996545121
3.4037946428571426,0.5826259776097358
3.4371651785714286,0.4937871598969338
3.470535714285714,0.3191843100602629
3.50390625,0.0963499414332587
3.5372767857142855,-0.11813313230892325
3.5706473214285714,-0.259703781061205
3.604017857142857,-0.27374905994397536
3.637388392857143,-0.13451391994867726
3.6707589285714284,0.14224755932679095
3.7041294642857143,0.4983996964349769
3.7375,0.8458515022397931
3.7708705357142858,1.0892291807488619
3.8042410714285713,1.1523313380290252
3.837611607142857,1.00067941119213
3.8709821428571427,0.6535182580465009
3.9043526785714286,0.18136132235113897
3.937723214285714,-0.3111116173357418
3.97109375,-0.7129619504219517
4.004464285714286,-0.9382893283066464
4.0378348214285715,-0.9515156387561916
4.0712053571428575,-0.7780360904194736
4.1045758928571425,-0.4956418891716949
4.1379464285714285,-0.20850146641837375
4.171316964285714,-0.012039585974316312
4.2046875,0.038933895569698194
4.238058035714285,-0.05292925151479831
4.271428571428571,-0.2320299200610616
4.304799107142857,-0.4137092607048404
4.338169642857142,-0.5178477659885664
4.371540178571428,-0.49887544763648006
4.404910714285714,-0.3607908595065263
4.43828125,-0.1522013310224085
4.471651785714285,0.05550965635148243
4.505022321428571,0.1972963946144952
4.538392857142857,0.2388544805524931
4.571763392857143,0.18684944239974038
4.605133928571428,0.08185024896433656
4.638504464285714,-0.021722013050732288
4.671875,-0.07908585336200423
4.705245535714286,-0.07176343955832301
4.738616071428571,-0.01107021134453727
4.771986607142857,0.0714864229394787
4.805357142857143,0.14108492518026877
4.838727678571429,0.17544038447407048
4.872098214285714,0.1727755705811817
4.90546875,0.14929295413366026
4.938839285714286,0.12842191041995035
4.972209821428572,0.12763448750902637
5.005580357142857,0.14946858623448284
5.038950892857143,0.18123895424969336
5.072321428571429,0.20351341453264737
5.105691964285715,0.20266595614502378
5.1390625,0.18020204983874388
5.172433035714286,0.152939799155179
5.2058035714285715,0.143263401171877
5.2391741071428575,0.16479827412998532
5.2725446428571425,0.21217327760068538
5.3059151785714285,0.26162642126908203
5.339285714285714,0.28289572315139677
5.3726562499999995,0.25587888077236365
5.406026785714285,0.1822970323323397
5.439397321428571,0.08518433841673602
5.472767857142857,-0.00399292898050174
5.506138392857142,-0.06347341945765958
5.539508928571428,-0.09409373194408197
5.572879464285714,-0.11900453411896253
5.60625,-0.16949995764614048
5.639620535714285,-0.26422243524482153
5.672991071428571,-0.3933246582127349
5.706361607142857,-0.5173157388860324
5.739732142857143,-0.5830027668094064
5.773102678571428,-0.5497692502908745
5.806473214285714,-0.41313780420422225
5.83984375,-0.21268545316452017
5.873214285714286,-0.018412843646732468
5.906584821428571,0.09949845264475315
5.939955357142857,0.10347184071576296
5.973325892857143,0.007477114440753386
6.006696428571429,-0.12801709728209903
6.040066964285714,-0.22337336847784753
6.0734375,-0.21645932626353204
6.106808035714286,-0.09111783433093898
6.140178571428572,0.11573198071769944
6.173549107142857,0.33068612112582607
6.206919642857143,0.4750605941149885
6.240290178571429,0.4956131416441719
6.273660714285715,0.38176836165716
6.30703125,0.1645822067952398
6.340401785714286,-0.09815024172987823
6.3737723214285715,-0.3413184505832408
6.407142857142857,-0.508316281607909
6.4405133928571425,-0.5602160399197922
6.4738839285714285,-0.48003288321976056
6.507254464285714,-0.2751639664409416
6.5406249999999995,0.021131018915968344
6.573995535714285,0.35164440129579355
6.607366071428571,0.6442195096187294
6.640736607142857,0.8290851474833417
6.674107142857142,0.8606287048129113
6.707477678571428,0.735015970221998
6.740848214285714,0.4943420470122633
6.77421875,0.21280011189499048
6.807589285714285,-0.03113591782100135
6.840959821428571,-0.18482412393097208
6.874330357142857,-0.23989937907508657
6.907700892857143,-0.23002853352606006
6.941071428571428,-0.20888428243498838
6.974441964285714,-0.2191446195541481
7.0078125,-0.2681161178473426
7.041183035714286,-0.32271867711855173
7.074553571428571,-0.3272251043345424
7.107924107142857,-0.2356402796332952
7.141294642857143,-0.04249897436247481
7.174665178571429,0.20453152088798687
7.208035714285714,0.41869542656578507
7.24140625,0.5100799295858423
7.274776785714286,0.42699954873252455
7.308147321428572,0.1826342497181047
7.341517857142857,-0.14666922988707326
7.374888392857143,-0.4512476319214982
7.408258928571429,-0.6322554328108915
7.441629464285715,-0.6397948575607719
7.475,-0.4886181024226703
7.508370535714286,-0.24653068555213453
7.5417410714285715,-0.003432707029180299
7.575111607142857,0.16350525729959456
7.6084821428571425,0.2138155577015868
7.6418526785714285,0.14965330529803014
7.675223214285714,0.005832022095887531
7.7085937499999995,-0.16768262208564833
7.741964285714285,-0.3219607048447481
7.775334821428571,-0.4191556893613326
7.808705357142857,-0.43671660763500575
7.842075892857142,-0.3688431239437365
7.875446428571428,-0.22739309647472933
7.908816964285714,-0.04142921281061205
7.9421875,0.14754528842324588
7.975558035714285,0.29655430268743627
8.008928571428571,0.3761850923907733
8.042299107142856,0.38331388408706296
8.075669642857143,0.3440777364841081
8.109040178571428,0.30334155941132795
8.142410714285715,0.30381274740091585
8.17578125,0.3641950044516142
8.209151785714285,0.46748283757641923
8.242522321428572,0.5662201984417154
8.275892857142857,0.6032309792718851
8.309263392857142,0.5383556042001134
8.342633928571429,0.36845623369477004
8.376004464285714,0.13117987063276898
8.409375,-0.10913298080656643
8.442745535714286,-0.28671651022629774
8.47611607142857,-0.35957611793341043
8.509486607142858,-0.32422464550255764
8.542857142857143,-0.21473167277288638
8.576227678571428,-0.08754836092353882
8.609598214285715,0.0010265483315476827
8.64296875,0.015577401830025345
8.676339285714285,-0.04734162245622346
8.709709821428572,-0.16137977662331157
8.743080357142857,-0.28397390593467736
8.776450892857143,-0.3749108769982147
8.809821428571428,-0.4116256571328084
8.843191964285714,-0.394864781233783
8.8765625,-0.3432449059833725
8.909933035714285,-0.28087285506989823
8.94330357142857,-0.22547686647976445
8.976674107142857,-0.18330851325116526
9.010044642857142,-0.15201026901877374
9.04341517857143,-0.12713722349820913
9.076785714285714,-0.1060923381220805
9.11015625,-0.08632787355348066
9.143526785714286,-0.060299657377529646
9.176897321428571,-0.01328269698299934
9.210267857142856,0.0712685449717585
9.243638392857143,0.19978712305800514
9.277008928571428,0.35693888813876307
9.310379464285715,0.5028979583534533
9.34375,0.5842529531597004
9.377120535714285,0.555595111394941
9.410491071428572,0.4020125342622177
9.443861607142857,0.1509283185544035
9.477232142857142,-0.13368869767953773
9.510602678571429,-0.37310963471207287
9.543973214285714,-0.5020627357156139
9.57734375,-0.4908420818696511
9.610714285714286,-0.3522416343592436
9.64408482142857,-0.13206649736414258
9.677455357142858,0.11030767215536391
9.710825892857143,0.32139102116748614
9.744196428571428,0.4653121199360802
9.777566964285715,0.5259013279562207
9.8109375,0.5026592749793077
9.844308035714285,0.4060266043483934
9.877678571428572,0.2551803965252828
9.911049107142857,0.07758596142935138
9.944419642857143,-0.09303838511947699
9.977790178571428,-0.22293848997592305
10.011160714285714,-0.2879254631539813
10.04453125,-0.28213965613437303
10.077901785714285,-0.22092688794227044
10.11127232142857,-0.13533375655076169
10.144642857142857,-0.060138370218561166
10.178013392857142,-0.020828566948920407
10.21138392857143,-0.02539114455154609
10.244754464285714,-0.06402395095543417
10.278125,-0.11570143294859808
10.311495535714286,-0.15738537316151896
10.344866071428571,-0.1712514626852664
10.378236607142856,-0.14758731275406897
10.411607142857143,-0.0843591623005843
10.444977678571428,0.013500039060704233
10.478348214285715,0.13280246952528857
10.51171875,0.24966833427301632
10.545089285714285,0.3298551560587257
10.578459821428572,0.33599758654943707
10.611830357142857,0.24227771926918348
10.645200892857142,0.051335702413654816
10.678571428571429,-0.19587434465113235
10.711941964285714,-0.4257270746410957
10.745312499999999,-0.555001378198379
10.778683035714286,-0.5240061426069598
10.81205357142857,-0.3253941321464879
10.845424107142858,-0.014142943632456856
10.878794642857143,0.3082156412938097
10.912165178571428,0.5301431553592711
10.945535714285715,0.5723305986060165
10.97890625,0.4175111645885339
11.012276785714285,0.11543289632135259
11.045647321428572,-0.2379431104399646
11.079017857142857,-0.5365776027056705
11.112388392857143,-0.6997442472263677
11.145758928571428,-0.6930478567795827
11.179129464285714,-0.5299313345395092
11.2125,-0.25804004999323127
11.245870535714285,0.05972721800098951
11.27924107142857,0.36055019992617293
11.312611607142857,0.5901354118562855
11.345982142857142,0.7070472041864074
11.37935267857143,0.6877548817880486
11.412723214285714,0.5340549106513942
11.44609375,0.2789393653137101
11.479464285714286,-0.016050004566989802
11.512834821428571,-0.2760897677888633
11.546205357142856,-0.43743835666876524
11.579575892857143,-0.4700556013233621
11.612946428571428,-0.3862729760118522
11.646316964285715,-0.22993411938779318
11.6796875,-0.05161983035085243
11.713058035714285,0.1157344234004931
11.746428571428572,0.2664290325519372
11.779799107142857,0.4116170992519989
11.813169642857142,0.5566711189540833
11.846540178571429,0.6822302679107823
11.879910714285714,0.7428855325160983
11.913281249999999,0.6864489526595896
11.946651785714286,0.4836834262722132
11.98002232142857,0.15142086056628903
12.013392857142858,-0.2447077614443607
12.046763392857143,-0.6105092624508801
12.080133928571428,-0.8568486645880713
12.113504464285715,-0.9308390661525178
12.146875,-0.8312361864788224
12.180245535714285,-0.6033948467095146
12.213616071428572,-0.31877790536512374
12.246986607142857,-0.049675770904580724
12.280357142857143,0.15045603712445857
12.313727678571428,0.25546355323921505
12.347098214285714,0.26432986995497754
12.38046875,0.19318116026126253
12.413839285714285,0.06695984414093394
12.44720982142857,-0.08608384228620693
12.480580357142857,-0.2371971160088388
12.513950892857142,-0.35919691214433713
12.54732142857143,-0.42926029488015854
12.580691964285714,-0.43203248330159677
12.6140625,-0.36153277296912717
12.647433035714286,-0.22113705979915382
12.680803571428571,-0.022775369752174708
12.714174107142856,0.2127500971844245
12.747544642857143,0.4540741559358799
12.780915178571428,0.6589521663617258
12.814285714285713,0.7795434890801665
12.84765625,0.775295784498417
12.881026785714285,0.6301901389596901
12.914397321428572,0.36628094311137627
12.947767857142857,0.044803363228590236
12.981138392857142,-0.2490924725079522
13.014508928571429,-0.4339201430289025
13.047879464285714,-0.4608875583184447
13.081249999999999,-0.331838816184109
13.114620535714286,-0.09813055476685084
13.14799107142857,0.1590148064329758
13.181361607142858,0.3580262892155622
13.214732142857143,0.4440015036431996
13.248102678571428,0.4030097657854777
13.281473214285715,0.2599004227745976
13.31484375,0.063048705513798
13.348214285714285,-0.1358609692913456
13.381584821428572,-0.29833878848661727
13.414955357142857,-0.4062150835873161
13.448325892857143,-0.45858221458641185
13.481696428571428,-0.4624425738595377
13.515066964285714,-0.42365203926878703
13.5484375,-0.34409960704846126
13.581808035714285,-0.2269038274727446
13.61517857142857,-0.08559021490876467
13.648549107142857,0.05067811652554362
13.681919642857142,0.14252082779549702
13.71529017857143,0.15666361592088224
13.748660714285714,0.08549601212157137
13.78203125,-0.041817442342649794
13.815401785714286,-0.16524408880340521
13.848772321428571,-0.2164887654947893
13.882142857142856,-0.14848208191466328
13.915513392857143,0.042435927928796205
13.948883928571428,0.3124127770106339
13.982254464285713,0.5856985051522549
14.015625,0.7821193728829131
14.048995535714285,0.8439175979321397
14.082366071428572,0.7516010047380365
14.115736607142857,0.5251455857590166
14.149107142857142,0.21372762261569767
14.182477678571429,-0.11947943965254218
14.215848214285714,-0.4117850003875063
14.249218749999999,-0.6122416329866862
14.282589285714286,-0.689805733939973
14.31595982142857,-0.6389314325533195
14.349330357142858,-0.48178638200530005
14.382700892857143,-0.26507479453311117
14.416071428571428,-0.05007926120072204
14.449441964285715,0.10292610127595957
14.4828125,0.15181783587585884
14.516183035714285,0.08579058377868755
14.549553571428572,-0.07018840470442751
14.582924107142857,-0.26180918575623635
14.616294642857143,-0.4215050957243154
14.649665178571428,-0.4895944768019513
14.683035714285714,-0.4335398606422635
14.71640625,-0.25835934745709876
14.749776785714285,-0.004241633250138476
14.78314732142857,0.2674469727287794
14.816517857142857,0.4938579209051849
14.849888392857142,0.6284278313983952
14.88325892857143,0.6510923068887585
14.916629464285714,0.5694466408483767
14.95,0.41293815311837845
14.983370535714286,0.2234649597741825
15.016741071428571,0.04496076353018117
15.050111607142856,-0.08671876664689106
15.083482142857143,-0.15253579599934042
15.116852678571428,-0.1556769677793805
15.150223214285713,-0.12094764961521988
15.18359375,-0.08644300848544828
15.216964285714285,-0.08876725880393448
15.250334821428572,-0.14671372883363304
15.283705357142857,-0.2503952817845122
15.317075892857142,-0.36166971675039156
15.350446428571429,-0.42733431998096943
15.383816964285714,-0.40077861678440946
15.417187499999999,-0.2633719448435693
15.450558035714286,-0.036136846499933206
15.48392857142857,0.22419519375242491
15.517299107142858,0.44427216520964913
15.550669642857143,0.5613755011755008
15.584040178571428,0.5479680785757919
15.617410714285715,0.4231044976723046
15.65078125,0.2451297179492813
15.684151785714285,0.08770276524270962
15.717522321428572,0.008582537136449384
15.750892857142857,0.024557371902251553
15.784263392857143,0.104192708369593
15.817633928571428,0.18274555224954586
15.851004464285714,0.19338496920094425
15.884375,0.10044884432732523
15.917745535714285,-0.0815717171950733
15.95111607142857,-0.2934336606063848
15.984486607142857,-0.45903992913793285
16.017857142857142,-0.5221308888670155
16.05122767857143,-0.47295639965890734
16.084598214285712,-0.3509499601198265
16.11796875,-0.22198097476191814
16.151339285714286,-0.14235883048766823
16.18470982142857,-0.12899194693472368
16.218080357142856,-0.1519604510404508
16.251450892857143,-0.15379202921730953
16.28482142857143,-0.08520159664558427
16.318191964285713,0.062272119861949644
16.3515625,0.2451962417733276
16.384933035714287,0.38590289114609794
16.41830357142857,0.4104555709561317
16.451674107142857,0.28722032306867945
16.485044642857144,0.04578943098141612
16.518415178571427,-0.2334511001651366
16.551785714285714,-0.45325121696514664
16.58515625,-0.5393613652496511
16.618526785714284,-0.4672522535509935
16.65189732142857,-0.2653120174889724
16.685267857142858,0.0028787080987038123
16.71863839285714,0.2651914691873896
16.752008928571428,0.46339080794768883
16.785379464285715,0.5643400353034197
16.81875,0.5608905176302855
16.852120535714285,0.4677550242460697
16.88549107142857,0.316669619746064
16.91886160714286,0.15117482191238685
16.95223214285714,0.018546520651981417
16.98560267857143,-0.0426150964933332
17.018973214285715,-0.016547292581846264
17.05234375,0.08030785667218553
17.085714285714285,0.20163516359004216
17.119084821428572,0.2876331138646347
17.152455357142856,0.29027898612629677
17.185825892857142,0.196097774775463
17.21919642857143,0.03443313685695416
17.252566964285712,-0.13450286926069177
17.2859375,-0.24722249850209418
17.319308035714286,-0.26701588585785707
17.35267857142857,-0.2014831202164147
17.386049107142856,-0.09878574608297896
17.419419642857143,-0.024656658480803915
17.45279017857143,-0.0316390974258873
17.486160714285713,-0.13523905056075
17.51953125,-0.307526563016548
17.552901785714287,-0.4899538741107753
17.58627232142857,-0.6184293177818725
17.619642857142857,-0.648979917639805
17.653013392857144,-0.5732472877843366
17.686383928571427,-0.4184951798805581
