Frequency (Hz),Amplitude
0.0,13.939090972910787
0.019801980198019802,13.939527577980817
0.039603960396039604,13.940835622773966
0.0594059405940594,13.943009804248588
0.07920792079207921,13.946041311310093
0.09900990099009901,13.949917865580067
0.1188118811881188,13.954623778089212
0.13861386138613863,13.960140021516123
0.15841584158415842,13.966444317493389
0.1782178217821782,13.973511238409138
0.19801980198019803,13.981312323043744
0.21782178217821782,13.989816205302159
0.2376237623762376,13.998988755231062
0.25742574257425743,14.008793231447568
0.27722772277227725,14.019190444053379
0.297029702970297,14.030138927065396
0.31683168316831684,14.041595119360483
0.33663366336633666,14.053513553107893
0.3564356435643564,14.065847048649928
0.37623762376237624,14.078546914784948
0.39603960396039606,14.091563153411768
0.4158415841584158,14.104844667505363
0.43564356435643564,14.118339471413167
0.45544554455445546,14.131994902486731
0.4752475247524752,14.14575783309558
0.495049504950495,14.159574882105638
0.5148514851485149,14.17339262494645
0.5346534653465347,14.187157801434822
0.5544554455445545,14.200817520569437
0.5742574257425742,14.214319461559409
0.594059405940594,14.22761207039976
0.613861386138614,14.240644751355807
0.6336633663366337,14.253368052769737
0.6534653465346534,14.265733846650093
0.6732673267326733,14.277695501553946
0.6930693069306931,14.289208048317148
0.7128712871287128,14.300228338232396
0.7326732673267327,14.310715193316614
0.7524752475247525,14.320629548349363
0.7722772277227723,14.329934584399412
0.7920792079207921,14.33859585359276
0.8118811881188118,14.346581394904916
0.8316831683168316,14.353861840790508
0.8514851485148516,14.360410514488134
0.8712871287128713,14.366203517862955
0.891089108910891,14.371219809669828
0.9108910891089109,14.375441274138945
0.9306930693069307,14.37885277980282
0.9504950495049505,14.381442228497926
0.9702970297029703,14.38320059448837
0.99009900990099,14.384121953669917
1.00990099009901,14.384203502824732
1.0297029702970297,14.383445568905962
1.0495049504950495,14.381851608341998
1.0693069306930694,14.379428196358601
1.0891089108910892,14.376185006326743
1.108910891089109,14.372134779153578
1.1287128712871286,14.367293282744326
1.1485148514851484,14.361679261573382
1.1683168316831685,14.355314376416077
1.188118811881188,14.348223134305513
1.2079207920792079,14.34043280879452
1.227722772277228,14.331973350620228
1.2475247524752475,14.322877288887828
1.2673267326732673,14.313179622912182
1.2871287128712872,14.302917704879642
1.3069306930693068,14.292131113520067
1.3267326732673268,14.280861519007523
1.3465346534653466,14.269152539341242
1.3663366336633662,14.257049588493306
1.3861386138613863,14.244599716646599
1.405940594059406,14.23185144288821
1.4257425742574257,14.218854580765017
1.4455445544554455,14.205660057154114
1.4653465346534653,14.192319724947522
1.4851485148514851,14.178886170099165
1.504950495049505,14.165412513632031
1.5247524752475248,14.151952209253764
1.5445544554455446,14.138558837279776
1.5643564356435644,14.125285895612725
1.5841584158415842,14.112186588576217
1.6039603960396038,14.099313614447375
1.6237623762376237,14.086718952577378
1.6435643564356437,14.074453651029234
1.6633663366336633,14.062567615698592
1.683168316831683,14.051109401914484
1.7029702970297032,14.04012600954159
1.7227722772277227,14.02966268262395
1.7425742574257426,14.01976271462071
1.7623762376237624,14.010467260286685
1.782178217821782,14.00181515524417
1.801980198019802,13.993842744276671
1.8217821782178218,13.986583719349857
1.8415841584158414,13.980068968329867
1.8613861386138615,13.97432643532398
1.881188118811881,13.96938099351388
1.900990099009901,13.965254331287428
1.920792079207921,13.961964852401278
1.9405940594059405,13.959527590825362
1.9603960396039604,13.95795414083021
1.98019801980198,13.95725260278294
2.0,13.957427545014669
2.01980198019802,13.958479982017613
2.0396039603960396,13.960407369119341
2.0594059405940595,13.963203613671542
2.0792079207920793,13.966859102678463
2.099009900990099,13.97136074668001
2.118811881188119,13.976692039595827
2.1386138613861387,13.982833134132392
2.1584158415841586,13.989760932254883
2.1782178217821784,13.997449190132317
2.1980198019801978,14.005868636877413
2.217821782178218,14.014987106323893
2.237623762376238,14.024769681013867
2.257425742574257,14.035178847506822
2.2772277227722775,14.046174662070612
2.297029702970297,14.057714925772904
2.3168316831683167,14.069755367960488
2.336633663366337,14.082249837090897
2.3564356435643563,14.095150497869527
2.376237623762376,14.10840803364108
2.3960396039603964,14.121971852989958
2.4158415841584158,14.135790299517309
2.4356435643564356,14.149810863782605
2.455445544554456,14.163980396425307
2.4752475247524752,14.17824532151411
2.495049504950495,14.192551849209426
2.514851485148515,14.206846186866105
2.5346534653465347,14.221074747748496
2.5544554455445545,14.235184356577172
2.5742574257425743,14.249122451175639
2.594059405940594,14.262837279535121
2.6138613861386135,14.276278091666104
2.633663366336634,14.289395325654871
2.6534653465346536,14.30214078739216
2.673267326732673,14.314467823489407
2.6930693069306932,14.326331486942966
2.712871287128713,14.337688695151778
2.7326732673267324,14.348498379934284
2.7524752475247527,14.358721629230615
2.7722772277227725,14.36832182021134
2.792079207920792,14.37726474354876
2.811881188118812,14.385518718636623
2.8316831683168315,14.393054699573241
2.8514851485148514,14.39984637174763
2.8712871287128716,14.405870238891822
2.891089108910891,14.411105700482832
2.910891089108911,14.41553511939583
2.9306930693069306,14.41914387972677
2.9504950495049505,14.421920434716759
2.9702970297029703,14.423856344723562
2.99009900990099,14.424946305197052
3.00990099009901,14.425188164626071
3.0297029702970297,14.424582932433793
3.0495049504950495,14.42313477680813
3.0693069306930694,14.420851012462437
3.089108910891089,14.417742078331662
3.108910891089109,14.41382150521785
3.128712871287129,14.409105873409999
3.148514851485148,14.403614760313923
3.1683168316831685,14.3973706781407
3.1881188118811883,14.390399001716263
3.2079207920792077,14.382727886490356
3.227722772277228,14.374388176841064
3.2475247524752473,14.365413304791348
3.267326732673267,14.355839179276023
3.2871287128712874,14.345704066123295
3.3069306930693068,14.335048458942454
3.3267326732673266,14.323914941139567
3.346534653465347,14.312348039317307
3.366336633663366,14.300394068350522
3.386138613861386,14.288100968468667
3.4059405940594063,14.275518134717826
3.4257425742574257,14.262696239219638
3.4455445544554455,14.24968704669038
3.4653465346534653,14.236543223733008
3.485148514851485,14.223318142463874
3.504950495049505,14.210065679088494
3.5247524752475248,14.19684000809137
3.5445544554455446,14.183695392757746
3.564356435643564,14.170685972796239
3.5841584158415842,14.157865549881084
3.603960396039604,14.145287371980906
3.6237623762376234,14.133003917385878
3.6435643564356437,14.121066679386079
3.6633663366336635,14.109525952590982
3.683168316831683,14.098430621910438
3.702970297029703,14.087827955242895
3.722772277227723,14.077763400934174
3.7425742574257423,14.068280391079378
3.762376237623762,14.059420151742385
3.7821782178217824,14.051221521159375
3.801980198019802,14.043720776974672
3.8217821782178216,14.036951473530763
3.841584158415842,14.03094429019576
3.8613861386138613,14.025726891664924
3.881188118811881,14.021323801113962
3.9009900990099013,14.017756287015601
3.9207920792079207,14.01504226435374
3.9405940594059405,14.013196210884345
3.96039603960396,14.01222909900007
3.98019801980198,14.012148343655834
4.0,14.012957766707366
4.01980198019802,14.014657577906483
4.03960396039604,14.017244372683031
4.0594059405940595,14.020711146731385
4.079207920792079,14.025047327303835
4.099009900990099,14.030238821001399
4.118811881188119,14.036268077742056
4.138613861386139,14.043114170480479
4.158415841584159,14.05075289015242
4.178217821782178,14.059156855222279
4.198019801980198,14.068295635125851
4.217821782178218,14.078135886820982
4.237623762376238,14.088641503589367
4.257425742574258,14.09977377517274
4.2772277227722775,14.111491558275937
4.297029702970297,14.123751456429659
4.316831683168317,14.13650800817497
4.336633663366336,14.149713882512332
4.356435643564357,14.163320080546146
4.376237623762377,14.177276142256037
4.3960396039603955,14.191530357331809
4.415841584158416,14.20602997902561
4.435643564356436,14.22072143999675
4.455445544554455,14.235550569154015
4.475247524752476,14.250462808534682
4.4950495049504955,14.265403429299365
4.514851485148514,14.280317745964984
4.534653465346535,14.295151328044742
4.554455445544555,14.309850208312719
4.574257425742574,14.324361086961229
4.594059405940594,14.338631530969804
4.613861386138614,14.352610168055998
4.633663366336633,14.366246874629057
4.653465346534653,14.379492957216764
4.673267326732674,14.39230132688416
4.693069306930693,14.404626666209094
4.712871287128713,14.41642558842346
4.732673267326733,14.427656788370676
4.752475247524752,14.438281184968922
4.772277227722772,14.44826205490563
4.792079207920793,14.457565157322543
4.811881188118812,14.466158849280527
4.8316831683168315,14.474014191821562
4.851485148514852,14.481105046470185
4.871287128712871,14.487408162038871
4.891089108910891,14.492903251622131
4.910891089108912,14.497573059681526
4.930693069306931,14.501403419139773
4.9504950495049505,14.504383298415634
4.97029702970297,14.506504838344068
4.99009900990099,14.507763378936692
5.00990099009901,14.508157475948035
5.02970297029703,14.507688907222278
5.0495049504950495,14.506362668804082
5.069306930693069,14.504186960805862
5.089108910891089,14.501173163033192
5.108910891089109,14.497335800379156
5.128712871287129,14.492692498008964
5.148514851485149,14.487263926367705
5.1683168316831685,14.481073736056441
5.188118811881188,14.474148482636808
5.207920792079208,14.466517541440291
5.227722772277227,14.458213012476785
5.247524752475248,14.449269615558308
5.267326732673268,14.439724575776784
5.2871287128712865,14.429617499501068
5.306930693069307,14.418990241087739
5.326732673267327,14.407886760531754
5.346534653465346,14.396352972318477
5.366336633663367,14.38443658577613
5.3861386138613865,14.372186937269463
5.405940594059405,14.3596548146181
5.425742574257426,14.346892274170509
5.445544554455446,14.33395245101258
5.465346534653465,14.320889362840934
5.485148514851486,14.307757708083521
5.504950495049505,14.294612658903558
5.524752475247524,14.28150964977714
5.544554455445545,14.26850416238919
5.564356435643565,14.255651507645652
5.584158415841584,14.24300660565198
5.603960396039604,14.230623764557718
5.623762376237624,14.21855645921326
5.643564356435643,14.206857110627816
5.663366336633663,14.195576867254664
5.683168316831684,14.184765389161992
5.702970297029703,14.174470636172106
5.7227722772277225,14.16473866106994
5.742574257425743,14.155613408989842
5.762376237623762,14.147136524090865
5.782178217821782,14.139347164620153
5.801980198019803,14.132281827445185
5.821782178217822,14.125974183104844
5.841584158415841,14.120454922389287
5.861386138613861,14.115751615406728
5.881188118811881,14.111888584034109
5.900990099009901,14.108886788576731
5.920792079207921,14.106763729380848
5.9405940594059405,14.105533364053459
5.96039603960396,14.105206040845912
5.98019801980198,14.105788448653428
6.0,14.107283583972908
6.01980198019802,14.109690735047135
6.03960396039604,14.11300548330662
6.0594059405940595,14.117219722101899
6.079207920792079,14.122321692601274
6.099009900990099,14.128296036612157
6.118811881188119,14.135123865970883
6.138613861386139,14.142782848037172
6.158415841584159,14.15124730672613
6.178217821782178,14.160488338414305
6.198019801980198,14.170473941968691
6.217821782178218,14.18116916206755
6.237623762376237,14.192536244912885
6.257425742574258,14.204534805373843
6.2772277227722775,14.217122004551717
6.297029702970296,14.23025273671795
6.316831683168317,14.243879824548431
6.336633663366337,14.257954221558983
6.356435643564356,14.272425220639464
6.376237623762377,14.287240667584413
6.396039603960396,14.302347178529
6.415841584158415,14.317690360217032
6.435643564356436,14.333215032052975
6.455445544554456,14.34886544892289
6.475247524752475,14.364585523805763
6.495049504950495,14.380319049239896
6.514851485148515,14.396009916754698
6.534653465346534,14.411602333427494
6.554455445544554,14.427041034776146
6.574257425742575,14.442271493250379
6.594059405940594,14.457240121638407
6.6138613861386135,14.471894470757528
6.633663366336634,14.48618342085015
6.653465346534653,14.500057366157119
6.673267326732673,14.513468392189816
6.693069306930694,14.526370445269082
6.712871287128713,14.538719493943836
6.732673267326732,14.550473681944561
6.752475247524753,14.561593472365212
6.772277227722772,14.572041782804122
6.792079207920792,14.581784111227236
6.811881188118813,14.59078865234715
6.8316831683168315,14.599026404339325
6.851485148514851,14.606471265740806
6.871287128712871,14.61310012239896
6.891089108910891,14.618892924356832
6.910891089108911,14.623832752579382
6.930693069306931,14.627905875438826
6.9504950495049505,14.631101794891663
6.97029702970297,14.63341328229073
6.99009900990099,14.634836403786576
7.00990099009901,14.63537053528147
7.02970297029703,14.63501836690861
7.0495049504950495,14.633785897016995
7.069306930693069,14.631682415651383
7.089108910891089,14.628720477525128
7.108910891089109,14.624915864493135
7.128712871287128,14.620287537542417
7.148514851485149,14.614857578329197
7.1683168316831685,14.608651120304595
7.188118811881187,14.601696269485853
7.207920792079208,14.594024014946504
7.227722772277228,14.585668129118968
7.247524752475247,14.576665058024261
7.267326732673268,14.567053801568443
7.287128712871287,14.556875784072941
7.306930693069306,14.546174715236724
7.326732673267327,14.534996441761889
7.346534653465347,14.523388789911644
7.366336633663366,14.511401399309761
7.3861386138613865,14.499085548334069
7.405940594059406,14.486493971502943
7.425742574257425,14.473680669303317
7.445544554455446,14.460700710960005
7.465346534653466,14.447610030700359
7.485148514851485,14.434465218124084
7.504950495049505,14.421323303344304
7.524752475247524,14.408241537624175
7.544554455445544,14.395277170289907
7.564356435643565,14.382487222758076
7.584158415841584,14.36992826057007
7.603960396039604,14.357656164378032
7.623762376237624,14.345725900876705
7.643564356435643,14.334191294718908
7.663366336633663,14.323104802492258
7.683168316831684,14.31251728986715
7.702970297029703,14.302477813051437
7.7227722772277225,14.293033405704927
7.742574257425743,14.284228872474703
7.762376237623762,14.276106590311363
7.782178217821782,14.268706318714262
7.801980198019803,14.262065020031677
7.821782178217822,14.256216690908229
7.841584158415841,14.251192205926953
7.861386138613862,14.247019174437531
7.881188118811881,14.243721811495885
7.900990099009901,14.241320823761392
7.92079207920792,14.239833311112543
7.9405940594059405,14.239272684644217
7.96039603960396,14.239648601605635
7.980198019801979,14.240966917727151
8.0,14.243229657266635
8.01980198019802,14.246435000985974
8.03960396039604,14.250577292143866
8.05940594059406,14.255647060467448
8.07920792079208,14.261631063940305
8.099009900990099,14.268512348123666
8.118811881188119,14.276270322608582
8.138613861386139,14.28488085408454
8.158415841584159,14.294316375402925
8.178217821782178,14.304546009915631
8.198019801980198,14.315535710278517
8.217821782178218,14.327248410829233
8.237623762376238,14.33964419257885
8.257425742574258,14.352680459797261
8.277227722772277,14.366312127124383
8.297029702970297,14.380491816101273
8.316831683168317,14.39517005999026
8.336633663366337,14.410295515737081
8.356435643564357,14.425815181923268
8.376237623762377,14.441674621562177
8.396039603960396,14.45781818860522
8.415841584158416,14.474189257047957
8.435643564356436,14.490730451554443
8.455445544554456,14.507383878554844
8.475247524752476,14.524091356812727
8.495049504950495,14.540794646504885
8.514851485148515,14.55743567590611
8.534653465346535,14.573956764824286
8.554455445544555,14.590300843985599
8.574257425742575,14.606411669624533
8.594059405940595,14.622234032590317
8.613861386138613,14.637713961335443
8.633663366336634,14.652798918206987
8.653465346534654,14.66743798851401
8.673267326732672,14.681582061894742
8.693069306930694,14.69518400555577
8.712871287128714,14.708198829000791
8.732673267326732,14.720583839909306
8.752475247524753,14.732298790864808
8.772277227722773,14.743306016668997
8.792079207920791,14.753570562011102
8.811881188118813,14.76306029929161
8.831683168316832,14.771746036427066
8.85148514851485,14.779601614485735
8.871287128712872,14.786603995026157
8.891089108910892,14.79273333702823
8.91089108910891,14.79797306332351
8.930693069306932,14.802309916445182
8.950495049504951,14.805734003830281
8.97029702970297,14.80823883231819
8.990099009900991,14.80982133189817
9.00990099009901,14.81048186866799
9.029702970297029,14.810224246973293
9.04950495049505,14.809055700705429
9.06930693069307,14.806986873743137
9.089108910891088,14.804031789532026
9.10891089108911,14.80020780980443
9.12871287128713,14.795535582452848
9.148514851485148,14.790038978581363
9.16831683168317,14.783745018772875
9.188118811881187,14.776683788625329
9.207920792079207,14.768888343627752
9.227722772277229,14.760394603467178
9.247524752475247,14.751241235880617
9.267326732673267,14.741469530192502
9.287128712871288,14.731123260707374
9.306930693069306,14.720248540160364
9.326732673267326,14.70889366346413
9.346534653465348,14.697108942031273
9.366336633663366,14.684946528993606
9.386138613861386,14.672460235687275
9.405940594059407,14.65970533982195
9.425742574257425,14.646738385805696
9.445544554455445,14.633616977752698
9.465346534653467,14.620399565758994
9.485148514851485,14.607145226091081
9.504950495049505,14.593913435993647
9.524752475247526,14.580763843884043
9.544554455445544,14.567756035762649
9.564356435643564,14.554949298729001
9.584158415841586,14.542402382552025
9.603960396039604,14.530173260298447
9.623762376237623,14.518318889075587
9.643564356435645,14.506894971991523
9.663366336633663,14.49595572247713
9.683168316831683,14.485553632148102
9.702970297029704,14.475739243411677
9.722772277227723,14.466560928039712
9.742574257425742,14.458064672937438
9.762376237623764,14.450293874333546
9.782178217821782,14.44328914160349
9.801980198019802,14.437088111911399
9.821782178217823,14.43172527681808
9.841584158415841,14.427231821952319
9.861386138613861,14.423635480780703
9.881188118811881,14.420960403436991
9.900990099009901,14.41922704148756
9.92079207920792,14.41845204941301
9.94059405940594,14.418648203482325
9.96039603960396,14.419824338581277
9.98019801980198,14.421985303437816
10.0,14.425131934559971
10.01980198019802,14.429261049073125
10.03960396039604,14.434365456510415
10.05940594059406,14.440433989477997
10.07920792079208,14.44745155298475
10.099009900990099,14.455399192097708
10.118811881188119,14.464254177459754
10.138613861386139,14.473990108088687
10.158415841584159,14.48457703076475
10.178217821782178,14.495981575212976
10.198019801980198,14.508167104193223
10.217821782178218,14.521093877529745
10.237623762376238,14.534719229041283
10.257425742574258,14.548997755274147
10.277227722772277,14.563881514893973
10.297029702970297,14.57932023755671
10.316831683168317,14.59526154105695
10.336633663366337,14.61165115553917
10.356435643564357,14.628433153557905
10.376237623762377,14.645550184780893
10.396039603960396,14.662943714149172
10.415841584158416,14.680554262335006
10.435643564356436,14.698321647373145
10.455445544554454,14.71618522638273
10.475247524752476,14.734084136343471
10.495049504950495,14.751957532941876
10.514851485148514,14.769744826556755
10.534653465346535,14.787385914511848
10.554455445544555,14.80482140878116
10.574257425742573,14.821992858392107
10.594059405940595,14.83884296583162
10.613861386138614,14.855315796817548
10.633663366336632,14.871356982855913
10.653465346534654,14.886913916058777
10.673267326732674,14.901935935750473
