Time (s),Filtered Signal
0.0,-0.0180606218136461
0.03337004405286344,-1.3592429325588304
0.06674008810572687,-2.4059664016451676
0.10011013215859031,-2.9623010011765225
0.13348017621145375,-2.986053081924277
0.16685022026431717,-2.582476211401236
0.20022026431718062,-1.9458419113566414
0.23359030837004408,-1.2810434257361956
0.2669603524229075,-0.7403827123291098
0.3003303964757709,-0.3959174565672841
0.33370044052863435,-0.24653975250142895
0.3670704845814978,-0.2442261096887801
0.40044052863436125,-0.3219135763145677
0.43381057268722467,-0.41327814152839887
0.46718061674008815,-0.46415906086569575
0.5005506607929515,-0.43980141439498294
0.533920704845815,-0.3304203685568998
0.5672907488986785,-0.15356573337300772
0.6006607929515418,0.05011654374465957
0.6340308370044053,0.22912855477208663
0.6674008810572687,0.33851732974263526
0.7007709251101322,0.3561622093012637
0.7341409691629956,0.2913510996480994
0.767511013215859,0.18197310573032838
0.8008810572687225,0.08132543758957608
0.834251101321586,0.03972589534340395
0.8676211453744493,0.08798951313045444
0.9009911894273128,0.22863977384713116
0.9343612334801763,0.43714695065856685
0.9677312775330397,0.6712684387962478
1.001101321585903,0.8837183321762936
1.0344713656387665,1.0331775394608025
1.06784140969163,1.0908835523957365
1.1012114537444935,1.0431322415075364
1.134581497797357,0.8919416071515714
1.1679515418502202,0.655694665800421
1.2013215859030837,0.3693436513738529
1.2346916299559472,0.0816732109112324
1.2680616740088106,-0.15286878130444642
1.3014317180616741,-0.28773519757894145
1.3348017621145374,-0.2996308818638953
1.3681718061674009,-0.19970170152417124
1.4015418502202643,-0.034961708648257275
1.4349118942731278,0.122674917197587
1.4682819383259913,0.1979770829511391
1.5016519823788548,0.13844322534908976
1.535022026431718,-0.06419448297866943
1.5683920704845815,-0.365963683280627
1.601762114537445,-0.6813395313969786
1.6351321585903085,-0.9110084781749269
1.668502202643172,-0.9776997018101592
1.7018722466960352,-0.8565172335354855
1.7352422907488987,-0.5870403158388928
1.7686123348017622,-0.26093527734375316
1.8019823788546256,0.011419895352399562
1.8353524229074891,0.1428023339448607
1.8687224669603526,0.10280295374599305
1.9020925110132159,-0.07067814489601597
1.9354625550660793,-0.28723499571915606
1.9688325991189428,-0.44093469223625864
2.002202643171806,-0.45342554375215366
2.0355726872246698,-0.3053589659157827
2.068942731277533,-0.042991494342490964
2.1023127753303967,0.24278892129181226
2.13568281938326,0.4559106609095013
2.1690528634361232,0.5357130712075716
2.202422907488987,0.48065204507720044
2.23579295154185,0.3446297091300695
2.269162995594714,0.20812982552827072
2.302533039647577,0.13825077154492388
2.3359030837004404,0.15703267229540857
2.369273127753304,0.2333770218079646
2.4026431718061674,0.30217660393184154
2.436013215859031,0.3006815522995627
2.4693832599118943,0.2034132983662844
2.5027533039647576,0.0376078983985639
2.5361233480176213,-0.12896576838307078
2.5694933920704845,-0.22187007719128288
2.6028634361233483,-0.19851247034894431
2.6362334801762115,-0.07188907530003591
2.6696035242290748,0.09245655556685878
2.7029735682819385,0.20510789182188538
2.7363436123348017,0.19379537066397481
2.7697136563876654,0.038117192081976725
2.8030837004405287,-0.2174181331205532
2.8364537444933924,-0.4778641316227295
2.8698237885462556,-0.6343965494248692
2.903193832599119,-0.6088677633995379
2.9365638766519826,-0.3889030659018065
2.969933920704846,-0.03895277330872141
3.0033039647577096,0.3189247068782758
3.036674008810573,0.5493296914162482
3.070044052863436,0.5570207831438992
3.1034140969162998,0.32851139662536655
3.136784140969163,-0.0563565834844468
3.1701541850220267,-0.44983955367086903
3.20352422907489,-0.6905242045665584
3.2368942731277532,-0.665523107608599
3.270264317180617,-0.355618807208235
3.30363436123348,0.1551260510053311
3.337004405286344,0.7092907270894161
3.370374449339207,1.1334855646640076
3.4037444933920704,1.3003487984590216
3.437114537444934,1.1710389969681212
3.4704845814977974,0.8026046795165498
3.503854625550661,0.31923839426228423
3.5372246696035243,-0.1388361010847843
3.5705947136563876,-0.46650318524849543
3.6039647577092513,-0.624041079131922
3.6373348017621145,-0.6365725907051144
3.6707048458149782,-0.5676844961485893
3.7040748898678415,-0.48363526170495796
3.737444933920705,-0.42657459284084676
3.7708149779735685,-0.40724373864661256
3.8041850220264317,-0.41501007798179007
3.8375550660792954,-0.4337677008176857
3.8709251101321587,-0.45164542194185187
3.9042951541850224,-0.45992876670364674
3.9376651982378856,-0.44605071766773496
3.971035242290749,-0.3900238585441665
4.004405286343612,-0.2704558386932491
4.037775330396476,-0.07824455696386468
4.0711453744493395,0.17071875624356192
4.104515418502203,0.43327279921043543
4.137885462555066,0.6509521606150143
4.171255506607929,0.7717010696308818
4.2046255506607935,0.7708798903454834
4.237995594713657,0.6609074030228301
4.27136563876652,0.4845395276111532
4.304735682819383,0.2952507856231612
4.3381057268722465,0.13489453189865983
4.371475770925111,0.02005631726305673
4.404845814977974,-0.05653464688390851
4.438215859030837,-0.11178783339095748
4.4715859030837,-0.15478482058931128
4.504955947136564,-0.17737094669419567
4.538325991189428,-0.15921101780616734
4.571696035242291,-0.08486323791861129
4.605066079295154,0.03738958062404686
4.638436123348018,0.16743076140683152
4.671806167400881,0.2434133557189691
4.705176211453745,0.2077756466592889
4.738546255506608,0.0375329303192683
4.7719162995594715,-0.23648447664482009
4.805286343612335,-0.532670641393764
4.838656387665198,-0.7452210357236404
4.872026431718062,-0.7844883891956441
4.905396475770925,-0.6144364259328756
4.938766519823789,-0.27087398339546764
4.972136563876652,0.14821497759079263
5.005506607929515,0.517182100384432
5.038876651982379,0.7281921671195881
5.072246696035243,0.7288357800414066
5.105616740088106,0.5365255963958165
5.138986784140969,0.2249887434435475
5.172356828193832,-0.10898426059905729
5.2057268722466965,-0.38188958978738186
5.23909691629956,-0.546680101192928
5.272466960352423,-0.5952368247292128
5.305837004405286,-0.5444443830543412
5.3392070484581495,-0.4180916627723294
5.372577092511014,-0.23654776226560606
5.405947136563877,-0.018598963759959
5.43931718061674,0.20970363511641577
5.4726872246696034,0.4095467024423965
5.506057268722468,0.5351827154350715
5.539427312775331,0.5508805029956624
5.572797356828194,0.45039802602851914
5.606167400881057,0.2672913627636888
5.639537444933921,0.06845782090576227
5.672907488986785,-0.06815320608082491
5.706277533039648,-0.08282259398217953
5.739647577092511,0.04172764906057266
5.7730176211453745,0.27087993894385354
5.806387665198238,0.5270444044093872
5.839757709251102,0.7138170067113522
5.873127753303965,0.7471640831600157
5.9064977973568284,0.5833154884741477
5.939867841409692,0.2342492599259173
5.973237885462555,-0.23419125801493082
6.006607929515419,-0.720619938152824
6.039977973568282,-1.1164473451734565
6.073348017621146,-1.3349586161996292
6.106718061674009,-1.3326706904072239
6.140088105726872,-1.1180656997584404
6.173458149779736,-0.7469050299709966
6.2068281938325995,-0.3062824778449973
6.240198237885463,0.10872954342642821
6.273568281938326,0.42056958094224806
6.306938325991189,0.5899375817321165
6.3403083700440535,0.6243126548029184
6.373678414096917,0.5692929873261032
6.40704845814978,0.48445581805616644
6.440418502202643,0.4137770914830103
6.4737885462555065,0.3654626155815563
6.507158590308371,0.3128090083140852
6.540528634361234,0.2166779113939182
6.573898678414097,0.05725825457566369
6.60726872246696,-0.14387577669515725
6.640638766519824,-0.326023175564158
6.674008810572688,-0.4170406089382127
6.707378854625551,-0.3725505458586827
6.740748898678414,-0.20495933361064014
6.774118942731278,0.01528741608517213
6.807488986784141,0.1895360105746578
6.840859030837005,0.23827554233933304
6.874229074889868,0.14206758543847184
6.9075991189427315,-0.045791972926494284
6.940969162995595,-0.22280251778593652
6.974339207048458,-0.28632023415557534
7.007709251101322,-0.18417767126451773
7.041079295154185,0.05804209327591671
7.074449339207049,0.3462741431283078
7.107819383259912,0.5591669201804234
7.141189427312775,0.6018731749780476
7.174559471365639,0.44817734577159024
7.207929515418503,0.15278112335777924
7.241299559471366,-0.17105789008024427
7.274669603524229,-0.39871909929760796
7.308039647577092,-0.44629294976293554
7.3414096916299565,-0.3056333081785401
7.37477973568282,-0.04743666584671971
7.408149779735683,0.20929866941606864
7.441519823788546,0.3486333322196184
7.47488986784141,0.30764083356662003
7.508259911894274,0.1029124922051221
7.541629955947137,-0.17805476482524943
7.575,-0.41612381361334044
7.608370044052863,-0.5119043684267885
7.641740088105728,-0.42590499409290106
7.675110132158591,-0.19078470138734052
7.708480176211454,0.10685805772579551
7.741850220264317,0.3640458907831361
7.775220264317181,0.5006032409697642
7.808590308370045,0.4844655885448954
7.841960352422908,0.3357316847446038
7.875330396475771,0.11127545398515525
7.9087004405286345,-0.12149417296651938
7.942070484581498,-0.31020099780245475
7.975440528634362,-0.43201861990578116
8.008810572687224,-0.49184724287890347
8.042180616740088,-0.5067347669757934
8.075550660792953,-0.48662619314992706
8.108920704845815,-0.42419195023890494
8.142290748898679,-0.3014626112929286
8.175660792951541,-0.11004632823815336
8.209030837004406,0.12865186503304196
8.24240088105727,0.35908431566367216
8.275770925110132,0.5102918646120564
8.309140969162996,0.5299180965265046
8.342511013215859,0.41416938575038403
8.375881057268723,0.21459895348951022
8.409251101321587,0.015337209220557238
8.44262114537445,-0.10800034841237438
8.475991189427313,-0.1250986715607511
8.509361233480176,-0.06280309852597257
8.54273127753304,0.014339644162465423
8.576101321585904,0.04336833662609823
8.609471365638766,-0.0005301983799270266
8.64284140969163,-0.0907553405813657
8.676211453744493,-0.1662711030801878
8.709581497797357,-0.16845528138672683
8.742951541850221,-0.07630903709280377
8.776321585903084,0.08021553542712273
8.809691629955948,0.23624867255247306
8.84306167400881,0.32803772514112867
8.876431718061674,0.3283091832513655
8.909801762114538,0.26076957309359067
8.9431718061674,0.18535974790716808
8.976541850220265,0.1622720511493037
9.009911894273127,0.2147065055055879
9.043281938325991,0.31146843687792064
9.076651982378856,0.3801989376930395
9.110022026431718,0.3456326089983844
9.143392070484582,0.17334111820968193
9.176762114537445,-0.1046102195798618
9.210132158590309,-0.3973108224251871
9.243502202643173,-0.5943828267910335
9.276872246696035,-0.6188120519954928
9.3102422907489,-0.4671072154929431
9.343612334801762,-0.2160311248075255
9.376982378854626,0.008742933301169317
9.41035242290749,0.08801756002975801
9.443722466960352,-0.03719087409013672
9.477092511013216,-0.3380661658133418
9.510462555066079,-0.7080925954628812
9.543832599118943,-1.0047869712661157
9.577202643171807,-1.1038151432509244
9.61057268722467,-0.9432682312879984
9.643942731277534,-0.5429046014834976
9.677312775330396,0.0050571228245511485
9.71068281938326,0.5668857443387036
9.744052863436124,1.0083810605539747
9.777422907488987,1.2340332879029725
9.81079295154185,1.2140416542192387
9.844162995594713,0.9914174594561525
9.877533039647577,0.6656036518487458
9.910903083700441,0.35614014370543223
9.944273127753304,0.1584251893108727
9.977643171806168,0.10906807532315461
10.01101321585903,0.17609368235642212
10.044383259911895,0.2786478851620637
10.077753303964759,0.3267154727729749
10.111123348017621,0.26160861301280847
10.144493392070485,0.07843723631550933
10.177863436123348,-0.17787248504648812
10.211233480176212,-0.4374902221899556
10.244603524229076,-0.6365475705635829
10.277973568281938,-0.738757886210758
10.311343612334802,-0.7403560150741827
10.344713656387665,-0.6609223568992997
10.378083700440529,-0.5288128566213482
10.411453744493393,-0.36971463351421757
10.444823788546255,-0.20222352501848576
10.47819383259912,-0.03937125087592954
10.511563876651982,0.1073772326437601
10.544933920704846,0.22485010886608842
10.57830396475771,0.29749259770443254
10.611674008810573,0.31011029814537017
10.645044052863437,0.2539164607491217
10.678414096916299,0.13415728958781786
10.711784140969163,-0.024508803961072252
10.745154185022027,-0.17962650740467453
10.77852422907489,-0.2822136092419213
10.811894273127754,-0.295213527398532
10.845264317180618,-0.2110953637186415
10.87863436123348,-0.05853205203151559
10.912004405286345,0.10789660463184314
10.945374449339207,0.23219346191418175
10.978744493392071,0.2840796115327977
11.012114537444935,0.2742117906683534
11.045484581497798,0.24823769539099055
11.078854625550662,0.2615636575888259
11.112224669603524,0.34734759931869114
11.145594713656388,0.494283010126867
11.178964757709252,0.6459719969228237
11.212334801762115,0.7228568936442179
11.245704845814979,0.6566756268125047
11.279074889867841,0.4217887810298119
11.312444933920705,0.04980414014393506
11.34581497797357,-0.37808795277575014
11.379185022026432,-0.7571451012516879
11.412555066079296,-0.9928670545968726
11.445925110132158,-1.0303339559910611
11.479295154185023,-0.8698734334346124
11.512665198237887,-0.5652638636532059
11.546035242290749,-0.20613043793033772
11.579405286343613,0.10969120899653151
11.612775330396476,0.30552820190549396
11.64614537444934,0.3478930797531647
11.679515418502204,0.2537123363567657
11.712885462555066,0.0800076224572704
11.74625550660793,-0.09997814823945343
11.779625550660793,-0.2244372746046174
11.812995594713657,-0.26317576873270115
11.846365638766521,-0.22292692208993584
11.879735682819383,-0.1374805554445259
11.913105726872248,-0.048696529655770496
11.94647577092511,0.012772522066486163
11.979845814977974,0.03954005967422813
12.013215859030838,0.04854117076318248
12.0465859030837,0.07136945896824877
12.079955947136565,0.13753556540528358
12.113325991189427,0.2568069312030281
12.146696035242291,0.4081218913281358
12.180066079295155,0.5415073191004767
12.213436123348018,0.594901892713368
12.246806167400882,0.5207015897263565
12.280176211453744,0.3106386408776646
12.313546255506608,0.006418670117495172
12.346916299559473,-0.31083776697577115
12.380286343612335,-0.5492038967084212
12.413656387665199,-0.6402793005478727
12.447026431718061,-0.5638796171365242
12.480396475770926,-0.3526064090966889
12.51376651982379,-0.07584329667291488
12.547136563876652,0.1877743946018938
12.580506607929516,0.3763941056160864
12.613876651982379,0.4594227902330101
12.647246696035243,0.43766836809661464
12.680616740088107,0.33345167596542336
12.71398678414097,0.17827998092930447
12.747356828193833,0.004196963694292426
12.780726872246696,-0.15959402205353118
12.81409691629956,-0.2875506719651758
12.847466960352424,-0.35996407564925875
12.880837004405286,-0.36775125568505335
12.91420704845815,-0.31690854915237965
12.947577092511013,-0.22764723733676576
12.980947136563877,-0.12582449289740588
13.014317180616741,-0.030173055720179663
13.047687224669604,0.056504539005279394
13.081057268722468,0.14493276644552303
13.11442731277533,0.24547139717019426
13.147797356828194,0.3511127534082373
13.181167400881058,0.42979402765898506
13.21453744493392,0.4342113701910236
13.247907488986785,0.3266603292306889
13.281277533039647,0.10588787290247423
13.314647577092511,-0.1804322709247641
13.348017621145376,-0.44738771988755743
13.381387665198238,-0.6053514655739621
13.414757709251102,-0.5980483742893544
13.448127753303964,-0.42715494453175823
13.481497797356829,-0.15118552461994084
13.514867841409693,0.14022213317944243
13.548237885462555,0.3631136232746634
13.58160792951542,0.4689375638741963
13.614977973568282,0.45419892986685945
13.648348017621146,0.34870535156929294
13.68171806167401,0.19237158018604542
13.715088105726872,0.015342510348615732
13.748458149779736,-0.1677618708745995
13.781828193832599,-0.34863770236344394
13.815198237885463,-0.5101665968025614
13.848568281938327,-0.61826767237703
13.88193832599119,-0.6291342272134447
13.915308370044054,-0.5101060139708335
13.948678414096916,-0.26286321615709424
13.98204845814978,0.06535378312852753
14.015418502202644,0.391152062407432
14.048788546255507,0.6226534798810782
14.08215859030837,0.6931926918904384
14.115528634361233,0.5858065691281744
14.148898678414097,0.33841528086670114
14.182268722466961,0.029265878127191933
14.215638766519824,-0.24939903850097492
14.249008810572688,-0.4185102784708182
14.28237885462555,-0.4318747462142277
14.315748898678414,-0.28522657027562737
14.349118942731279,-0.015349705397524399
14.382488986784141,0.3088945070589929
14.415859030837005,0.6022903249931407
14.449229074889868,0.7841260326228616
14.482599118942732,0.8004387659766699
14.515969162995596,0.641205068885128
14.549339207048458,0.3454615073921049
14.582709251101322,-0.009416058709077557
14.616079295154185,-0.3319200660115943
14.649449339207049,-0.545897241283409
14.682819383259913,-0.6147038434098976
14.716189427312775,-0.5515326750225067
14.74955947136564,-0.41257401261179355
14.782929515418502,-0.2753689321299648
14.816299559471366,-0.20920430185343644
14.84966960352423,-0.24716048393490625
14.883039647577093,-0.37012263962629316
14.916409691629957,-0.5106842043545331
14.94977973568282,-0.5784847000733659
14.983149779735683,-0.49925084603423464
15.016519823788547,-0.2516785965705634
15.04988986784141,0.11554281311122704
15.083259911894274,0.4970939139008155
15.116629955947138,0.7714671313553391
15.15,0.8514715368200246
15.183370044052865,0.7217348980060885
15.216740088105727,0.44550685985689203
15.250110132158591,0.1374595373935808
15.283480176211455,-0.08472492045096505
15.316850220264318,-0.147619403429339
15.350220264317182,-0.04743332862991734
15.383590308370044,0.15569285149275247
15.416960352422908,0.3686029439542686
15.450330396475772,0.504580547650845
15.483700440528635,0.513216861033636
15.517070484581499,0.39013679529478157
15.550440528634361,0.1675302231419578
15.583810572687225,-0.10479577866551115
15.61718061674009,-0.37636646519828976
15.650550660792952,-0.6044563981384746
15.683920704845816,-0.7549522860363979
15.717290748898678,-0.8016811856878027
15.750660792951543,-0.7299202451590757
15.784030837004407,-0.5448900224181671
15.817400881057269,-0.28009146651071565
15.850770925110133,0.002461011514701692
15.884140969162996,0.2254542175579243
15.91751101321586,0.32124196416671846
15.950881057268724,0.2591851919278069
15.984251101321586,0.06227272630961362
16.01762114537445,-0.1970092226316113
16.050991189427315,-0.42252465920717436
16.084361233480177,-0.5322283395611846
16.11773127753304,-0.49113596407981497
16.151101321585905,-0.3239827390763803
16.184471365638768,-0.10114445822961327
16.21784140969163,0.09572555744855736
16.251211453744492,0.21175289508255207
16.284581497797358,0.24202876669914647
16.31795154185022,0.2288881223221948
16.351321585903083,0.23554792715881695
16.38469162995595,0.310489432924979
16.41806167400881,0.4613629782604458
16.451431718061674,0.651487753601452
16.48480176211454,0.8194812810731499
16.518171806167402,0.9102756595178305
16.551541850220264,0.9004875918628057
16.584911894273127,0.8052930245346183
16.618281938325993,0.6647171154841509
16.651651982378855,0.5183496232417742
16.685022026431717,0.3830431618582308
16.718392070484583,0.24568309690997242
16.751762114537446,0.07451836110985284
16.785132158590308,-0.15737690634504828
16.818502202643174,-0.4491471027827213
16.851872246696036,-0.7620258824012637
16.8852422907489,-1.028024118811265
16.91861233480176,-1.1743624313064946
16.951982378854627,-1.1531446235473102
16.98535242290749,-0.9633378899839506
17.01872246696035,-0.6555437759241022
17.052092511013218,-0.317402714247791
17.08546255506608,-0.04526712687020216
17.118832599118942,0.08727306626529051
17.152202643171808,0.05292429093457297
17.18557268722467,-0.12131971116932003
17.218942731277533,-0.36369801682267694
17.2523127753304,-0.581011173663062
17.28568281938326,-0.6879340717515635
17.319052863436124,-0.6328674677903334
