Time (s),Filtered Signal
0.0,0.032049442830130996
0.033370165745856356,0.24210945201287123
0.06674033149171271,0.42369393498897223
0.10011049723756907,0.5542255682794026
0.13348066298342542,0.6212065121607212
0.16685082872928178,0.6239821936764236
0.20022099447513814,0.5724519970652313
0.2335911602209945,0.4832027814420087
0.26696132596685085,0.3745166390980769
0.30033149171270723,0.2621636939451746
0.33370165745856356,0.15743324734894862
0.3670718232044199,0.06760445683523952
0.4004419889502763,-0.002286721381156388
0.43381215469613266,-0.048110819893745695
0.467182320441989,-0.06689954860832192
0.5005524861878453,-0.058529821283460834
0.5339226519337017,-0.02750126971297913
0.5672928176795581,0.01677290662095403
0.6006629834254145,0.06193178976074827
0.6340331491712707,0.09634468053481937
0.6674033149171271,0.11291937772347115
0.7007734806629835,0.11121765998501754
0.7341436464088398,0.09667703876075794
0.7675138121546962,0.07696277415714421
0.8008839779005525,0.05687627181768043
0.8342541436464089,0.034279905230140545
0.8676243093922653,-0.00044271918656846733
0.9009944751381216,-0.060173236935845816
0.934364640883978,-0.15326889091891502
0.9677348066298344,-0.27577561434804043
1.0011049723756906,-0.40815896785628464
1.0344751381215471,-0.5195813970609714
1.0678453038674034,-0.579173357426407
1.1012154696132597,-0.5697493466071781
1.1345856353591162,-0.4972517469284491
1.1679558011049724,-0.39041974127167434
1.201325966850829,-0.2896013437741167
1.2346961325966852,-0.2291850905457472
1.2680662983425415,-0.2218366261811181
1.301436464088398,-0.2523576947103018
1.3348066298342542,-0.28447024540442295
1.3681767955801105,-0.277432426013863
1.401546961325967,-0.20449967860860468
1.4349171270718233,-0.0644550664444274
1.4682872928176796,0.1188780597534628
1.501657458563536,0.30809358475227006
1.5350276243093923,0.4682916571201396
1.5683977900552488,0.5797422039401154
1.601767955801105,0.6416145685564726
1.6351381215469614,0.6664200698469361
1.6685082872928179,0.6695836069545011
1.7018784530386741,0.6603841331883055
1.7352486187845306,0.6387014686961618
1.768618784530387,0.5980411916055558
1.8019889502762432,0.5317461495337521
1.8353591160220997,0.43816483532263534
1.868729281767956,0.32212127469539803
1.9020994475138122,0.19287516152198153
1.9354696132596687,0.06082869964613556
1.968839779005525,-0.06469243873379214
2.0022099447513813,-0.17584241896948655
2.0355801104972375,-0.2658682915435785
2.0689502762430942,-0.3294955338792598
2.1023204419889505,-0.3646494033822086
2.135690607734807,-0.37446166385461327
2.169060773480663,-0.3676463775687683
2.2024309392265193,-0.355985376070448
2.235801104972376,-0.3495057846757642
2.2691712707182323,-0.3517557923324881
2.3025414364640886,-0.3581006041911227
2.335911602209945,-0.35861173109802513
2.369281767955801,-0.3444979613856641
2.402651933701658,-0.31461383265574516
2.436022099447514,-0.2779463785038745
2.4693922651933704,-0.24979334411728082
2.5027624309392267,-0.24285025443671834
2.536132596685083,-0.25773468312725095
2.5695027624309392,-0.27859387899724347
2.602872928176796,-0.27742084513381005
2.636243093922652,-0.22630064249817644
2.6696132596685085,-0.11221545995603119
2.7029834254143648,0.053200672340237176
2.736353591160221,0.23491688759203325
2.7697237569060777,0.38762201577623623
2.803093922651934,0.4753659882293933
2.8364640883977903,0.4883629625935212
2.8698342541436466,0.44814612080303684
2.903204419889503,0.39755673884854875
2.936574585635359,0.37965519775786793
2.969944751381216,0.41563458512144297
3.003314917127072,0.4928288906074937
3.0366850828729284,0.5690806395786681
3.0700552486187846,0.5914366476611703
3.103425414364641,0.5198474358592767
3.1367955801104976,0.3443196343752733
3.170165745856354,0.08800527877965411
3.20353591160221,-0.20347416269022056
3.2369060773480665,-0.4792456049234999
3.2702762430939227,-0.6976446879804716
3.3036464088397794,-0.8322012811645825
3.3370165745856357,-0.8698881955965627
3.370386740331492,-0.8071876575715448
3.4037569060773483,-0.6495000449949583
3.4371270718232045,-0.41488170611927744
3.4704972375690613,-0.13775284640329294
3.5038674033149175,0.1335755096666971
3.537237569060774,0.34825823366804165
3.57060773480663,0.46952511571087013
3.6039779005524863,0.48831790072573633
3.6373480662983426,0.42629352683650373
3.6707182320441993,0.3260137420468987
3.7040883977900556,0.23300499069091102
3.737458563535912,0.17837954266416986
3.770828729281768,0.1697183452352531
3.8041988950276244,0.1929965444798701
3.837569060773481,0.2227032871015182
3.8709392265193374,0.23410173711330765
3.9043093922651937,0.21201876957328455
3.93767955801105,0.15361764918201237
3.9710497237569062,0.06606605979690608
4.0044198895027625,-0.038031762750101554
4.037790055248619,-0.1447097065866275
4.071160220994475,-0.24101396661546948
4.104530386740332,-0.3160751620767722
4.1379005524861885,-0.36195812903141683
4.171270718232044,-0.374931704835785
4.204640883977901,-0.3568216996071479
4.238011049723757,-0.31543801732508486
4.271381215469614,-0.26322514622016396
4.30475138121547,-0.21416676141519386
4.338121546961326,-0.17997568972665376
4.371491712707183,-0.16704021900395555
4.404861878453039,-0.17515841158060738
4.438232044198895,-0.19804816371898326
4.471602209944752,-0.22472032250422908
4.504972375690608,-0.24077312186422284
4.538342541436465,-0.2295975403223912
4.5717127071823205,-0.17459080324536827
4.605082872928177,-0.06360436780561934
4.638453038674034,0.10455409846603009
4.67182320441989,0.31400509218586325
4.7051933701657465,0.5299987525344723
4.738563535911602,0.7046312791257084
4.771933701657459,0.7901500048175598
4.805303867403316,0.755824255212347
4.8386740331491715,0.6015431717249152
4.872044198895028,0.361546323573519
4.905414364640884,0.09527180830660785
4.938784530386741,-0.13220564313150254
4.972154696132597,-0.2727439812543963
5.005524861878453,-0.3113282265225183
5.03889502762431,-0.26870082138269474
5.072265193370166,-0.18898398195235142
5.105635359116023,-0.11773922436872408
5.1390055248618784,-0.0806737437847395
5.172375690607735,-0.07326651879143625
5.205745856353592,-0.06652354013136083
5.239116022099448,-0.026091339552893257
5.272486187845304,0.06501862429598518
5.30585635359116,0.19213190035734928
5.339226519337017,0.31120675722194857
5.372596685082874,0.3675525613834594
5.4059668508287295,0.32218312567743745
5.439337016574586,0.172707193695609
5.472707182320442,-0.04190280930544976
5.506077348066299,-0.25532723955078673
5.5394475138121555,-0.400066228905178
5.572817679558011,-0.4334361553297937
5.606187845303868,-0.3518076353713267
5.639558011049724,-0.18789483057291664
5.672928176795581,0.005714858023970459
5.706298342541437,0.17765531079038407
5.739668508287293,0.2935954952446689
5.77303867403315,0.34105775183465464
5.806408839779006,0.3239033189428189
5.839779005524862,0.2521206842874996
5.873149171270718,0.13372425005046262
5.906519337016575,-0.02709182316359176
5.939889502762432,-0.22583442616133845
5.9732596685082875,-0.4513918664578338
6.006629834254144,-0.682041281383978
6.04,-0.8864458378708394
6.073370165745857,-1.0293697004093756
6.1067403314917135,-1.0796677753220538
6.140110497237569,-1.0176677306580162
6.173480662983426,-0.8400682699105109
6.206850828729282,-0.5618481930100906
6.240220994475139,-0.2154028318827595
6.273591160220995,0.15305017954204037
6.306961325966851,0.4901974412474607
6.340331491712708,0.7456394685715458
6.373701657458564,0.8839315085342345
6.40707182320442,0.8954236428223764
6.440441988950277,0.8014782439932698
6.473812154696133,0.6504975296483788
6.50718232044199,0.5042973612537055
6.5405524861878455,0.4185501923962129
6.573922651933702,0.4242615450305971
6.607292817679559,0.5176791993748069
6.640662983425415,0.6630079554338012
6.674033149171271,0.8069126701774101
6.707403314917127,0.8985537212756746
6.740773480662984,0.9065120984344097
6.774143646408841,0.8257704086834555
6.8075138121546965,0.6730341216749657
6.840883977900553,0.4744000036280249
6.874254143646409,0.2526723142256207
6.907624309392266,0.020822166053955496
6.9409944751381225,-0.21618110276898297
6.974364640883978,-0.45407642079962074
7.007734806629835,-0.682442812390308
7.041104972375691,-0.8832974513794933
7.074475138121548,-1.036249052670971
7.107845303867403,-1.1268752293676019
7.14121546961326,-1.1529559131426528
7.174585635359117,-1.1247432042219159
7.207955801104973,-1.0593624185061554
7.241325966850829,-0.9729930416237821
7.274696132596685,-0.8753864818567928
7.308066298342542,-0.7692298516609972
7.341436464088399,-0.6535467635726332
7.3748066298342545,-0.528051958731444
7.408176795580111,-0.39546271325423726
7.441546961325967,-0.26078268076301747
7.474917127071824,-0.1288355265281551
7.5082872928176805,-0.0022111505154327055
7.541657458563536,0.11911737723617408
7.575027624309393,0.2369351696489031
7.608397790055249,0.3540382180172694
7.641767955801106,0.47431715845549766
7.675138121546962,0.602823057602982
7.708508287292818,0.7440038423031065
7.741878453038675,0.897139066177582
7.775248618784531,1.0504332878522482
7.808618784530387,1.1776092745278361
7.841988950276244,1.2411496846275163
7.8753591160221,1.2036390948399707
7.908729281767957,1.0439973758153214
7.9420994475138125,0.7714074377498007
7.975469613259669,0.42914504192577857
8.008839779005525,0.0843409655007301
8.042209944751383,-0.19362297786542673
8.075580110497238,-0.35735396548251186
8.108950276243094,-0.39764606577457207
8.14232044198895,-0.3443840304080941
8.175690607734808,-0.2520113411991861
8.209060773480664,-0.17651220966227085
8.24243093922652,-0.15433749665926344
8.275801104972377,-0.1920291869431754
8.309171270718233,-0.2696422716703569
8.342541436464089,-0.3545025326303351
8.375911602209946,-0.41762746126056
8.409281767955802,-0.44505193201790577
8.442651933701658,-0.43988920473733123
8.476022099447514,-0.41600227342079454
8.509392265193371,-0.38799688427946344
8.542762430939227,-0.36317474145685175
8.576132596685083,-0.33910085174333876
8.60950276243094,-0.30699626158666987
8.642872928176796,-0.2582188603082056
8.676243093922652,-0.19002177643900522
8.709613259668508,-0.10778096127577833
8.742983425414366,-0.023077690585871623
8.776353591160222,0.05090675181271196
8.809723756906077,0.10425911174975659
8.843093922651935,0.133388731928409
8.87646408839779,0.14137538962697058
8.909834254143647,0.13597661475365408
8.943204419889504,0.1264188858128844
8.97657458563536,0.12019848950117203
9.009944751381216,0.12078326950292612
9.043314917127072,0.1266803489885803
9.07668508287293,0.1320172256078246
9.110055248618785,0.12854201716388772
9.143425414364641,0.10865319862426087
9.176795580110499,0.06869429060960637
9.210165745856354,0.0114438063580866
9.24353591160221,-0.05328069088267535
9.276906077348068,-0.11055640820285181
9.310276243093924,-0.14463652807267957
9.34364640883978,-0.14436619127750625
9.377016574585635,-0.1077319319913863
9.410386740331493,-0.04345367133009147
9.443756906077349,0.031585167290904714
9.477127071823205,0.09857798435982235
9.510497237569062,0.14439236973888012
9.543867403314918,0.1672106344786678
9.577237569060774,0.17741419559054894
9.610607734806631,0.1928943676664465
9.643977900552487,0.2305392405654663
9.677348066298343,0.2975191498755497
9.710718232044199,0.38621069078084497
9.744088397790057,0.4750474145552775
9.777458563535912,0.5350256477537514
9.810828729281768,0.5392346160825198
9.844198895027626,0.47167552423065656
9.877569060773482,0.33220230834376124
9.910939226519337,0.13626834467721832
9.944309392265193,-0.08967665127228976
9.97767955801105,-0.31486171610682806
10.011049723756907,-0.5105005727955632
10.044419889502763,-0.6542068022794605
10.07779005524862,-0.7322807709499696
10.111160220994476,-0.7405003185811145
10.144530386740332,-0.6841026150879468
10.17790055248619,-0.5770638903641514
10.211270718232045,-0.440187379908857
10.244640883977901,-0.2975255622330414
10.278011049723757,-0.17142832409502548
10.311381215469615,-0.07750812046878285
10.34475138121547,-0.021258926187484664
10.378121546961326,0.002448205634419184
10.411491712707184,0.006925637024972232
10.44486187845304,0.009264821857625994
10.478232044198895,0.025345096471430375
10.511602209944753,0.06543937996316648
10.544972375690609,0.13125607047284923
10.578342541436465,0.2150683766462304
10.61171270718232,0.30142631310911033
10.645082872928178,0.37146514640808387
10.678453038674034,0.40888986737033006
10.71182320441989,0.40570411977645615
10.745193370165747,0.36535995981663627
10.778563535911603,0.30173244663224386
10.811933701657459,0.23402588665331645
10.845303867403315,0.17958910972118988
10.878674033149172,0.14764665247534506
10.912044198895028,0.13655651588984974
10.945414364640884,0.13557789829329295
10.978784530386742,0.13011118877677855
11.012154696132598,0.10793781382019707
11.045524861878453,0.06374519326766549
11.078895027624311,0.00016756721313585855
11.112265193370167,-0.07479550002934571
11.145635359116023,-0.15250330625088693
11.179005524861878,-0.22807976795577514
11.212375690607736,-0.30209371446658745
11.245745856353592,-0.3782874351544069
11.279116022099448,-0.4581168740605104
11.312486187845305,-0.5348762487449117
11.345856353591161,-0.5911182857886091
11.379226519337017,-0.6020892504914843
11.412596685082875,-0.5450376027968125
11.44596685082873,-0.4108105898845066
11.479337016574586,-0.21208947185665494
11.512707182320442,0.016617867603108995
11.5460773480663,0.22859317099584864
11.579447513812156,0.3809181395799034
11.612817679558011,0.45034254631953285
11.646187845303869,0.4420940949987599
11.679558011049725,0.38748801875532135
11.71292817679558,0.3308681589693127
11.746298342541436,0.31094878552194477
11.779668508287294,0.34413240707616516
11.81303867403315,0.4168279862123727
11.846408839779006,0.4903475721518023
11.879779005524863,0.516877936535159
11.91314917127072,0.46027108136578726
11.946519337016575,0.3129940973216086
11.979889502762433,0.10178598879230392
12.013259668508288,-0.12083394190141959
12.046629834254144,-0.29595120833146343
12.08,-0.3804689301474755
12.113370165745858,-0.3628984084772124
12.146740331491714,-0.2664534212781941
12.18011049723757,-0.13875917985220487
12.213480662983427,-0.032989573991517494
12.246850828729283,0.011686700074370145
12.280220994475139,-0.017182887531721966
12.313591160220996,-0.10377341541354534
12.346961325966852,-0.21327903069533452
12.380331491712708,-0.30758607200233745
12.413701657458564,-0.3605535430389471
12.447071823204421,-0.36656597498016186
12.480441988950277,-0.33906995988681055
12.513812154696133,-0.3003337100887593
12.54718232044199,-0.26778144661892933
12.580552486187846,-0.24398219552479997
12.613922651933702,-0.2156416955891841
12.64729281767956,-0.16233039849390982
12.680662983425416,-0.07038284727006315
12.714033149171271,0.05574168234942558
12.747403314917127,0.19142554645271642
12.780773480662985,0.3011992638836114
12.81414364640884,0.35518572352338984
12.847513812154697,0.3442135955799424
12.880883977900554,0.2853086111515998
12.91425414364641,0.2140275854373726
12.947624309392266,0.1670294716363558
12.980994475138122,0.1636706894274682
13.01436464088398,0.19625932083918435
13.047734806629835,0.234279544178209
13.081104972375691,0.240594065536508
13.114475138121549,0.19124539056640055
13.147845303867404,0.08850546325475017
13.18121546961326,-0.0395951619830923
13.214585635359118,-0.15280886643886532
13.247955801104974,-0.2179222594046556
13.28132596685083,-0.22352869649111184
13.314696132596685,-0.1828756926797585
13.348066298342543,-0.12402504900420334
13.381436464088399,-0.07340487859613268
13.414806629834255,-0.042065932475842845
13.448176795580112,-0.021949389334935277
13.481546961325968,0.006434225340539872
13.514917127071824,0.05990128869544244
13.548287292817681,0.1404026603721812
13.581657458563537,0.23171160286461745
13.615027624309393,0.3068286301049881
13.648397790055249,0.34195533330464983
13.681767955801106,0.32926660639797867
13.715138121546962,0.2812824238397472
13.748508287292818,0.22402518074222424
13.781878453038676,0.18208061464663575
13.815248618784532,0.16318619244580604
13.848618784530387,0.15076745670274697
13.881988950276245,0.10937219810755965
13.9153591160221,0.0016875999922041534
13.948729281767957,-0.19028859031610887
13.982099447513813,-0.4502007474429537
14.01546961325967,-0.7265605349245114
14.048839779005526,-0.9480309731532652
14.082209944751382,-1.048981560960014
14.11558011049724,-0.9945223534781661
14.148950276243095,-0.7942907036714956
14.182320441988951,-0.4992866785367394
14.215690607734807,-0.18347063413390421
14.249060773480664,0.08189748619450109
14.28243093922652,0.2507936870122992
14.315801104972376,0.3136048311664581
14.349171270718234,0.29402067031020496
14.38254143646409,0.23464010858299164
14.415911602209945,0.17833501571355267
14.449281767955803,0.15317180436376165
14.482651933701659,0.16620769815852404
14.516022099447515,0.2070883330277805
14.54939226519337,0.25808239270677347
14.582762430939228,0.3048446340989488
14.616132596685084,0.34270203074051236
14.64950276243094,0.3761492120977207
14.682872928176797,0.4129210463161035
14.716243093922653,0.4565794294023008
14.749613259668509,0.5018215397178284
14.782983425414367,0.5348200187400733
14.816353591160222,0.5381070165708661
14.849723756906078,0.4973834416426432
14.883093922651934,0.407130162266561
14.916464088397792,0.27293328486652774
14.949834254143648,0.11013460984076281
14.983204419889503,-0.06020451466072255
15.016574585635361,-0.2164718898931679
15.049944751381217,-0.34135603799609576
15.083314917127073,-0.42528358646439224
15.116685082872928,-0.4677057386756041
15.150055248618786,-0.47594411599086367
15.183425414364642,-0.46196570132377307
15.216795580110498,-0.4381750658788792
15.250165745856355,-0.4136855731840008
15.283535911602211,-0.39227409245902145
15.316906077348067,-0.3724632689410091
15.350276243093925,-0.34935658726870444
15.38364640883978,-0.31737205410612124
15.417016574585636,-0.27296275399254954
15.450386740331492,-0.2165840234495613
15.48375690607735,-0.15335277703996048
15.517127071823205,-0.09202024101589178
15.550497237569061,-0.04220109399998919
15.583867403314919,-0.010399569343258787
15.617237569060775,0.003865018055593838
15.65060773480663,0.009997517362413645
15.683977900552488,0.02468176120112709
15.717348066298344,0.06617798215651835
15.7507182320442,0.1460098815344782
15.784088397790056,0.2613217136545175
15.817458563535913,0.3918255647478293
15.85082872928177,0.5039575488927545
15.884198895027625,0.5618409009594623
15.917569060773483,0.5412188353157846
15.950939226519338,0.4404683840052931
15.984309392265194,0.28342747687549036
16.01767955801105,0.11203916920877183
16.051049723756908,-0.02868982201796931
16.084419889502765,-0.10734324950836707
16.11779005524862,-0.11737520416426322
16.151160220994477,-0.07824047297389762
16.18453038674033,-0.025929617229457004
16.21790055248619,0.003025919475352592
16.251270718232046,-0.012727725915283766
16.2846408839779,-0.0705581325346076
16.318011049723758,-0.14558932027676869
16.351381215469615,-0.20210323952143905
16.38475138121547,-0.2095724784510783
16.418121546961327,-0.15636225462049766
16.451491712707185,-0.05526301064741775
16.48486187845304,0.0613232039713097
16.518232044198896,0.15421225016788323
16.551602209944754,0.19266212963999016
16.584972375690608,0.16570360445967508
16.618342541436466,0.08533092408882671
16.651712707182323,-0.01910684349269805
16.685082872928177,-0.11253278998196634
16.718453038674035,-0.1670525871325365
16.751823204419892,-0.17142596716198152
16.785193370165747,-0.13400869546932653
16.818563535911604,-0.07853217982592245
16.851933701657458,-0.03452371738231573
16.885303867403316,-0.025897071065205605
16.918674033149173,-0.06180280898594759
16.952044198895027,-0.1330400665684448
16.985414364640885,-0.21537317905298686
17.018784530386743,-0.27855376872691495
17.052154696132597,-0.29762389868535616
17.085524861878454,-0.2620910390108183
17.118895027624312,-0.17934088705634796
17.152265193370166,-0.07098565318970824
17.185635359116024,0.036192828897556796
17.21900552486188,0.12073477652861286
17.252375690607735,0.17386588278935006
