Frequency (Hz),Amplitude
0.0,0.6385139900469126
0.019823788546255508,0.6400878131503585
0.039647577092511016,0.644780263722881
0.059471365638766524,0.6525063885053187
0.07929515418502203,0.663131250229077
0.09911894273127755,0.6764787571790919
0.11894273127753305,0.6923420651266734
0.13876651982378857,0.7104942305006196
0.15859030837004406,0.7306980395029894
0.17841409691629956,0.7527143170712524
0.1982378854625551,0.7763084058259507
0.2180616740088106,0.8012548144457133
0.2378854625550661,0.8273402350017772
0.25770925110132165,0.8543652262826118
0.27753303964757714,0.8821448810607271
0.29735682819383263,0.9105087692363852
0.31718061674008813,0.9393004003949548
0.3370044052863437,0.9683763952526633
0.3568281938325991,0.9976055052641765
0.37665198237885467,1.026867577602157
0.3964757709251102,1.0560525298128647
0.41629955947136565,1.0850593740033265
0.4361233480176212,1.113795313011584
0.4559471365638767,1.1421749191051311
0.4757709251101322,1.1701193979354163
0.49559471365638774,1.1975559355931698
0.5154185022026433,1.224417123764453
0.5352422907488987,1.2506404565148028
0.5550660792951543,1.276167891652895
0.5748898678414097,1.3009454696099025
0.5947136563876653,1.3249229830902118
0.6145374449339208,1.348053691248524
0.6343612334801763,1.3702940727326323
0.6541850220264318,1.3916036125339513
0.6740088105726874,1.4119446181762965
0.6938325991189428,1.4312820613224433
0.7136563876651982,1.4495834413810615
0.7334801762114539,1.4668186681471775
0.7533039647577093,1.4829599609097384
0.7731277533039648,1.4979817618122575
0.7929515418502204,1.5118606615608596
0.8127753303964759,1.5245753358432224
0.8325991189427313,1.536106491056193
0.8524229074889869,1.5464368181441543
0.8722466960352424,1.5555509535278187
0.8920704845814978,1.5634354462591544
0.9118942731277534,1.570078730674352
0.931718061674009,1.5754711039374774
0.9515418502202644,1.5796047079749271
0.9713656387665199,1.5824735153969163
0.9911894273127755,1.5840733190903693
1.0110132158590308,1.5844017252478628
1.0308370044052866,1.5834581496737894
1.0506607929515421,1.5812438172808296
1.0704845814977975,1.577761764760589
1.090308370044053,1.5730168464827852
1.1101321585903086,1.5670157437484629
1.1299559471365639,1.5597669775973664
1.1497797356828194,1.5512809254477855
1.1696035242290752,1.5415698419323116
1.1894273127753305,1.5306478843850435
1.209251101321586,1.518531143538976
1.2290748898678416,1.5052376801066916
1.248898678414097,1.4907875680477536
1.2687224669603525,1.4752029454738302
1.288546255506608,1.4585080743112182
1.3083700440528636,1.4407294100344028
1.3281938325991192,1.421895683006468
1.3480176211453747,1.4020379932186093
1.36784140969163,1.381189920514539
1.3876651982378856,1.3593876527231048
1.4074889867841411,1.3366701345070109
1.4273127753303965,1.3130792401719613
1.4471365638766522,1.2886599741708995
1.4669603524229078,1.2634607035811576
1.4867841409691631,1.2375334274226877
1.5066079295154187,1.2109340883086464
1.5264317180616742,1.1837229325468093
1.5462555066079295,1.155964925394796
1.5660792951541853,1.1277302286333795
1.5859030837004409,1.0990947478376303
1.6057268722466962,1.0701407565043
1.6255506607929517,1.0409576032552503
1.6453744493392073,1.0116425062695236
1.6651982378854626,0.9823014353220086
1.6850220264317182,0.9530500755235268
1.7048458149779737,0.9240148570077328
1.7246696035242293,0.8953340200532357
1.7444933920704848,0.8671586638989358
1.7643171806167404,0.8396536981884365
1.7841409691629957,0.8129985773271193
1.8039647577092512,0.787387649990688
1.8237885462555068,0.7630299010298275
1.8436123348017623,0.7401478079080043
1.863436123348018,0.7189749920138511
1.8832599118942732,0.6997523383383791
1.9030837004405288,0.6827223142070263
1.9229074889867843,0.6681213698530813
1.9427312775330399,0.6561705702023346
1.9625550660792954,0.6470649770494259
1.982378854625551,0.6409627128377178
2.002202643171806,0.6379749771574437
2.0220264317180616,0.638158414468334
2.041850220264317,0.6415110396723455
2.061674008810573,0.6479724105820914
2.0814977973568287,0.657428015980892
2.1013215859030843,0.6697171372515958
2.1211453744493394,0.6846429484423069
2.140969162995595,0.7019834565784119
2.1607929515418505,0.7215020341243585
2.180616740088106,0.7429566464374511
2.2004405286343616,0.7661072888243673
2.220264317180617,0.7907215101285987
2.2400881057268722,0.8165781563639574
2.2599118942731278,0.8434696109350787
2.2797356828193833,0.8712028586344727
2.299559471365639,0.8995996899180576
2.319383259911895,0.9284963184944359
2.3392070484581504,0.9577426299091008
2.3590308370044055,0.9872012243354376
2.378854625550661,1.016746369578016
2.3986784140969166,1.0462629425189167
2.418502202643172,1.075645408696082
2.4383259911894277,1.1047968691046102
2.4581497797356833,1.1336281890369568
2.4779735682819384,1.1620572142798649
2.497797356828194,1.1900080739482086
2.5176211453744495,1.2174105656281937
2.537444933920705,1.2441996165432678
2.5572687224669606,1.2703148135853546
2.577092511013216,1.2956999948727688
2.5969162995594717,1.320302895732505
2.6167400881057272,1.3440748424755962
2.6365638766519828,1.3669704879202489
2.6563876651982383,1.38894758324195
2.676211453744494,1.4099667813482573
2.6960352422907494,1.42999146755918
2.715859030837005,1.448987613911841
2.73568281938326,1.4669236538906998
2.7555066079295156,1.4837703748162236
2.775330396475771,1.4995008255031628
2.7951541850220267,1.5140902371326483
2.8149779735682823,1.527515955571538
2.834801762114538,1.5397573836249971
2.854625550660793,1.5507959319274578
2.874449339207049,1.5606149773683227
2.8942731277533045,1.5691998281148578
2.91409691629956,1.5765376944410951
2.9339207048458156,1.5826176646991954
2.953744493392071,1.5874306858840739
2.9735682819383262,1.5909695483429347
2.993392070484582,1.593228874274131
3.0132158590308373,1.5942051097428769
3.033039647577093,1.5938965200206558
3.0528634361233484,1.5923031881284178
3.072687224669604,1.5894270165361868
3.092511013215859,1.585271732041606
3.1123348017621146,1.5798428939220395
3.1321585903083706,1.573147905527777
3.151982378854626,1.5651960295614475
3.1718061674008817,1.555998407371359
3.1916299559471373,1.5455680826766296
3.2114537444933924,1.533920030241493
3.231277533039648,1.5210711901271847
3.2511013215859035,1.507040508275504
3.270925110132159,1.4918489843205855
3.2907488986784146,1.4755197276886962
3.31057268722467,1.4580780232331327
3.3303964757709252,1.4395514078675753
3.350220264317181,1.4199697599099623
3.3700440528634363,1.3993654031368554
3.389867841409692,1.377773227879613
3.4096916299559474,1.3552308318748343
3.4295154185022034,1.3317786840175243
3.4493392070484585,1.3074603146614503
3.469162995594714,1.2823225366682256
3.4889867841409696,1.2564157020253859
3.508810572687225,1.2297939995252314
3.5286343612334807,1.202515799701693
3.5484581497797363,1.1746440539299763
3.5682819383259914,1.1462467552387199
3.588105726872247,1.1173974688730919
3.6079295154185025,1.088175940820101
3.627753303964758,1.0586687921293998
3.6475770925110136,1.0289703055792627
3.667400881057269,0.9991833085320794
3.6872246696035247,0.9694201509698532
3.7070484581497802,0.9398037696963
3.726872246696036,0.9104688172208479
3.7466960352422913,0.881562815264122
3.7665198237885464,0.8532472662725804
3.7863436123348024,0.8256986200000227
3.8061674008810575,0.7991089449894252
3.8259911894273135,0.7736860974035156
3.8458149779735686,0.7496531165032426
3.8656387665198246,0.7272465176800101
3.8854625550660797,0.7067131194694259
3.905286343612335,0.6883050593481642
3.925110132158591,0.6722727601060917
3.9449339207048464,0.6588558364773889
3.964757709251102,0.6482722898982466
3.9845814977973575,0.6407067897088808
4.004405286343612,0.6362992800561303
4.024229074889869,0.635135429602881
4.044052863436123,0.6372404038394028
4.06387665198238,0.6425770175729897
4.083700440528634,0.6510485925631662
4.103524229074891,0.6625060124695755
4.123348017621146,0.6767577909656911
4.143171806167401,0.6935816334458587
4.162995594713657,0.7127360172495449
4.182819383259912,0.7339706441556291
4.2026431718061685,0.7570350731950546
4.222466960352423,0.7816852769365232
4.242290748898679,0.8076881935660275
4.262114537444934,0.8348245451786429
4.28193832599119,0.862890276384973
4.301762114537445,0.8916969709532667
4.321585903083701,0.9210715624429167
4.3414096916299565,0.9508555943212526
4.361233480176212,0.9809042228560673
4.381057268722468,1.0110851010121158
4.400881057268723,1.0412772370220078
4.420704845814979,1.0713698874368185
4.440528634361234,1.1012615199539666
4.46035242290749,1.1308588643204278
4.4801762114537445,1.160076058297934
4.500000000000001,1.1888338884901082
4.5198237885462555,1.217059121534096
4.539647577092512,1.2446839188198189
4.559471365638767,1.2716453268470729
4.579295154185023,1.297884835090593
4.599118942731278,1.3233479934928871
4.618942731277533,1.3479840822286846
4.63876651982379,1.3717458270417802
4.658590308370044,1.3945891541571735
4.678414096916301,1.4164729794653226
4.6982378854625555,1.4373590273293833
4.718061674008811,1.4572116749666135
4.737885462555067,1.475997818894223
4.757709251101322,1.4936867604085204
4.777533039647578,1.5102501074864698
4.797356828193833,1.5256616908656009
4.817180616740089,1.539897492377617
4.837004405286344,1.5529355838874064
4.856828193832599,1.5647560754295249
4.876651982378855,1.5753410713415017
4.896475770925111,1.5846746333748094
4.9162995594713665,1.5927427499211915
4.936123348017622,1.5995333106302398
4.955947136563877,1.6050360858157873
4.975770925110133,1.6092427101563709
4.995594713656388,1.6121466702924774
5.015418502202644,1.6137432960112463
5.035242290748899,1.614029754790866
5.055066079295155,1.6130050495536372
5.07488986784141,1.6106700195497712
5.094713656387666,1.6070273443660976
5.114537444933921,1.6020815511253974
5.134361233480177,1.5958390250158165
5.154185022026432,1.588308023366375
5.174008810572688,1.579498693566482
5.193832599118943,1.5694230952159414
5.213656387665199,1.5580952269900237
5.2334801762114544,1.545531058812504
5.25330396475771,1.5317485700535765
5.2731277533039655,1.5167677946086227
5.292951541850221,1.500610873874857
5.312775330396477,1.483302118827601
5.332599118942731,1.4648680826113576
5.352422907488988,1.445337645309013
5.372246696035242,1.424742112840001
5.392070484581499,1.4031153322719967
5.4118942731277535,1.3804938262182003
5.43171806167401,1.3569169494398254
5.451541850220265,1.3324270712884998
5.47136563876652,1.307069788212884
5.491189427312777,1.2808941712203448
5.511013215859031,1.2539530539283938
5.530837004405288,1.2263033676539359
5.550660792951542,1.198006530848582
5.570484581497798,1.1691289010552104
5.5903083700440535,1.1397422983586711
5.610132158590309,1.109924609910121
5.6299559471365646,1.0797604853209761
5.64977973568282,1.0493421322454086
5.669603524229076,1.0187702198380424
5.689427312775331,0.9881548943141698
5.709251101321586,0.957616904591167
5.729074889867842,0.9272888256295448
5.748898678414098,0.8973163508737216
5.768722466960353,0.8678596009590958
5.788546255506609,0.8390943611885432
5.808370044052864,0.811213112988002
5.82819383259912,0.7844256636168643
5.848017621145375,0.7589591057775409
5.867841409691631,0.7350567620310383
5.887665198237886,0.7129757047613179
5.907488986784142,0.6929824196439414
5.927312775330397,0.6753462401470021
5.9471365638766525,0.6603303684733675
5.966960352422908,0.6481806467531567
5.986784140969164,0.6391127395745876
6.00660792951542,0.6332989490438073
6.026431718061675,0.6308563391356224
6.04625550660793,0.6318379917367387
6.066079295154186,0.6362289044410032
6.085903083700441,0.6439472817726459
6.105726872246697,0.6548509731758374
6.125550660792952,0.6687478936268092
6.145374449339208,0.685408707330838
6.1651982378854635,0.704579975446082
6.185022026431718,0.7259962887292974
6.204845814977975,0.7493904357428595
6.224669603524229,0.7745012013070974
6.244493392070486,0.8010788190782906
6.264317180616741,0.8288883698394015
6.284140969162996,0.8577115371443544
6.303964757709252,0.8873471461957393
6.323788546255507,0.917610865117142
6.3436123348017635,0.9483343753325607
6.363436123348018,0.9793642421229568
6.3832599118942746,1.0105606493727948
6.403083700440529,1.0417961084962117
6.422907488986785,1.0729542107941632
6.44273127753304,1.1039284633099287
6.462555066079296,1.134621228256251
6.482378854625551,1.1649427729772324
6.502202643171807,1.1948104292312112
6.5220264317180625,1.224147855810981
6.541850220264318,1.2528843960237142
6.561674008810574,1.2809545205268373
6.581497797356829,1.3082973458989542
6.601321585903085,1.3348562197397464
6.62114537444934,1.3605783637925597
6.640969162995596,1.3854145674102598
6.6607929515418505,1.4093189245410065
6.680616740088107,1.4322486082404766
6.700440528634362,1.4541636774881166
6.720264317180618,1.4750269117836516
6.740088105726873,1.4948036696222213
6.759911894273129,1.5134617674935857
6.779735682819384,1.5309713765276365
6.799559471365639,1.5473049343222531
6.819383259911895,1.562437069846612
6.83920704845815,1.5763445396211648
6.859030837004407,1.589006173640973
6.8788546255506615,1.6004028297375466
6.898678414096917,1.6105173552726646
6.918502202643173,1.6193345552279974
6.938325991189428,1.6268411659045272
6.958149779735684,1.6330258335756735
6.977973568281939,1.6378790975536193
6.997797356828195,1.6413933772315474
7.01762114537445,1.6435629627568349
7.037444933920705,1.6443840090761939
7.0572687224669615,1.643854533172175
7.077092511013216,1.6419744143870056
7.096916299559473,1.6387453978021076
7.116740088105728,1.6341711007150992
7.136563876651983,1.62825702232955
7.156387665198239,1.621010556850165
7.176211453744494,1.6124410102572433
7.19603524229075,1.6025596211226976
7.215859030837005,1.5913795859272435
7.235682819383261,1.5789160894461682
7.255506607929516,1.5651863408938123
7.275330396475772,1.5502096166564332
7.295154185022027,1.5340073106030423
7.314977973568283,1.5166029931494283
7.334801762114538,1.4980224804660864
7.354625550660794,1.4782939154715204
7.374449339207049,1.4574478625462042
7.394273127753305,1.4355174182456845
7.4140969162995605,1.4125383406936345
7.433920704845816,1.3885492008046578
7.453744493392072,1.3635915590356442
7.473568281938327,1.3377101719999105
7.493392070484583,1.310953234013447
7.513215859030838,1.2833726594817505
7.533039647577093,1.2550244129833998
7.552863436123348,1.2259688949547793
7.572687224669605,1.196271392006123
7.59251101321586,1.1660026020537841
7.612334801762115,1.1352392455455282
7.6321585903083715,1.1040647749269026
7.651982378854627,1.0725701948905562
7.671806167400882,1.0408550054590067
7.691629955947137,1.009028277950453
7.711453744493394,0.9772098694364445
7.731277533039649,0.9455317730722272
7.751101321585904,0.9141395877895131
7.7709251101321595,0.8831940687910242
7.790748898678416,0.8528726869828849
7.81057268722467,0.823371077509666
7.830396475770926,0.7949041919633217
7.850220264317182,0.7677068847852311
7.870044052863436,0.7420335660842594
7.889867841409693,0.7181564542180965
7.909691629955948,0.6963618903896798
7.929515418502204,0.6769441809299905
7.9493392070484585,0.6601965729976415
7.969162995594715,0.6463993067013282
7.9889867841409705,0.6358052441945649
8.008810572687224,0.6286242910988062
8.02863436123348,0.6250085152253941
8.048458149779737,0.625040255794132
8.068281938325994,0.6287253450826013
8.088105726872246,0.635992754171535
8.107929515418503,0.646700725042848
8.12775330396476,0.6606481814326917
8.147577092511014,0.6775893495235613
8.167400881057269,0.6972492903697576
8.187224669603525,0.7193383915069264
8.207048458149782,0.7435645371266555
8.226872246696036,0.7696423950888985
8.246696035242293,0.7972998327042039
8.266519823788547,0.8262818291829906
8.286343612334802,0.8563524081938455
8.306167400881058,0.8872951276952816
8.325991189427315,0.9189125986434479
8.345814977973568,0.9510254074171633
8.365638766519824,0.9834707185897783
8.38546255506608,1.0161007497245602
8.405286343612337,1.0487812430490373
8.42511013215859,1.0813900096877778
8.444933920704846,1.1138155878007119
8.464757709251103,1.145956033111318
8.484581497797357,1.1777178458050874
8.504405286343614,1.2090150291087236
8.524229074889869,1.2397682701048651
8.544052863436125,1.2699042311197197
8.56387665198238,1.2993549393819768
8.583700440528636,1.3280572629461374
8.60352422907489,1.355952461679993
8.623348017621145,1.3829858031659252
8.643171806167402,1.4091062344940464
8.662995594713658,1.4342661020347494
8.682819383259913,1.4584209123176364
8.702643171806168,1.4815291280857998
8.722466960352424,1.5035519944321252
8.74229074889868,1.5244533906579505
8.762114537444935,1.5441997041313664
8.78193832599119,1.5627597229713397
8.801762114537446,1.5801045448546545
8.821585903083701,1.5962074996463846
8.841409691629957,1.611044083898619
8.861233480176212,1.6245919055574838
8.881057268722468,1.6368306374703414
8.900881057268723,1.6477419785014904
8.92070484581498,1.65730962125078
8.940528634361234,1.6655192255308677
8.960352422907489,1.6723583968986928
8.980176211453745,1.6778166696597456
9.000000000000002,1.6818854938726522
9.019823788546258,1.6845582259791474
9.039647577092511,1.6858301227733152
9.059471365638768,1.685698338506199
9.079295154185024,1.6841619249997204
9.099118942731279,1.6812218347182268
9.118942731277533,1.6768809268204223
9.13876651982379,1.67114397628911
9.158590308370046,1.664017686313179
9.1784140969163,1.6555107041788601
9.198237885462555,1.6456336410151295
9.218061674008812,1.6343990958361112
9.237885462555067,1.6218216844314213
9.257709251101323,1.6079180737790677
9.27753303964758,1.5927070227958138
9.297356828193834,1.57620943040253
9.317180616740089,1.5584483920707366
9.337004405286345,1.5394492662369503
9.356828193832602,1.519239752230348
9.376651982378855,1.4978499816639945
9.396475770925111,1.4753126255992839
9.416299559471367,1.4516630202183776
9.436123348017622,1.4269393142418176
9.455947136563877,1.4011826419217555
9.475770925110133,1.3744373261412766
9.49559471365639,1.34675111697249
9.515418502202644,1.3181754720069467
9.5352422907489,1.2887658858863145
9.555066079295155,1.258582277737052
9.57488986784141,1.2276894466500026
9.594713656387666,1.1961576069214135
9.614537444933923,1.1640630164313497
9.634361233480178,1.1314887131642843
9.654185022026432,1.098525376271911
9.674008810572689,1.0652723288887744
9.693832599118945,1.0318386995689115
9.713656387665198,0.9983447568178755
9.733480176211454,0.9649234253747765
9.75330396475771,0.931721981625311
9.773127753303967,0.898903905910522
9.792951541850222,0.8666508376413815
9.812775330396477,0.835164530165364
9.832599118942733,0.8046686309134817
9.852422907488988,0.775410014131776
9.872246696035244,0.7476592682013097
9.892070484581499,0.7217097964851089
9.911894273127754,0.6978748566925533
9.93171806167401,0.6764817920900627
9.951541850220266,0.6578627815294995
9.971365638766521,0.6423417543582314
9.991189427312776,0.6302177558943279
10.011013215859032,0.6217459853546462
10.030837004405289,0.6171187617643451
10.050660792951543,0.6164494218585567
10.070484581497798,0.6197621830396515
10.090308370044054,0.6269900839760332
10.11013215859031,0.6379814391438523
10.129955947136565,0.6525134047337248
10.14977973568282,0.6703099357373031
10.169603524229077,0.6910610146833059
10.189427312775331,0.7144404973950209
10.209251101321588,0.7401208751753084
10.229074889867842,0.76778426565924
10.248898678414099,0.7971297285210839
10.268722466960353,0.8278774612099392
10.28854625550661,0.8597706039133144
10.308370044052865,0.8925753673164057
10.32819383259912,0.9260800846585374
10.348017621145376,0.9600936476526198
10.367841409691632,0.9944436517447772
10.387665198237887,1.0289744661394584
10.407488986784141,1.0635453613228447
10.427312775330398,1.098028768568153
10.447136563876654,1.1323087070314157
10.466960352422909,1.166279389418083
10.486784140969164,1.199844002502185
10.50660792951542,1.2329136507052958
10.526431718061675,1.265406447116079
10.546255506607931,1.2972467351136294
10.566079295154186,1.328364424061164
10.585903083700442,1.3586944236590857
10.605726872246697,1.3881761630494234
10.625550660792953,1.4167531823845991
10.645374449339208,1.4443727861613427
