Frequency (Hz),Amplitude
0.0,2.8131807588216624
0.020066889632107024,2.8222132072255355
0.04013377926421405,2.8491035154795137
0.060200668896321065,2.893249877828768
0.0802675585284281,2.9537094607663583
0.10033444816053512,3.029275614011366
0.12040133779264213,3.118564601301781
0.14046822742474915,3.2200990337764597
0.1605351170568562,3.3323790551724577
0.1806020066889632,3.453936963479911
0.20066889632107024,3.5833748426574576
0.22073578595317725,3.719387258217221
0.24080267558528426,3.8607721827086205
0.2608695652173913,4.006433448124295
0.2809364548494983,4.15537760858249
0.3010033444816054,4.30670747524393
0.3210702341137124,4.459613960825354
0.34113712374581934,4.613367340252768
0.3612040133779264,4.767308625500406
0.3812709030100334,4.920841459480358
0.4013377926421405,5.073424734893101
0.42140468227424743,5.2245660157370555
0.4414715719063545,5.373815761052223
0.4615384615384615,5.520762306231267
0.4816053511705685,5.665027534999647
0.5016722408026756,5.806263166661351
0.5217391304347826,5.944147582856059
0.5418060200668896,6.078383122248473
0.5618729096989966,6.208693777980912
0.5819397993311036,6.334823239968715
0.6020066889632107,6.456533231391467
0.6220735785953176,6.573602095587224
0.6421404682274248,6.685823595778209
0.6622073578595318,6.793005895567698
0.6822742474916387,6.894970692952004
0.7023411371237458,6.991552484732551
0.7224080267558528,7.082597941756475
0.7424749163879598,7.167965378430321
0.7625418060200668,7.247524302511591
0.7826086956521738,7.321155033352042
0.802675585284281,7.38874837860402
0.8227424749163879,7.4502053609588685
0.8428093645484949,7.505436987809188
0.862876254180602,7.554364057853285
0.882943143812709,7.596916999623533
0.903010033444816,7.633035737748226
0.923076923076923,7.662669583473164
0.9431438127090299,7.685777146594414
0.963210702341137,7.702326266505247
0.983277591973244,7.712293960552993
1.0033444816053512,7.715666388348432
1.0234113712374582,7.712438831083366
1.0434782608695652,7.702615685301215
1.0635451505016722,7.686210470941303
1.0836120401337792,7.6632458538482835
1.1036789297658862,7.633753683314232
1.1237458193979932,7.597775045610792
1.1438127090301002,7.555360334882293
1.1638795986622072,7.506569343219019
1.1839464882943145,7.4514713722238195
1.2040133779264215,7.39014536893858
1.2240802675585283,7.322680089624373
1.2441471571906353,7.249174295608492
1.2642140468227423,7.169736986242126
1.2842809364548495,7.08448767497979
1.3043478260869565,6.99355671572179
1.3244147157190636,6.897085687888844
1.3444816053511706,6.795227850260759
1.3645484949832773,6.688148675454479
1.3846153846153846,6.576026479092406
1.4046822742474916,6.4590531602789865
1.4247491638795986,6.3374350730266515
1.4448160535117056,6.211394051822402
1.4648829431438126,6.081168618672947
1.4849498327759196,5.947015403773566
1.5050167224080266,5.8092108174559955
1.5250836120401337,5.668053017283241
1.5451505016722407,5.523864220992883
1.5652173913043477,5.376993423224781
1.5852842809364547,5.227819581150381
1.605351170568562,5.076755340421474
1.625418060200669,4.924251376860699
1.6454849498327757,4.770801428706723
1.6655518394648827,4.616948085341365
1.6856187290969897,4.463289375649454
1.705685618729097,4.310486154163724
1.725752508361204,4.159270204013589
1.745819397993311,4.010452846204375
1.765886287625418,3.864933644301171
1.7859531772575248,3.7237084988904883
1.806020066889632,3.587876016595807
1.826086956521739,3.4586405077546156
1.846153846153846,3.337309344986538
1.866220735785953,3.2252818005085055
1.8862876254180598,3.1240260793653647
1.9063545150501673,3.0350414160175885
1.926421404682274,2.9598032365396727
1.9464882943143813,2.899691886521853
1.966555183946488,2.855909313138598
1.9866220735785953,2.829392693570072
2.0066889632107023,2.820737803841931
2.026755852842809,2.830145976577136
2.0468227424749164,2.857405456474093
2.0668896321070234,2.9019111717683765
2.0869565217391304,2.9627186540989823
2.1070234113712374,3.038621141194389
2.1270903010033444,3.1282359916528995
2.1471571906354514,3.2300877081466517
2.1672240802675584,3.342678720472917
2.1872909698996654,3.464543678294128
2.2073578595317724,3.59428685238888
2.2274247491638794,3.7306046942422246
2.2474916387959865,3.8722967009356495
2.267558528428094,4.018267859346925
2.2876254180602005,4.167525532462201
2.3076923076923075,4.319173034160016
2.3277591973244145,4.472401519313867
2.3478260869565215,4.626481289400972
2.367892976588629,4.780753208294184
2.3879598662207355,4.934620631679035
2.408026755852843,5.087542055742688
2.4280936454849495,5.239024563192087
2.4481605351170566,5.388618066819386
2.468227424749164,5.535910306674959
2.4882943143812706,5.680522534654092
2.508361204013378,5.822105811724346
2.5284280936454846,5.960337842578114
2.548494983277592,6.094920276577784
2.568561872909699,6.225576410187066
2.5886287625418056,6.352049233258213
2.608695652173913,6.474099768757721
2.6287625418060196,6.591505662318184
2.648829431438127,6.704059984185659
2.668896321070234,6.811570211612031
2.688963210702341,6.913857364521196
2.709030100334448,7.010755271400043
2.7290969899665547,7.102109945893547
2.749163879598662,7.187779057588037
2.769230769230769,7.267631483018009
2.789297658862876,7.341546925094091
2.809364548494983,7.409415590982319
2.82943143812709,7.471137920018449
2.849498327759197,7.526624354561155
2.869565217391304,7.575795147812351
2.8896321070234112,7.618580203594907
2.9096989966555182,7.654918943904851
2.9297658862876252,7.684760200771452
2.9498327759197323,7.708062129583499
2.9698996655518393,7.72479214159192
2.9899665551839463,7.734926853791887
3.0100334448160533,7.738452054835228
3.0301003344481603,7.735362686037793
3.0501672240802673,7.725662836936868
3.0702341137123748,7.709365755230638
3.0903010033444813,7.686493871304584
3.1103678929765888,7.657078837927159
3.1304347826086953,7.621161586089474
3.1505016722408024,7.578792398379663
3.1705685618729094,7.530031001733719
3.1906354515050164,7.474946681901908
3.210702341137124,7.4136184225268185
3.2307692307692304,7.346135072360756
3.250836120401338,7.272595544873984
3.270903010033445,7.193109055341334
3.2909698996655514,7.107795401467492
3.311036789297659,7.016785294747947
3.3311036789297654,6.9202207510967275
3.351170568561873,6.818255550841814
3.3712374581939795,6.71105578003927
3.391304347826087,6.59880046723903
3.411371237458194,6.4816823324069865
3.4314381270903005,6.3599086677340075
3.451505016722408,6.23370237361069
3.471571906354515,6.103303177185078
3.491638795986622,5.968969065708844
3.511705685618729,5.8309779723530974
3.531772575250836,5.689629758329408
3.551839464882943,5.545248541893238
3.5719063545150496,5.398185431899765
3.591973244147157,5.248821730552301
3.612040133779264,5.097572675975983
3.632107023411371,4.9448917988124785
3.652173913043478,4.7912759658039406
3.672240802675585,4.637271173601545
3.692307692307692,4.483479132130629
3.712374581939799,4.330564630401273
3.732441471571906,4.1792635967682354
3.752508361204013,4.030391634205267
3.7725752508361197,3.8848526088776003
3.7926421404682276,3.7436465745310565
3.8127090301003346,3.607875906477471
3.832775919732441,3.478747992868831
3.852842809364548,3.3575722197619395
3.872909698996655,3.245748391281372
3.8929765886287626,3.1447433540366245
3.9130434782608696,3.0560527797533745
3.933110367892976,2.9811462246005704
3.953177257525083,2.921396086956422
3.9732441471571907,2.877994931990243
3.9933110367892977,2.851870154829221
4.013377926421405,2.8436086165124483
4.033444816053511,2.8534048202695192
4.053511705685618,2.881043124880088
4.073578595317726,2.925917796434093
4.093645484949833,2.987086599803504
4.113712374581939,3.0633471190355164
4.133779264214047,3.153322192262765
4.153846153846153,3.255542004863025
4.173913043478261,3.3685141546826642
4.193979933110368,3.4907774978140287
4.214046822742475,3.620939352717918
4.234113712374581,3.7576980505880186
4.254180602006689,3.899853908741022
4.274247491638796,4.04631184151947
4.294314381270903,4.196078429329717
4.314381270903009,4.348255666595673
4.334448160535117,4.502033002646243
4.354515050167224,4.656678771351249
4.374581939799331,4.811531704731054
4.394648829431437,4.965992936968011
4.414715719063545,5.119518708339801
4.434782608695651,5.271613851024178
4.454849498327759,5.421826060482614
4.474916387959866,5.569740911413745
4.494983277591973,5.714977554441612
4.5150501672240795,5.857185020609197
4.535117056856188,5.996039059870485
4.555183946488294,6.131239443506259
4.575250836120401,6.2625076664398165
4.595317725752508,6.389584992393229
4.615384615384615,6.512230791878032
4.635451505016722,6.630221129699689
4.655518394648829,6.7433475647488725
4.6755852842809364,6.851416130268074
4.695652173913043,6.954246467514894
4.71571906354515,7.051671089832019
4.735785953177258,7.143534757638318
4.7558528428093645,7.229693947844293
4.775919732441471,7.310016403734524
4.795986622073578,7.384380753515271
4.816053511705686,7.45267618755269
4.8361204013377925,7.514802185878566
4.856187290969899,7.570668288858975
4.8762541806020065,7.62019390504577
4.896321070234113,7.663308151193109
4.916387959866221,7.699949720249523
4.936454849498328,7.730066773853287
4.956521739130435,7.75361685648603
4.976588628762541,7.7705668289929966
4.996655518394649,7.780892819673854
5.016722408026756,7.784580191597718
5.036789297658863,7.781623525212698
5.056856187290969,7.772026615713413
5.076923076923077,7.75580248500987
5.096989966555184,7.7329734085170525
5.117056856187291,7.703570957365984
5.137123745819398,7.667636057032797
5.157190635451505,7.625219063802971
5.177257525083611,7.576379860943471
5.197324414715719,7.521187976958047
5.217391304347826,7.459722728863713
5.237458193979933,7.392073394064178
5.257525083612039,7.318339415126612
5.277591973244148,7.2386306426118185
5.297658862876254,7.153067622088131
5.317725752508361,7.061781932604745
5.337792642140468,6.964916585242621
5.357859531772575,6.862626491939135
5.377926421404682,6.755079016640266
5.397993311036789,6.642454623021782
5.418060200668896,6.524947635595108
5.438127090301003,6.402767134036866
5.458193979933109,6.276138004118314
5.478260869565218,6.145302172725792
5.498327759197324,6.0105200592090355
5.518394648829431,5.8720722806994425
5.538461538461538,5.730261655084405
5.558528428093646,5.58541555189709
5.578595317725752,5.437888648224912
5.598662207357859,5.288066153348208
5.618729096989966,5.136367571297619
5.638795986622073,4.983251073360343
5.65886287625418,4.8292185503488625
5.678929765886288,4.674821403389384
5.698996655518394,4.520667106367675
5.719063545150501,4.3674265245959
5.739130434782608,4.215841890902775
5.759197324414716,4.066735206341658
5.7792642140468224,3.9210166283519063
5.799331103678929,3.7796921129712846
5.8193979933110365,3.6438691719641585
5.839464882943144,3.5147590888745692
5.8595317725752505,3.3936733456541406
5.879598662207358,3.282011447635603
5.8996655518394645,3.1812370061340216
5.919732441471571,3.092839171529828
5.9397993311036785,3.0182777095106084
5.959866220735786,2.958912508180609
5.9799331103678925,2.9159220673402326
5.999999999999999,2.890219857992126
6.020066889632107,2.8823808930091106
6.040133779264214,2.8925916243863248
6.060200668896321,2.9206332063692995
6.080267558528428,2.9659016530892126
6.100334448160535,3.0274606203005145
6.120401337792642,3.104116300390248
6.1404682274247495,3.194501239105106
6.160535117056856,3.2971549924505426
6.180602006688963,3.410593159287475
6.200668896321069,3.53336065353507
6.2207357859531776,3.6640687312919162
6.240802675585284,3.8014176450356767
6.260869565217391,3.944207882969373
6.280936454849498,4.091343113010734
6.301003344481605,4.241827588231213
6.321070234113712,4.394760198426403
6.341137123745819,4.549326765993137
6.361204013377926,4.704791678888808
6.381270903010033,4.860489559848745
6.40133779264214,5.015817385319308
6.421404682274248,5.17022727139779
6.441471571906354,5.32322001601184
6.461538461538461,5.474339407306786
6.481605351170568,5.6231672623341105
6.501672240802676,5.769319136214536
6.521739130434782,5.912440631911593
6.54180602006689,6.052204239103899
6.561872909698996,6.188306633769188
6.581939799331103,6.3204663756770945
6.60200668896321,6.448421947600433
6.622073578595318,6.571930086846376
6.642140468227424,6.69076436620262
6.662207357859531,6.804713987348473
6.682274247491639,6.913582755096705
6.702341137123746,7.0171882054943815
6.722408026755852,7.115360864850401
6.742474916387959,7.207943620228665
6.762541806020066,7.29479118491162
6.782608695652174,7.375769644864786
6.80267558528428,7.450756074378971
6.822742474916388,7.519638210890172
6.842809364548494,7.582314180526414
6.862876254180601,7.63869226724962
6.882943143812709,7.688690719586456
6.903010033444816,7.732237589906879
6.9230769230769225,7.769270602040132
6.94314381270903,7.799737043738853
6.963210702341137,7.823593681132414
6.983277591973244,7.840806692868305
7.0033444816053505,7.851351622139225
7.023411371237458,7.855213345248186
7.0434782608695645,7.852386055784206
7.063545150501672,7.8428732638789755
7.083612040133779,7.826687810399622
7.103678929765886,7.803851896313349
7.123745819397993,7.774397127846531
7.143812709030099,7.738364578462122
7.1638795986622075,7.695804869106153
7.183946488294314,7.646778268635734
7.204013377926421,7.59135481685134
7.224080267558528,7.529614473125872
7.2441471571906355,7.4616472942695875
7.264214046822742,7.3875536460095885
7.2842809364548495,7.307444453315397
7.304347826086956,7.2214414957930275
7.324414715719063,7.129677755525244
7.34448160535117,7.032297826088301
7.364548494983278,6.92945839306343
7.384615384615384,6.821328798225742
7.404682274247491,6.70809170178643
7.424749163879598,6.589943859636855
7.444816053511706,6.467097035557863
7.464882943143812,6.339779071872762
7.48494983277592,6.208235146095969
7.505016722408026,6.0727292458060855
7.525083612040134,5.933545899266898
7.545150501672239,5.79099220519513
7.565217391304348,5.645400211396458
7.585284280936455,5.497129698469281
7.605351170568561,5.346571430861462
7.625418060200669,5.194150942307075
7.645484949832775,5.040332924497746
7.665551839464882,4.885626284254681
7.685618729096991,4.730589921603743
7.705685618729096,4.575839253232629
7.725752508361204,4.422053454439214
7.74581939799331,4.2699833061715
7.765886287625418,4.12045939666448
7.785953177257525,3.974400220666584
7.806020066889631,3.8328194233875865
7.826086956521739,3.6968310360489496
7.846153846153847,3.5676510472834697
7.866220735785952,3.4465930894410293
7.88628762541806,3.3350554982084875
7.906354515050166,3.23449673327248
7.926421404682274,3.146396442356309
7.946488294314381,3.0722006889553404
7.966555183946488,3.0132523349263334
7.986622073578595,2.970711208438473
8.006688963210701,2.9454727959473987
8.02675585284281,2.938097378229189
8.046822742474916,2.9487621163636017
8.066889632107022,2.977245539767308
8.08695652173913,3.022947645180202
8.107023411371236,3.0849414202516625
8.127090301003344,3.162045712450637
8.147157190635452,3.2529068256499167
8.167224080267557,3.356077255030899
8.187290969899665,3.470083375249326
8.207357859531772,3.593478002431872
8.227424749163879,3.7248772480208086
8.247491638795987,3.8629833727996106
8.267558528428093,4.006596435414357
8.2876254180602,4.154617725793534
8.307692307692307,4.306047654741447
8.327759197324415,4.459980236971437
8.347826086956522,4.615595745910445
8.367892976588628,4.772152630449936
8.387959866220736,4.928979399482547
8.408026755852843,5.085466898279277
8.42809364548495,5.241061205371422
8.448160535117056,5.395257249679797
8.468227424749163,5.547593166818148
8.488294314381271,5.697645365918848
8.508361204013378,5.845024252825054
8.528428093645484,5.989370544100913
8.548494983277592,6.130352103563792
8.568561872909697,6.267661235303742
8.588628762541806,6.401012372078645
8.608695652173914,6.530140104089648
8.628762541806019,6.654797499565909
8.648829431438127,6.774754674813118
8.668896321070234,6.889797577141651
8.68896321070234,6.999726949268275
8.709030100334449,7.104357448351049
8.729096989966555,7.203516896789527
8.749163879598662,7.297045645348491
8.769230769230768,7.384796032099581
8.789297658862875,7.466631923182459
8.809364548494983,7.542428323522624
8.82943143812709,7.6120710474609
8.849498327759196,7.6754564407975
8.869565217391303,7.732491147073465
8.889632107023411,7.783091912040976
8.909698996655518,7.827185421242689
8.929765886287624,7.864708166456014
8.949832775919733,7.895606337484319
8.96989966555184,7.919835736412791
8.989966555183946,7.937361712009971
9.010033444816054,7.948159112460747
9.030100334448159,7.95221225507675
9.050167224080267,7.949514912056553
9.070234113712376,7.940070311772038
9.09030100334448,7.923891155448077
9.110367892976589,7.900999649490487
9.130434782608695,7.871427554110424
9.150501672240802,7.835216249302582
9.17056856187291,7.792416819668805
9.190635451505017,7.743090160049604
9.210702341137123,7.687307104444606
9.23076923076923,7.625148581283164
9.250836120401337,7.556705798763092
9.270903010033445,7.482080464726161
9.290969899665551,7.401385046403714
9.311036789297658,7.3147430763684556
9.331103678929765,7.222289512195947
9.351170568561873,7.124171158703469
9.37123745819398,7.020547163231518
9.391304347826086,6.911589596305446
9.411371237458194,6.797484132209381
9.4314381270903,6.6784308465727
9.451505016722408,6.5546451510656905
9.471571906354516,6.426358888780914
9.49163879598662,6.293821617887991
9.511705685618729,6.157302115725024
9.531772575250837,6.017090140628475
9.551839464882942,5.873498494444285
9.57190635451505,5.726865434642194
9.591973244147155,5.577557490939591
9.612040133779264,5.425972746729556
9.632107023411372,5.272544649380608
9.652173913043477,5.117746413981304
9.672240802675585,4.962096079749469
9.692307692307692,4.806162263167977
9.712374581939798,4.650570621111802
9.732441471571907,4.49601098244754
9.752508361204013,4.34324501635947
9.77257525083612,4.19311416512986
9.792642140468226,4.046547360632587
9.812709030100335,3.9045677495446856
9.832775919732441,3.7682972604449487
9.852842809364548,3.6389573629679988
9.872909698996656,3.517863839644257
9.89297658862876,3.406412925033066
9.91304347826087,3.306055966393128
9.933110367892976,3.2182601250376797
9.953177257525082,3.1444539127071898
9.97324414715719,3.0859587849779317
9.993311036789297,3.043911488297676
10.013377926421404,3.0191856813663205
10.033444816053512,3.0123242109374817
10.053511705685617,3.0234938002700877
10.073578595317725,3.052470907096662
10.093645484949834,3.09866160554703
10.113712374581938,3.1611514414890896
10.133779264214047,3.2387757279348213
10.153846153846153,3.330198367650867
10.17391304347826,3.4339882098828975
10.193979933110368,3.5486850902147853
10.214046822742475,3.6728515369252612
10.234113712374581,3.8051094377208905
10.254180602006688,3.94416317039395
10.274247491638796,4.088811787452449
10.294314381270903,4.2379530838197965
10.31438127090301,4.39058211168639
10.334448160535118,4.545786220158491
10.354515050167223,4.702738173018106
10.37458193979933,4.860688431523854
10.394648829431437,5.018957316624708
10.414715719063544,5.176927488223933
10.434782608695652,5.3340369847717035
10.454849498327757,5.489772936470677
10.474916387959865,5.64366598259229
10.494983277591974,5.795285373644879
10.515050167224079,5.944234711594003
10.535117056856187,6.0901482681951284
10.555183946488295,6.232687817327823
10.5752508361204,6.371539918361037
10.595317725752508,6.50641359164381
10.615384615384615,6.637038332684372
10.635451505016722,6.76316241752588
10.65551839464883,6.884551457702351
10.675585284280936,7.000987168666087
10.695652173913043,7.1122663205762375
10.71571906354515,7.218199844776352
10.735785953177256,7.318612073174524
10.755852842809364,7.413340091105831
10.775919732441471,7.5022331871548635
10.795986622073578,7.585152385898621
10.816053511705684,7.661970051652093
10.836120401337793,7.732569553109728
10.856187290969899,7.796844980322025
10.876254180602006,7.85470090676836
10.896321070234114,7.906052190419133
10.916387959866219,7.950823808654679
10.936454849498327,7.988950722750214
10.956521739130435,8.0203777683689
10.97658862876254,8.045059569147995
