Time (s),Filtered Signal
0.0,0.0677753989735463
0.03337008452774715,0.3538062465460291
0.0667401690554943,0.5327263623615748
0.10011025358324147,0.5308589904285757
0.1334803381109886,0.32946208827306883
0.16685042263873576,-0.030340255403142235
0.20022050716648293,-0.4618693886665425
0.23359059169423008,-0.8617181752485672
0.2669606762219772,-1.1429036455137414
0.30033076074972437,-1.2602513799155957
0.3337008452774715,-1.2189472880828058
0.36707092980521866,-1.064244360134314
0.40044101433296586,-0.8582057931141894
0.433811098860713,-0.6542698437951247
0.46718118338846015,-0.48007973066549614
0.5005512679162073,-0.33404718463111854
0.5339213524439544,-0.1944678412421612
0.5672914369717016,-0.035083173203562766
0.6006615214994487,0.160288808297537
0.6340316060271959,0.3893531245787959
0.667401690554943,0.6308727295676617
0.7007717750826902,0.8507138898696662
0.7341418596104373,1.0113684434848607
0.7675119441381845,1.081780993476713
0.8008820286659317,1.0449969254831133
0.8342521131936789,0.902068991174837
0.867622197721426,0.6715935990717105
0.9009922822491732,0.38522907730007205
0.9343623667769203,0.08055005047864183
0.9677324513046675,-0.20666698772778552
1.0011025358324146,-0.4485462474914528
1.0344726203601617,-0.6281494267488501
1.0678427048879089,-0.7392470040056922
1.101212789415656,-0.7838304155499088
1.1345828739434032,-0.7690069679492965
1.1679529584711503,-0.7047490719313827
1.2013230429988975,-0.6030868266123115
1.2346931275266446,-0.478131306597908
1.2680632120543918,-0.3454240375018802
1.301433296582139,-0.2191732499592215
1.334803381109886,-0.10722646946516323
1.3681734656376332,-0.005673482708183397
1.4015435501653803,0.1034083820230591
1.4349136346931275,0.2477026294574071
1.4682837192208746,0.4530541048924798
1.5016538037486218,0.7277751755179002
1.535023888276369,1.0496705029393865
1.568393972804116,1.3632576281852669
1.6017640573318634,1.5913055976199855
1.6351341418596106,1.6585120499134731
1.6685042263873577,1.5188694688652868
1.7018743109151049,1.1754132363332455
1.735244395442852,0.6834550186455678
1.7686144799705992,0.1352047974480665
1.8019845644983463,-0.36841446594054444
1.8353546490260935,-0.747829202114917
1.8687247335538406,-0.965736792039147
1.9020948180815878,-1.0323646383797869
1.935464902609335,-0.9950689625507745
1.968834987137082,-0.9178391942549948
2.002205071664829,-0.8589161564907845
2.0355751561925763,-0.8540373267834538
2.0689452407203235,-0.9096437985510416
2.1023153252480706,-1.0062717712582594
2.1356854097758178,-1.1089556791198463
2.169055494303565,-1.179946802102298
2.202425578831312,-1.1896026290329862
2.235795663359059,-1.1231338066411793
2.2691657478868064,-0.9827388243397674
2.3025358324145535,-0.7855980519623613
2.3359059169423007,-0.5582651393217646
2.369276001470048,-0.32804245386210534
2.402646085997795,-0.11283504296996143
2.436016170525542,0.08731998584354646
2.4693862550532892,0.2926443891835014
2.5027563395810364,0.5364924977933881
2.5361264241087835,0.8490156010711506
2.5694965086365307,1.2370651445367924
2.602866593164278,1.6694554063809735
2.636236677692025,2.076272484808332
2.669606762219772,2.3657172795132095
2.7029768467475193,2.4539925620993497
2.7363469312752664,2.2967900750659442
2.7697170158030135,1.9087318164839
2.8030871003307607,1.3613368975052096
2.836457184858508,0.7592441830939877
2.869827269386255,0.20435305439635887
2.903197353914002,-0.23668706599988615
2.9365674384417493,-0.5477552382798174
2.9699375229694964,-0.7557954607157334
3.0033076074972436,-0.9061662838958118
3.0366776920249907,-1.0344091179070953
3.070047776552738,-1.1488867874972173
3.103417861080485,-1.2320527052764019
3.136787945608232,-1.2576043352366533
3.1701580301359793,-1.2121818124855617
3.203528114663727,-1.108222840714243
3.236898199191474,-0.9801280606807128
3.270268283719221,-0.8659137199708926
3.3036383682469683,-0.7853656957936915
3.3370084527747155,-0.7281958094519595
3.3703785373024626,-0.6601334710717054
3.4037486218302098,-0.5442262525506675
3.437118706357957,-0.3650701535146155
3.470488790885704,-0.1411695476663787
3.503858875413451,0.08287197115588892
3.5372289599411983,0.2605891379653622
3.5705990444689455,0.37016882851420607
3.6039691289966926,0.4268825994419008
3.63733921352444,0.47289975825579894
3.670709298052187,0.5494686362371816
3.704079382579934,0.6676447967213229
3.7374494671076812,0.7956466776795919
3.7708195516354284,0.8719471895100999
3.8041896361631755,0.8382771998730953
3.8375597206909227,0.6744814153681701
3.87092980521867,0.4149898758004349
3.904299889746417,0.1362246072484804
3.937669974274164,-0.07960440714227056
3.9710400588019112,-0.18527891772721886
4.004410143329658,-0.19170655784801427
4.0377802278574055,-0.16036710969264215
4.071150312385153,-0.1685368444951372
4.1045203969129,-0.2654981551259325
4.137890481440647,-0.44292436814382297
4.171260565968394,-0.6352970868919261
4.204630650496141,-0.7506097923608119
4.238000735023888,-0.7159938963907438
4.2713708195516356,-0.5152995391853032
4.304740904079383,-0.199774184503271
4.33811098860713,0.13352639915944878
4.371481073134877,0.3850521913049655
4.404851157662624,0.49686924011234695
4.438221242190371,0.4767026096328753
4.471591326718118,0.3911634496239886
4.504961411245866,0.3322663914991705
4.538331495773613,0.3735690002343078
4.57170158030136,0.5361860785561969
4.605071664829107,0.7792655289873122
4.638441749356854,1.01766664544076
4.671811833884601,1.1575476518384873
4.7051819184123485,1.1337441478068033
4.738552002940096,0.9335644006048712
4.771922087467843,0.598689347232413
4.80529217199559,0.20654077557067604
4.838662256523337,-0.15947293009262511
4.872032341051084,-0.43808300092620345
4.905402425578831,-0.6061490326851029
4.9387725101065785,-0.6783170066366431
4.972142594634326,-0.6933878808015601
5.005512679162073,-0.6952715445555775
5.03888276368982,-0.7169616666450659
5.072252848217567,-0.7726957068330462
5.105622932745314,-0.8586870211363666
5.138993017273061,-0.9592428247814896
5.1723631018008085,-1.0541777824743048
5.205733186328556,-1.1247532591582403
5.239103270856303,-1.1572826247151018
5.27247335538405,-1.1446589527984754
5.305843439911797,-1.0861735522866711
5.339213524439544,-0.985805676875373
5.372583608967291,-0.8493293456397155
5.4059536934950385,-0.6810868129164995
5.439323778022786,-0.48163665490696056
5.472693862550533,-0.24733145407717136
5.50606394707828,0.02773771570524319
5.539434031606027,0.3477759632089668
5.572804116133774,0.7103379622473254
5.606174200661521,1.1019390337010153
5.6395442851892685,1.4959856157456088
5.672914369717016,1.854522342943318
5.706284454244763,2.1342899748693744
5.73965453877251,2.295901276622674
5.773024623300257,2.313214603209518
5.806394707828004,2.1792792131573258
5.839764792355751,1.9063544937205255
5.873134876883499,1.52028685257478
5.906504961411246,1.0525639044348125
5.939875045938993,0.5346848028107541
5.97324513046674,-0.002144166730676548
6.006615214994487,-0.5229176541643455
6.039985299522234,-0.9850534642196528
6.073355384049981,-1.340490947693417
6.106725468577729,-1.5460961260591795
6.140095553105476,-1.5793252648444722
6.173465637633223,-1.4516535157232422
6.20683572216097,-1.2117908807554107
6.240205806688717,-0.9347867170166351
6.273575891216464,-0.6997189344802104
6.3069459757442115,-0.5643380884548376
6.340316060271959,-0.5468900242707667
6.373686144799706,-0.6224802846400587
6.407056229327454,-0.7351973753895591
6.440426313855201,-0.8206721757110561
6.473796398382948,-0.8297114342885328
6.507166482910695,-0.743718613939702
6.540536567438442,-0.5765700185694264
6.5739066519661895,-0.3635941835983394
6.607276736493937,-0.14366583385949921
6.640646821021684,0.05713322060124116
6.674016905549431,0.23326697010040648
6.707386990077178,0.39635593802630675
6.740757074604925,0.5633678021426924
6.774127159132672,0.7427388600544135
6.8074972436604195,0.9252535302455042
6.840867328188167,1.0839083655132618
6.874237412715914,1.1827313218528066
6.907607497243661,1.1905731045747672
6.940977581771408,1.0938527298333078
6.974347666299155,0.9028354710263787
7.007717750826902,0.6488927846101434
7.0410878353546495,0.37410481712261606
7.074457919882397,0.11784934189223163
7.107828004410144,-0.09379944141374785
7.141198088937891,-0.25159644299464495
7.174568173465638,-0.3589699972948704
7.207938257993385,-0.42354796607813017
7.241308342521132,-0.44984854022907417
7.27467842704888,-0.43758922695556407
7.308048511576627,-0.3863671726209419
7.341418596104374,-0.30323855494351415
7.374788680632121,-0.20754837473158264
7.408158765159868,-0.12864165349303855
7.441528849687615,-0.09617743866184303
7.4748989342153624,-0.12733826421702815
7.50826901874311,-0.21760872601350953
7.541639103270857,-0.34049752101053943
7.575009187798604,-0.4571570611583134
7.608379272326351,-0.5316587539653607
7.641749356854098,-0.5445604622560392
7.675119441381845,-0.49811350880330163
7.7084895259095925,-0.4106826565282819
7.74185961043734,-0.3035106211097076
7.775229694965087,-0.18701546398399618
7.808599779492834,-0.05431701090256979
7.841969864020581,0.11371444015347
7.875339948548328,0.3334778669308861
7.908710033076075,0.6010159754350902
7.9420801176038225,0.8816415885305828
7.97545020213157,1.1144055780944522
8.008820286659317,1.232155163376397
8.042190371187063,1.189502986727655
8.075560455714811,0.9854612368239494
8.108930540242557,0.6684421444844477
8.142300624770305,0.3192329234506543
8.175670709298052,0.018777111613854695
8.2090407938258,-0.18398115274034066
8.242410878353546,-0.28839170855122787
8.275780962881294,-0.33483901658808024
8.30915104740904,-0.378649350707753
8.342521131936788,-0.4596095798606595
8.375891216464534,-0.5831106055623987
8.409261300992283,-0.7216582011288116
8.442631385520029,-0.8338161762970692
8.476001470047777,-0.8883787271715298
8.509371554575523,-0.8798383719131688
8.542741639103271,-0.8275030845139213
8.57611172363102,-0.7606848859650273
8.609481808158765,-0.7000754336238674
8.642851892686513,-0.6464849750915057
8.67622197721426,-0.582593043186194
8.709592061742008,-0.4851629748925237
8.742962146269754,-0.3393716877694758
8.776332230797502,-0.14660525551903475
8.809702315325248,0.07813246696951764
8.843072399852996,0.31639299318814107
8.876442484380743,0.5566717613210328
8.90981256890849,0.7976956050064552
8.943182653436237,1.0418462958006103
8.976552737963985,1.28243722451672
9.009922822491731,1.4932281307762152
9.04329290701948,1.6284734127084781
9.076662991547225,1.6365381216017978
9.110033076074973,1.4823048365935054
9.14340316060272,1.167630242488983
9.176773245130468,0.7386611942418435
9.210143329658214,0.27457191156015315
9.243513414185962,-0.13861008150922624
9.276883498713708,-0.4377913822566768
9.310253583241456,-0.6028641998139384
9.343623667769203,-0.6583105074607063
9.37699375229695,-0.6565374046067709
9.410363836824697,-0.6516705500333015
9.443733921352445,-0.6764705093559511
9.477104005880191,-0.7326041042327436
9.51047409040794,-0.7972205624827434
9.543844174935685,-0.840531460768792
9.577214259463434,-0.8440690500493861
9.61058434399118,-0.8098901690539245
9.643954428518928,-0.7566260332874565
9.677324513046674,-0.7057668392619483
9.710694597574422,-0.6668376328317545
9.744064682102168,-0.6303932735164737
9.777434766629916,-0.5730383300243794
9.810804851157663,-0.47167631639038365
9.84417493568541,-0.3187997860530563
9.877545020213157,-0.12980322729330496
9.910915104740905,0.06248943209894367
9.944285189268651,0.22387696388844314
9.9776552737964,0.3371637752386082
10.011025358324146,0.4128617063925659
10.044395442851894,0.4857575500284358
10.07776552737964,0.5979681375485292
10.111135611907388,0.7760434330487931
10.144505696435134,1.0129650298167507
10.177875780962882,1.2639444960080777
10.211245865490628,1.458778062179604
10.244615950018376,1.5261249475755108
10.277986034546123,1.4198466358396538
10.31135611907387,1.1367402120464192
10.344726203601617,0.7187945108216459
10.378096288129365,0.23961074630365947
10.411466372657111,-0.2190970998007332
10.44483645718486,-0.5915796154997132
10.478206541712606,-0.8439181813940052
10.511576626240354,-0.9768029150419467
10.5449467107681,-1.015779337844069
10.578316795295848,-0.9943295536737305
10.611686879823594,-0.9376281506503072
10.645056964351342,-0.8541086997596234
10.678427048879088,-0.738311324179065
10.711797133406836,-0.5831638179365844
10.745167217934583,-0.3950107462070356
10.77853730246233,-0.20260896404922973
10.811907386990077,-0.05335042038646346
10.845277471517825,0.004184894684849972
10.878647556045571,-0.05509113919227751
10.91201764057332,-0.21257337523313755
10.945387725101066,-0.40197381785386654
10.978757809628814,-0.5270780911695133
11.01212789415656,-0.49666921953978727
11.045497978684308,-0.2628801226918052
11.078868063212054,0.15399829651985633
11.112238147739802,0.666328441425055
11.145608232267548,1.146618229460324
11.178978316795297,1.4709235738009754
11.212348401323043,1.5605047774080936
11.24571848585079,1.4053443806068766
11.279088570378537,1.0616154457905564
11.312458654906285,0.6264941341066226
11.345828739434031,0.2024370081431
11.37919882396178,-0.13442366322116978
11.412568908489526,-0.35103828963799644
11.445938993017274,-0.4562863584079662
11.47930907754502,-0.48631433896227655
11.512679162072768,-0.4849003202826281
11.546049246600514,-0.48707908165438996
11.579419331128262,-0.5106326354918821
11.612789415656009,-0.5555513419289875
11.646159500183757,-0.6085883709156271
11.679529584711503,-0.6496219951085347
11.71289966923925,-0.6580195508875756
11.746269753766997,-0.618810265414211
11.779639838294745,-0.5287082653099087
11.813009922822491,-0.40069367031463315
11.84638000735024,-0.26425467524026774
11.879750091877986,-0.1584036825421175
11.913120176405734,-0.11725823153044411
11.94649026093348,-0.15249101301686888
11.979860345461228,-0.240712102412588
12.013230429988974,-0.32395070979045926
12.046600514516722,-0.32665247551375337
12.079970599044469,-0.18471980108281852
12.113340683572217,0.12486632429888331
12.146710768099963,0.5672982869769235
12.180080852627711,1.0548895696352898
12.213450937155457,1.4732357477028188
12.246821021683205,1.7186666654729965
12.280191106210951,1.7321211460958625
12.3135611907387,1.5163874113198703
12.346931275266446,1.1310823630873037
12.380301359794194,0.6690623791037295
12.41367144432194,0.22488908892515164
12.447041528849688,-0.13224733394364774
12.480411613377434,-0.3722711914106947
12.513781697905182,-0.5023657188918075
12.547151782432929,-0.5536519863690403
12.580521866960677,-0.5640106361088896
12.613891951488423,-0.5642791498622989
12.647262036016171,-0.5718102033519415
12.680632120543917,-0.5912903496403279
12.714002205071665,-0.6197158640823346
12.747372289599411,-0.6515340200325371
12.78074237412716,-0.6811312359249493
12.814112458654908,-0.7021942581275598
12.847482543182654,-0.7057176807532607
12.880852627710402,-0.6794528846333799
12.914222712238148,-0.6108505992159673
12.947592796765896,-0.4933390354001164
12.980962881293642,-0.3331844811030743
13.01433296582139,-0.15266332667140747
13.047703050349137,0.01401377042185873
13.081073134876885,0.13249568712404558
13.114443219404631,0.18397495373733563
13.147813303932379,0.17757475492657165
13.181183388460125,0.1519980392810091
13.214553472987873,0.1628208481966061
13.24792355751562,0.25858316049103014
13.281293642043368,0.4553981936853162
13.314663726571114,0.722376150531079
13.348033811098862,0.9865458128439087
13.381403895626608,1.1572794268519253
13.414773980154356,1.1607291678344094
13.448144064682102,0.969523024571946
13.48151414920985,0.6148086210885253
13.514884233737597,0.17569505467251434
13.548254318265345,-0.24888352221083226
13.581624402793091,-0.5736956765874183
13.614994487320839,-0.7526374789031931
13.648364571848585,-0.7871350940446058
13.681734656376333,-0.7164463841546443
13.71510474090408,-0.5961456704364456
13.748474825431828,-0.47489979304773916
13.781844909959574,-0.37880576042022057
13.815214994487322,-0.3080882462113124
13.848585079015068,-0.24524442833628077
13.881955163542816,-0.16928715150596427
13.915325248070562,-0.06913596100938749
13.94869533259831,0.04942185651929384
13.982065417126057,0.16549744211411513
14.015435501653805,0.25226759508020674
14.048805586181551,0.2895398388265042
14.082175670709299,0.27459508627244145
14.115545755237045,0.22668580395409602
14.148915839764793,0.1825043365430629
14.18228592429254,0.1830088565447036
14.215656008820288,0.25555907260412386
14.249026093348034,0.39818246735456503
14.282396177875782,0.5734646779301756
14.315766262403528,0.7169670560620548
14.349136346931276,0.7594595170097908
14.382506431459023,0.655571209138156
14.41587651598677,0.40686602459457594
14.449246600514517,0.06777391407160557
14.482616685042265,-0.2708417085246062
14.515986769570011,-0.5156298781465198
14.54935685409776,-0.6083018174363597
14.582726938625505,-0.5497824265067132
14.616097023153253,-0.39915599015957964
14.649467107681,-0.24710888416111185
14.682837192208748,-0.17583058735628163
14.716207276736494,-0.22400614282865774
14.749577361264242,-0.37297783888175223
14.782947445791988,-0.5595628153046021
14.816317530319736,-0.707906228704992
14.849687614847483,-0.7639849192812866
14.88305769937523,-0.7163427791192736
14.916427783902977,-0.5948674579027489
14.949797868430725,-0.451027566275164
14.983167952958471,-0.3316327058809023
15.01653803748622,-0.25964871449111293
15.049908122013965,-0.22996156782692878
15.083278206541713,-0.21911461024378812
15.11664829106946,-0.20109377819342375
15.150018375597208,-0.15963583955040084
15.183388460124954,-0.09130834964162349
15.216758544652702,0.00018630096833556018
15.250128629180448,0.1131948083189338
15.283498713708196,0.2543564142061127
15.316868798235943,0.4378538026416026
15.35023888276369,0.6775667940998364
15.383608967291437,0.9754504194033711
15.416979051819185,1.3112330936502623
15.450349136346931,1.6384690361983594
15.48371922087468,1.8902597496592877
15.517089305402425,1.9948436563444185
15.550459389930174,1.8973532402386382
15.58382947445792,1.5806340228088027
15.617199558985668,1.076820624394813
15.650569643513414,0.46362931456125867
15.683939728041162,-0.15517738239760437
15.717309812568908,-0.6790769249878607
15.750679897096656,-1.0391854294336735
15.784049981624403,-1.2151565602562318
15.81742006615215,-1.2348321624578213
15.850790150679897,-1.1582450481241238
15.884160235207645,-1.0537466385826861
15.917530319735391,-0.9761360061385872
15.95090040426314,-0.9541185319301488
15.984270488790886,-0.9890800337444832
16.017640573318634,-1.062100546587023
16.05101065784638,-1.1438326446081328
16.084380742374126,-1.2028785176369639
16.117750826901876,-1.2111518966345218
16.151120911429622,-1.1471389910780663
16.18449099595737,-0.9985291747053459
16.217861080485115,-0.7645879572602186
16.251231165012864,-0.457304966524336
16.28460124954061,-0.10009269666076857
16.317971334068357,0.27616295084260667
16.351341418596103,0.6385285153314901
16.384711503123853,0.9571858082327545
16.4180815876516,1.2091771123705406
16.451451672179346,1.3806373182615206
16.484821756707092,1.4679419191985303
16.51819184123484,1.4777964961135712
16.551561925762588,1.4255452163311435
16.584932010290334,1.3309191534354616
16.61830209481808,1.2116074894522262
16.65167217934583,1.076830161846582
16.685042263873576,0.9241192260791153
16.718412348401323,0.7416247986557561
16.75178243292907,0.5155766105487795
16.78515251745682,0.23959438769515495
16.818522601984565,-0.07869477148653277
16.85189268651231,-0.4168797063207978
16.885262771040058,-0.7428160280492955
16.918632855567807,-1.0226309582292223
16.952002940095554,-1.2280077537093126
16.9853730246233,-1.3405323518303394
17.018743109151046,-1.3532142559296232
17.052113193678796,-1.2706834366198267
17.085483278206542,-1.109159516253722
17.11885336273429,-0.8957484444666456
17.15222344726204,-0.6654977048514908
17.185593531789785,-0.45510832874097534
17.21896361631753,-0.29412712917988715
17.252333700845277,-0.19649146323163497
17.285703785373027,-0.15596066227875852
17.319073869900773,-0.1476720179896015
17.35244395442852,-0.13553598401575606
17.385814038956266,-0.0828772772418335
17.419184123484015,0.037214775934200854
