Frequency (Hz),Amplitude
0.0,3.8357244272235267
0.019801980198019802,3.83424382091674
0.039603960396039604,3.8298044212345053
0.0594059405940594,3.8224134908472367
0.07920792079207921,3.81208315081632
0.09900990099009901,3.7988304058317035
0.1188118811881188,3.7826771801926933
0.13861386138613863,3.7636503651928574
0.15841584158415842,3.7417818787768846
0.1782178217821782,3.717108738558633
0.19801980198019803,3.689673149526817
0.21782178217821782,3.659522608024212
0.2376237623762376,3.6267100238677408
0.25742574257425743,3.5912938627863507
0.27722772277227725,3.5533383116920585
0.297029702970297,3.5129134696701834
0.31683168316831684,3.470095567978977
0.33663366336633666,3.424967222784589
0.3564356435643564,3.3776177248235157
0.37623762376237624,3.3281433706731973
0.39603960396039606,3.2766478408093533
0.4158415841584158,3.2232426301154753
0.43564356435643564,3.1680475369531735
0.45544554455445546,3.1111912172507266
0.4752475247524752,3.0528118102502657
0.495049504950495,2.9930576424667246
0.5148514851485149,2.9320880159071363
0.5346534653465347,2.8700740854737776
0.5544554455445545,2.8071998284537774
0.5742574257425742,2.743663105709339
0.594059405940594,2.6796768091477294
0.613861386138614,2.6154700826505612
0.6336633663366337,2.5512895931289967
0.6534653465346534,2.487400813859064
0.6732673267326733,2.424089262787226
0.6930693069306931,2.36166161316834
0.7128712871287128,2.3004465620744696
0.7326732673267327,2.2407953040265056
0.7524752475247525,2.1830814135305165
0.7722772277227723,2.1276998949869577
0.7920792079207921,2.075065117631884
0.8118811881188118,2.025607327128131
0.8316831683168316,1.979767428721075
0.8514851485148516,1.9379897875543215
0.8712871287128713,1.9007129083458665
0.891089108910891,1.86835805234625
0.9108910891089109,1.8413161236324813
0.9306930693069307,1.8199334854874862
0.9504950495049505,1.8044976982646186
0.9702970297029703,1.795224425109103
0.99009900990099,1.7922468458356717
1.00990099009901,1.7956087881115494
1.0297029702970297,1.8052624168754288
1.0495049504950495,1.8210707742283239
1.0693069306930694,1.8428148479622943
1.0891089108910892,1.8702043048189407
1.108910891089109,1.9028906673540926
1.1287128712871286,1.9404815940897422
1.1485148514851484,1.9825550263047784
1.1683168316831685,2.0286722254965266
1.188118811881188,2.078389057655751
1.2079207920792079,2.1312652073823624
1.227722772277228,2.186871275372874
1.2475247524752475,2.244793904428722
1.2673267326732673,2.304639192075294
1.2871287128712872,2.3660346957758818
1.3069306930693068,2.4286303381961267
1.3267326732673268,2.492098492930202
1.3465346534653466,2.556133489901511
1.3663366336633662,2.620450734341513
1.3861386138613863,2.68478559001027
1.405940594059406,2.748892139360321
1.4257425742574257,2.8125419018679656
1.4455445544554455,2.8755225667486175
1.4653465346534653,2.9376367770838727
1.4851485148514851,2.998700988100511
1.504950495049505,3.058544412004686
1.5247524752475248,3.1170080545095766
1.5445544554455446,3.1739438432588467
1.5643564356435644,3.229213845132415
1.5841584158415842,3.282689567450787
1.6039603960396038,3.3342513370038
1.6237623762376237,3.3837877503498355
1.6435643564356437,3.4311951887576697
1.6633663366336633,3.476377391356728
1.683168316831683,3.519245080413991
1.7029702970297032,3.5597156331024937
1.7227722772277227,3.597712794611991
1.7425742574257426,3.6331664279508797
1.7623762376237624,3.6660122962747526
1.782178217821782,3.696191874041129
1.801980198019802,3.7236521837241003
1.8217821782178218,3.7483456552248513
1.8415841584158414,3.770230005481825
1.8613861386138615,3.7892681361225438
1.881188118811881,3.805428047305456
1.900990099009901,3.818682766181861
1.920792079207921,3.829010288664902
1.9405940594059405,3.8363935334297636
1.9603960396039604,3.840820307289884
1.98019801980198,3.8422832812998835
2.0,3.840779977132462
2.01980198019802,3.836312763465349
2.0396039603960396,3.8288888622982116
2.0594059405940595,3.8185203653033115
2.0792079207920793,3.8052242604978557
2.099009900990099,3.789022469716182
2.118811881188119,3.7699418975568366
2.1386138613861387,3.748014492687995
2.1584158415841586,3.7232773226173053
2.1782178217821784,3.6957726632720425
2.1980198019801978,3.6655481049955276
2.217821782178218,3.6326566768511404
2.237623762376238,3.5971569914361905
2.257425742574257,3.559113412750087
2.2772277227722775,3.5185962500347943
2.297029702970297,3.475681980912832
2.3168316831683167,3.430453507588085
2.336633663366337,3.3830004503431024
2.3564356435643563,3.3334194830594623
2.376237623762376,3.281814715986558
2.3960396039603964,3.228298131473704
2.4158415841584158,3.172990078820437
2.4356435643564356,3.1160198347464245
2.455445544554456,3.0575262361538047
2.4752475247524752,2.9976583917526005
2.495049504950495,2.9365764785866473
2.514851485148515,2.874452628332323
2.5346534653465347,2.811471906159403
2.5544554455445545,2.747833381568101
2.5742574257425743,2.683751285458338
2.594059405940594,2.6194562401231254
2.6138613861386135,2.5551965381234445
2.633663366336634,2.4912394312083013
2.6534653465346536,2.427872370627886
2.673267326732673,2.365404114445644
2.6930693069306932,2.304165585173888
2.712871287128713,2.2445103223162746
2.7326732673267324,2.1868143305714636
2.7524752475247527,2.1314750790115964
2.7722772277227725,2.0789093660539035
2.792079207920792,2.0295497400070954
2.811881188118812,1.9838391702342169
2.8316831683168315,1.9422237177541888
2.8514851485148514,1.9051430749071152
2.8712871287128716,1.8730190442781907
2.891089108910891,1.8462423057339505
2.910891089108911,1.825158151849293
2.9306930693069306,1.8100522019339205
2.9504950495049505,1.8011373544846738
2.9702970297029703,1.7985433218775169
2.99009900990099,1.802309947216412
3.00990099009901,1.8123851227535075
3.0297029702970297,1.8286275724450725
3.0495049504950495,1.8508141456462714
3.0693069306930694,1.8786507323197315
3.089108910891089,1.9117855632384293
3.108910891089109,1.9498235512869027
3.128712871287129,1.9923404437214243
3.148514851485148,2.038895822315219
3.1683168316831685,2.0890443227196345
3.1881188118811883,2.142344770271991
3.2079207920792077,2.198367197062083
3.227722772277228,2.256697893106393
3.2475247524752473,2.3169427540828997
3.267326732673267,2.3787292333496444
3.2871287128712874,2.4417072056425386
3.3069306930693068,2.5055490217486973
3.3267326732673266,2.5699489917580833
3.346534653465347,2.634622489072806
3.366336633663366,2.699304824218925
3.386138613861386,2.763749999760226
3.4059405940594063,2.827729426386934
3.4257425742574257,2.8910306554889607
3.4455445544554455,2.9534561645492157
3.4653465346534653,3.0148222175852024
3.485148514851485,3.0749578126713653
3.504950495049505,3.1337037214211114
3.5247524752475248,3.19091162045332
3.5445544554455446,3.2464433117133615
3.564356435643564,3.300170026592149
3.5841584158415842,3.3519718077277214
3.603960396039604,3.4017369619140836
3.6237623762376234,3.449361577484112
3.6435643564356437,3.494749099734491
3.6633663366336635,3.537809958320816
3.683168316831683,3.5784612409989447
3.702970297029703,3.6166264085780098
3.722772277227723,3.652235046448193
3.7425742574257423,3.685222648533372
3.762376237623762,3.7155304299820937
3.7821782178217824,3.7431051653443275
3.801980198019802,3.7678990493819264
3.8217821782178216,3.789869578029303
3.841584158415842,3.8089794473569754
3.8613861386138613,3.8251964686973365
3.881188118811881,3.8384934983728503
3.9009900990099013,3.848848380723764
3.9207920792079207,3.856243903369423
3.9405940594059405,3.8606677638576494
3.96039603960396,3.8621125470633704
3.98019801980198,3.8605757128942813
4.0,3.8560595940504356
4.01980198019802,3.84857140377015
4.03960396039604,3.8381232536785053
4.0594059405940595,3.8247321820409166
4.079207920792079,3.8084201929153587
4.099009900990099,3.7892143068958433
4.118811881188119,3.767146624350081
4.138613861386139,3.7422544022793063
4.158415841584159,3.714580146170408
4.178217821782178,3.6841717184743756
4.198019801980198,3.6510824656330745
4.217821782178218,3.6153713658918076
4.237623762376238,3.577103200481151
4.257425742574258,3.536348751129895
4.2772277227722775,3.493185027283086
4.297029702970297,3.447695526843991
4.316831683168317,3.3999705347331464
4.336633663366336,3.350107464053899
4.356435643564357,3.2982112451580616
4.376237623762377,3.2443947683958827
4.3960396039603955,3.1887793867757908
4.415841584158416,3.1314954851000234
4.435643564356436,3.072683122305084
4.455445544554455,3.012492753613333
4.475247524752476,2.951086038537684
4.4950495049504955,2.888636739566148
4.514851485148514,2.825331714195314
4.534653465346535,2.76137199949987
4.554455445544555,2.696973983115853
4.574257425742574,2.6323706467446715
4.594059405940594,2.5678128572758516
4.613861386138614,2.5035706654758836
4.633663366336633,2.4399345519309557
4.653465346534653,2.3772165336572275
4.673267326732674,2.3157510119158884
4.693069306930693,2.255895202422796
4.712871287128713,2.198028944799197
4.732673267326733,2.142553642417316
4.752475247524752,2.0898900435488414
4.772277227722772,2.0404745507523714
4.792079207920793,1.9947537528992634
4.811881188118812,1.9531769316069922
4.8316831683168315,1.916186419612913
4.851485148514852,1.88420589505712
4.871287128712871,1.857626979979728
4.891089108910891,1.8367948465629478
4.910891089108912,1.8219938645619431
4.930693069306931,1.813434567689862
4.9504950495049505,1.8112432900188211
4.97029702970297,1.8154556653122127
4.99009900990099,1.826014787443058
5.00990099009901,1.842774263045976
5.02970297029703,1.8655057689077363
5.0495049504950495,1.8939101945332477
5.069306930693069,1.9276311136386397
5.089108910891089,1.9662692332956029
5.108910891089109,2.009396594218535
5.128712871287129,2.0565695701962925
5.148514851485149,2.1073400523547545
5.1683168316831685,2.1612645296435855
5.188118811881188,2.2179110421492063
5.207920792079208,2.276864168613233
5.227722772277227,2.3377283159389024
5.247524752475248,2.40012962111268
5.267326732673268,2.4637167737628043
5.2871287128712865,2.5281610382947366
5.306930693069307,2.593155712218779
5.326732673267327,2.6584152116120072
5.346534653465346,2.723673931510084
5.366336633663367,2.788684991395269
5.3861386138613865,2.85321894489127
5.405940594059405,2.9170625081939066
5.425742574257426,2.980017342960932
5.445544554455446,3.041898915421441
5.465346534653465,3.1025354433879957
5.485148514851486,3.161766935793806
5.504950495049505,3.2194443245950337
5.524752475247524,3.275428685777089
5.544554455445545,3.3295905443169906
5.564356435643565,3.381809256923782
5.584158415841584,3.4319724659400026
5.603960396039604,3.479975617743845
5.623762376237624,3.525721539203388
5.643564356435643,3.569120066101256
5.663366336633663,3.6100877179010546
5.683168316831684,3.6485474137197365
5.702970297029703,3.68442822486936
5.7227722772277225,3.717665159820946
5.742574257425743,3.74819897790683
5.762376237623762,3.7759760285128094
5.782178217821782,3.800948112912508
5.801980198019803,3.8230723662651145
5.821782178217822,3.8423111576341973
5.841584158415841,3.858632006192798
5.861386138613861,3.8720075120607222
5.881188118811881,3.882415300477754
5.900990099009901,3.889837978254435
5.920792079207921,3.8942631016624154
5.9405940594059405,3.895683155134956
5.96039603960396,3.8940955403451305
5.98019801980198,3.889502575420244
6.0,3.881911504237406
6.01980198019802,3.871334515931324
6.03960396039604,3.8577887749332773
6.0594059405940595,3.8412964620534855
6.079207920792079,3.821884827321053
6.099009900990099,3.7995862555087
6.118811881188119,3.774438345497724
6.138613861386139,3.7464840048851236
6.158415841584159,3.7157715615021742
6.178217821782178,3.6823548938072346
6.198019801980198,3.6462935824356504
6.217821782178218,3.607653085541957
6.237623762376237,3.5665049409538363
6.257425742574258,3.522926998576448
6.2772277227722775,3.4770036869375236
6.297029702970296,3.4288263182448855
6.316831683168317,3.3784934368313033
6.336633663366337,3.3261112163716198
6.356435643564356,3.2717939117514434
6.376237623762377,3.2156643719092863
6.396039603960396,3.1578546203106312
6.415841584158415,3.0985065098640727
6.435643564356436,3.037772458944336
6.455445544554456,2.9758162745852017
6.475247524752475,2.912814067629013
6.495049504950495,2.848955262371621
6.514851485148515,2.7844436996262965
6.534653465346534,2.719498826634354
6.554455445544554,2.654356959221887
6.574257425742575,2.589272590247899
6.594059405940594,2.524519702791222
6.6138613861386135,2.4603930256998
6.633663366336634,2.397209142175174
6.653465346534653,2.335307328420634
6.673267326732673,2.2750499592394027
6.693069306930694,2.2168222724275246
6.712871287128713,2.161031237713722
6.732673267326732,2.108103235950649
6.752475247524753,2.05848023146517
6.772277227722772,2.012614130505545
6.792079207920792,1.9709590803691095
6.811881188118813,1.9339615955670997
6.8316831683168315,1.9020486110401864
6.851485148514851,1.8756138539375236
6.871287128712871,1.8550032657954947
6.891089108910891,1.8405005375610644
6.910891089108911,1.8323140586840856
6.930693069306931,1.8305666427431888
6.9504950495049505,1.835289217336834
6.97029702970297,1.8464192541452307
6.99009900990099,1.8638041352990147
7.00990099009901,1.887209028684313
7.02970297029703,1.9163283166749752
7.0495049504950495,1.9507992967888121
7.069306930693069,1.9902167913461422
7.089108910891089,2.034147440578121
7.108910891089109,2.082142737108186
7.128712871287128,2.1337502019009933
7.148514851485149,2.188522428085018
7.1683168316831685,2.246023982310559
7.188118811881187,2.305836334948978
7.207920792079208,2.3675610935760676
7.227722772277228,2.4308218540340913
7.247524752475247,2.495264979073779
7.267326732673268,2.5605595839060986
7.287128712871287,2.6263969648504837
7.306930693069306,2.6924896611882376
7.326732673267327,2.758570297047658
7.346534653465347,2.8243903125394745
7.366336633663366,2.8897186624063873
7.3861386138613865,2.954340536000442
7.405940594059406,3.0180561337290683
7.425742574257425,3.0806795212685905
7.445544554455446,3.14203757286931
7.465346534653466,3.2019690080991134
7.485148514851485,3.2603235216562108
7.504950495049505,3.3169610028319774
7.524752475247524,3.3717508393570403
7.544554455445544,3.4245712993630555
7.564356435643565,3.4753089847762033
7.584158415841584,3.523858349431215
7.603960396039604,3.570121275419127
7.623762376237624,3.614006701557763
7.643564356435643,3.6554302983344993
7.663366336633663,3.6943141841679417
7.683168316831684,3.730586678339829
7.702970297029703,3.764182086439172
7.7227722772277225,3.7950405146284614
7.742574257425743,3.823107709477671
7.762376237623762,3.848334920515134
7.782178217821782,3.8706787830145895
7.801980198019803,3.89010121887564
7.821782178217822,3.906569353763782
7.841584158415841,3.920055448958253
7.861386138613862,3.930536846615288
7.881188118811881,3.9379959273930942
7.900990099009901,3.942420079608007
7.92079207920792,3.943801679300196
7.9405940594059405,3.9421380807869206
7.96039603960396,3.9374316174740205
7.980198019801979,3.9296896128851317
8.0,3.918924402056545
8.01980198019802,3.9051533636364137
8.03960396039604,3.8883989632235525
8.05940594059406,3.8686888086862763
8.07920792079208,3.8460557184190796
8.099009900990099,3.8205378037273143
8.118811881188119,3.792178566781746
8.138613861386139,3.7610270158581054
8.158415841584159,3.7271377998758113
8.178217821782178,3.690571364577969
8.198019801980198,3.6513941330540467
8.217821782178218,3.609678713699765
8.237623762376238,3.5655041391367
8.257425742574258,3.5189561400748612
8.277227722772277,3.4701274585933004
8.297029702970297,3.41911820582536
8.316831683168317,3.366036269553929
8.336633663366337,3.310997777722765
8.356435643564357,3.2541276243145414
8.376237623762377,3.195560064379886
8.396039603960396,3.135439385140531
8.415841584158416,3.073920659918311
8.435643564356436,3.0111705909942907
8.455445544554456,2.9473684461520686
8.475247524752476,2.882707091300082
8.495049504950495,2.8173941177876793
8.514851485148515,2.7516530573010805
8.534653465346535,2.685724668874443
8.554455445544555,2.6198682707635212
8.574257425742575,2.554363073764977
8.594059405940595,2.4895094510249134
8.613861386138613,2.4256300515647493
8.633663366336634,2.3630706301186364
8.653465346534654,2.3022004246999925
8.673267326732672,2.2434118673401624
8.693069306930694,2.1871193667727904
8.712871287128714,2.1337568619369867
8.732673267326732,2.083773823730445
8.752475247524753,2.0376293955579245
8.772277227722773,1.9957844301002763
8.792079207920791,1.9586913189453388
8.811881188118813,1.9267817344262288
8.831683168316832,1.9004527036271357
8.85148514851485,1.880051781569234
8.871287128712872,1.8658624226412517
8.891089108910892,1.8580908819540463
8.91089108910891,1.8568560253020856
8.930693069306932,1.8621832316558127
8.950495049504951,1.8740031392825063
8.97029702970297,1.8921553906334814
8.990099009900991,1.9163969006935562
9.00990099009901,1.9464136489495885
9.029702970297029,1.9818346810598564
9.04950495049505,2.0222469406919408
9.06930693069307,2.0672097044179845
9.089108910891088,2.116267687130824
9.10891089108911,2.168962233610188
9.12871287128713,2.2248403396200263
9.148514851485148,2.2834615074934055
9.16831683168317,2.344402619569742
9.188118811881187,2.4072611124121472
9.207920792079207,2.4716567714114177
9.227722772277229,2.537232458632955
9.247524752475247,2.603654054384171
9.267326732673267,2.6706098487661736
9.287128712871288,2.7378095728021377
9.306930693069306,2.8049832151820477
9.326732673267326,2.871879732984691
9.346534653465348,2.938265733823582
9.366336633663366,3.00392418250621
9.386138613861386,3.0686531667344115
9.405940594059407,3.1322647426400443
9.425742574257425,3.1945838710734002
9.445544554455445,3.2554474486670673
9.465346534653467,3.314703433049756
9.485148514851485,3.372210058589322
9.504950495049505,3.4278351372389215
9.524752475247526,3.4814554380940863
9.544554455445544,3.5329561388768873
9.564356435643564,3.5822303425577546
9.584158415841586,3.629178652564669
9.603960396039604,3.6737088004182565
9.623762376237623,3.7157353201012535
9.643564356435645,3.755179263975884
9.663366336633663,3.7919679555731305
9.683168316831683,3.826034775074635
9.702970297029704,3.8573189737786855
9.722772277227723,3.885765514282585
9.742574257425742,3.911324933519342
9.762376237623764,3.933953226159979
9.782178217821782,3.9536117462330336
9.801980198019802,3.97026712512448
9.821782178217823,3.9838912044053933
9.841584158415841,3.9944609821962804
9.861386138613861,4.0019585720183075
9.881188118811881,4.006371173306717
9.900990099009901,4.007691052973375
9.92079207920792,4.0059155376077005
9.94059405940594,4.001047016100416
9.96039603960396,3.993092952666712
9.98019801980198,3.982065910437092
10.0,3.9679835859788057
10.01980198019802,3.950868855311322
10.03960396039604,3.930749832189336
10.05940594059406,3.9076599396491405
10.07920792079208,3.8816379960529015
10.099009900990099,3.8527283171229145
10.118811881188119,3.8209808357392236
10.138613861386139,3.7864512415808367
10.158415841584159,3.74920114302809
10.178217821782178,3.7092982541127784
10.198019801980198,3.666816609707178
10.217821782178218,3.6218368125823655
10.237623762376238,3.5744463164404303
10.257425742574258,3.5247397495286203
10.277227722772277,3.4728192839687617
10.297029702970297,3.418795056465048
10.316831683168317,3.362785646563173
10.336633663366337,3.3049186190835678
10.356435643564357,3.245331137682044
10.376237623762377,3.18417065661732
10.396039603960396,3.1215956976025163
10.415841584158416,3.0577767179155595
10.435643564356436,2.9928970745042722
10.455445544554454,2.927154086323641
10.475247524752476,2.8607601931598445
10.495049504950495,2.7939442031742416
10.514851485148514,2.726952612644164
10.534653465346535,2.660050969040639
10.554455445544555,2.5935252316974426
10.574257425742573,2.527683061872134
10.594059405940595,2.4628549450688424
10.613861386138614,2.3993950125783647
10.633663366336632,2.337681386656681
10.653465346534654,2.278115826543794
10.673267326732674,2.221122405038936
10.693069306930692,2.167144905532269
10.712871287128714,2.11664260955191
10.732673267326733,2.0700841617975354
10.752475247524751,2.0279392730601886
