Frequency (Hz),Amplitude
0.0,0.30138597745556384
0.019867549668874173,0.30176648889974944
0.039735099337748346,0.30290370749937556
0.059602649006622516,0.3047848522827628
0.07947019867549669,0.3073891601942406
0.09933774834437085,0.3106886421875855
0.11920529801324503,0.31464904691466355
0.13907284768211922,0.3192309551822832
0.15894039735099338,0.3243909272597766
0.17880794701986755,0.33008263291693574
0.1986754966887417,0.33625790793931676
0.2185430463576159,0.34286769758270286
0.23841059602649006,0.34986286411935225
0.2582781456953642,0.3571948502395404
0.27814569536423844,0.3648162014807665
0.2980132450331126,0.3726809587625308
0.31788079470198677,0.3807449367809162
0.33774834437086093,0.3889659060575498
0.3576158940397351,0.39730369654069747
0.3774834437086093,0.40572023948432745
0.3973509933774834,0.41417956243553256
0.4172185430463576,0.4226477499544382
0.4370860927152318,0.43109288045815225
0.45695364238410596,0.4394849474955764
0.4768211920529801,0.4477957719161484
0.49668874172185434,0.4559989098284321
0.5165562913907285,0.46406955995405935
0.5364238410596026,0.4719844729461279
0.5562913907284769,0.47972186442857495
0.5761589403973509,0.48726133288837803
0.5960264900662252,0.49458378308228945
0.6158940397350993,0.5016713552734517
0.6357615894039735,0.5085073603645887
0.6556291390728477,0.5150762208205967
0.6754966887417219,0.5213634171574202
0.695364238410596,0.527355439700814
0.7152317880794702,0.5330397452769821
0.7350993377483444,0.5384047184788656
0.7549668874172186,0.5434396371493996
0.7748344370860927,0.5481346417324936
0.7947019867549668,0.5524807081589977
0.8145695364238411,0.5564696239567583
0.8344370860927152,0.560093967297918
0.8543046357615894,0.5633470887229052
0.8741721854304636,0.5662230953064644
0.8940397350993378,0.5687168370575847
0.9139072847682119,0.570823895370523
0.9337748344370861,0.5725405733691092
0.9536423841059603,0.573863888010211
0.9735099337748344,0.5747915638355056
0.9933774834437087,0.5753220282825537
1.0132450331125828,0.575454408488
1.033112582781457,0.5751885295361551
1.0529801324503312,0.5745249141270475
1.0728476821192052,0.5734647836578836
1.0927152317880795,0.5720100607321732
1.1125827814569538,0.570163373130815
1.1324503311258278,0.5679280593000328
1.1523178807947019,0.5653081754318015
1.1721854304635762,0.5623085042340012
1.1920529801324504,0.5589345655096845
1.2119205298013245,0.5551926286876334
1.2317880794701985,0.551089727470303
1.2516556291390728,0.5466336767895447
1.271523178807947,0.5418330922854546
1.2913907284768211,0.536697412548982
1.3112582781456954,0.5312369243937104
1.3311258278145695,0.5254627914460016
1.3509933774834437,0.5193870863639215
1.370860927152318,0.5130228270129767
1.390728476821192,0.5063840169373149
1.410596026490066,0.49948569046662156
1.4304635761589404,0.4923439627862877
1.4503311258278146,0.4849760852661272
1.4701986754966887,0.47740050628357994
1.4900662251655628,0.46963693768103076
1.5099337748344372,0.4617064268510195
1.5298013245033113,0.4536314342327323
1.5496688741721854,0.4454359157079761
1.5695364238410596,0.4371454089826446
1.5894039735099337,0.4287871225023474
1.609271523178808,0.4203900247485216
1.6291390728476822,0.4119849308610361
1.6490066225165563,0.4036045824041426
1.6688741721854303,0.3952837147104938
1.6887417218543048,0.38705910459280174
1.7086092715231789,0.3789695893239431
1.728476821192053,0.3710560457157482
1.7483443708609272,0.3633613160048355
1.7682119205298013,0.3559300652984933
1.7880794701986755,0.3488085538791244
1.8079470198675496,0.342044307169938
1.8278145695364238,0.33568566720489207
1.847682119205298,0.3297812126701336
1.8675496688741722,0.3243790406095084
1.8874172185430464,0.31952591213251497
1.9072847682119205,0.31526627693035414
1.9271523178807946,0.31164120643515403
1.9470198675496688,0.3086872815576493
1.9668874172185429,0.30643549577513096
1.9867549668874174,0.3049102450037487
2.0066225165562916,0.3041284792601861
2.0264900662251657,0.30409908546402054
2.0463576158940397,0.3048225552916038
2.066225165562914,0.30629096824465313
2.086092715231788,0.3084882914626686
2.1059602649006623,0.311390968925118
2.1258278145695364,0.31496874825491916
2.1456953642384105,0.3191856769384702
2.165562913907285,0.324001193111459
2.185430463576159,0.32937123875752977
2.205298013245033,0.33524933322265466
2.2251655629139075,0.34158755948814407
2.2450331125827816,0.3483374317271256
2.2649006622516556,0.3554506278852468
2.2847682119205297,0.3628795837938775
2.3046357615894038,0.37057795490650924
2.324503311258278,0.3785009580895082
2.3443708609271523,0.3866056093842195
2.364238410596027,0.3948508748933845
2.384105960264901,0.4031977515816474
2.403973509933775,0.4116092934030931
2.423841059602649,0.42005059625113295
2.443708609271523,0.42848875311175727
2.463576158940397,0.4368927887208322
2.4834437086092715,0.44523358111657413
2.5033112582781456,0.45348377580839316
2.52317880794702,0.46161769687550147
2.543046357615894,0.46961125815491384
2.562913907284768,0.4774418767571507
2.5827814569536423,0.48508839042652974
2.6026490066225163,0.4925309797108013
2.622516556291391,0.4997510954897461
2.642384105960265,0.5067313921077129
2.662251655629139,0.5134556661364945
2.6821192052980134,0.5199088006434002
2.7019867549668874,0.5260767147384353
2.7218543046357615,0.5319463181115603
2.741721854304636,0.5375054702364108
2.76158940397351,0.5427429439022325
2.781456953642384,0.5476483927359342
2.801324503311258,0.5522123223860543
2.821192052980132,0.5564260650572597
2.8410596026490067,0.5602817571047813
2.8609271523178808,0.5637723194217186
2.8807947019867552,0.5668914403768189
2.9006622516556293,0.569633561085277
2.9205298013245033,0.5719938628202371
2.9403973509933774,0.5739682563967149
2.9602649006622515,0.5755533733835337
2.9801324503311255,0.5767465590216191
3.0,0.5775458667489054
3.0198675496688745,0.5779500542536057
3.0397350993377485,0.5779585809979185
3.0596026490066226,0.5775716071746583
3.0794701986754967,0.5767899940788572
3.0993377483443707,0.5756153058958022
3.119205298013245,0.5740498129267714
3.1390728476821192,0.5720964962927808
3.1589403973509933,0.5697590541767448
3.1788079470198674,0.5670419096844668
3.198675496688742,0.5639502204251458
3.218543046357616,0.5604898899334402
3.23841059602649,0.5566675810762979
3.2582781456953644,0.5524907316097356
3.2781456953642385,0.5479675720729554
3.2980132450331126,0.5431071462288555
3.3178807947019866,0.537919334281813
3.3377483443708607,0.5324148791231608
3.3576158940397347,0.5266054158727348
3.3774834437086096,0.5205035049981847
3.3973509933774837,0.5141226693013993
3.4172185430463577,0.5074774350600564
3.437086092715232,0.5005833775982966
3.456953642384106,0.4934571715291675
3.47682119205298,0.486116645856005
3.4966887417218544,0.4785808440324531
3.5165562913907285,0.47087008895087606
3.5364238410596025,0.4630060526433931
3.556291390728477,0.45501183022303066
3.576158940397351,0.44691201724541557
3.596026490066225,0.4387327892121209
3.615894039735099,0.4305019813399857
3.6357615894039736,0.42224916596136575
3.6556291390728477,0.4140057239721466
3.6754966887417218,0.40580490558854854
3.695364238410596,0.397681874301042
3.7152317880794703,0.3896737263373288
3.7350993377483444,0.3818194762115701
3.754966887417219,0.3741599971403871
3.774834437086093,0.36673790341115503
3.794701986754967,0.35959736044565493
3.814569536423841,0.35278380766024175
3.834437086092715,0.3463435797283965
3.854304635761589,0.34032341401592864
3.8741721854304636,0.3347698362994622
3.8940397350993377,0.3297284237999069
3.9139072847682117,0.3252429541970616
3.9337748344370858,0.32135446131697254
3.9536423841059607,0.31810023165794565
3.9735099337748347,0.3155127892215236
3.993377483443709,0.313618927044707
4.013245033112583,0.3124388499643493
4.033112582781457,0.31198549237534656
4.052980132450331,0.31226406591848493
4.072847682119205,0.3132718754660373
4.0927152317880795,0.3149984194183989
4.112582781456953,0.31742576547174445
4.132450331125828,0.320529169554561
4.152317880794702,0.3242778871125994
4.172185430463576,0.3286361147399796
4.19205298013245,0.3335639971017808
4.211920529801325,0.33901863840040897
4.231788079470199,0.3449550674105293
4.251655629139073,0.3513271179495709
4.271523178807947,0.35808820025748594
4.291390728476821,0.36519195132047866
4.311258278145695,0.3725927625521019
4.33112582781457,0.3802461909524683
4.3509933774834435,0.38810926492197956
4.370860927152318,0.3961406986536294
4.390728476821192,0.4043010299636865
4.410596026490066,0.41255269606730083
4.43046357615894,0.4208600606314269
4.450331125827815,0.4291894038204596
4.470198675496689,0.4375088852669034
4.490066225165563,0.44578848813863453
4.509933774834438,0.45399995084832556
4.529801324503311,0.46211669151919355
4.549668874172186,0.4701137291041474
4.569536423841059,0.4779676040504903
4.589403973509934,0.48565630059114073
4.6092715231788075,0.4931591721028666
4.629139072847682,0.5004568704755964
4.649006622516556,0.5075312800597435
4.66887417218543,0.5143654564776381
4.688741721854305,0.5209435703804934
4.708609271523179,0.5272508560875869
4.728476821192054,0.5332735649455516
4.748344370860927,0.5389989231814029
4.768211920529802,0.5444150939852459
4.788079470198675,0.5495111435398825
4.80794701986755,0.5542770107095057
4.827814569536423,0.5587034801049996
4.847682119205298,0.562782158255094
4.867549668874172,0.5665054526288911
4.887417218543046,0.5698665532745489
4.9072847682119205,0.5728594168598071
4.927152317880794,0.5754787529214476
4.947019867549669,0.5777200121527597
4.966887417218543,0.5795793765796113
4.986754966887418,0.581053751496944
5.006622516556291,0.5821407590582587
5.026490066225166,0.5828387334305758
5.04635761589404,0.5831467174472462
5.066225165562914,0.5830644607095511
5.086092715231788,0.5825924191072335
5.105960264900662,0.5817317557459408
5.125827814569536,0.5804843432878819
5.14569536423841,0.5788527677301817
5.1655629139072845,0.5768403336628903
5.185430463576159,0.5744510710672283
5.205298013245033,0.5716897437324051
5.225165562913908,0.5685618593876427
5.245033112582782,0.5650736816645536
5.264900662251656,0.5612322440230808
5.28476821192053,0.5570453657922745
5.304635761589404,0.5525216704945627
5.324503311258278,0.5476706066384552
5.344370860927152,0.5425024711789348
5.364238410596027,0.5370284358564884
5.3841059602649,0.5312605766328041
5.403973509933775,0.5252119064425256
5.4238410596026485,0.518896411472941
5.443708609271523,0.5123290911645011
5.463576158940397,0.505526002090033
5.483443708609272,0.4985043058142966
5.503311258278146,0.49128232075214306
5.52317880794702,0.4838795779230448
5.543046357615895,0.4763168803345836
5.562913907284768,0.46861636550291724
5.582781456953643,0.4608015703218111
5.602649006622516,0.45289749710678523
5.622516556291391,0.44493067914885426
5.642384105960264,0.4369292434963823
5.662251655629139,0.42892296792586215
5.682119205298013,0.4209433281507127
5.701986754966887,0.4130235302491184
5.7218543046357615,0.40519852207809137
5.741721854304636,0.39750497611875685
5.7615894039735105,0.3899812348379556
5.781456953642384,0.38266720837074764
5.801324503311259,0.3756042133048016
5.821192052980132,0.3688347408216321
5.841059602649007,0.3624021427310127
5.860927152317881,0.3563502253779392
5.880794701986755,0.3507227443749412
5.900662251655629,0.3455627979198454
5.920529801324503,0.340912123250272
5.940397350993377,0.33681030943162477
5.960264900662251,0.33329394965600856
5.980132450331126,0.3303957665696136
6.0,0.3281437534371073
6.0198675496688745,0.3265603805176523
6.039735099337749,0.3256619182272502
6.059602649006623,0.3254579252936205
6.079470198675497,0.3259509408028207
6.099337748344371,0.32713640450073084
6.119205298013245,0.3290028117267511
6.139072847682119,0.331532090449843
6.158940397350993,0.3347001707834884
6.178807947019867,0.33847770440766894
6.198675496688741,0.34283088396364236
6.218543046357616,0.3477223110493801
6.23841059602649,0.35311186524479793
6.258278145695365,0.3589575342428034
6.2781456953642385,0.36521617496237974
6.298013245033113,0.3718441858612281
6.317880794701987,0.3787980802746358
6.337748344370861,0.38603495866357856
6.357615894039735,0.3935128837804762
6.377483443708609,0.40119116693142787
6.397350993377484,0.4090305759424395
6.417218543046357,0.4169934764578704
6.437086092715232,0.42504391818050163
6.456953642384105,0.43314767694676704
6.47682119205298,0.44127226240474926
6.496688741721854,0.44938689974493384
6.516556291390729,0.4574624925808861
6.5364238410596025,0.46547157278922674
6.556291390728477,0.4733882419536079
6.5761589403973515,0.4811881080431834
6.596026490066225,0.4888482200986561
6.6158940397351,0.4963470029910389
6.635761589403973,0.5036641937464577
6.655629139072848,0.5107807804763432
6.675496688741721,0.5176789445987376
6.695364238410596,0.5243420067657896
6.715231788079469,0.5307543767089965
6.735099337748344,0.5369015070643463
6.754966887417219,0.542769851132211
6.774834437086093,0.5483468244530878
6.794701986754967,0.5536207700311492
6.814569536423841,0.5585809270083308
6.8344370860927155,0.5632174025765176
6.854304635761589,0.5675211469105519
6.874172185430464,0.5714839309082703
6.894039735099337,0.5750983265318236
6.913907284768212,0.5783576895572007
6.933774834437086,0.5812561445530802
6.95364238410596,0.5837885719268266
6.973509933774834,0.5859505968920814
6.993377483443709,0.5877385802302894
7.013245033112583,0.5891496107358177
7.033112582781457,0.5901814992519014
7.052980132450331,0.590832774221922
7.072847682119205,0.5911026786973064
7.0927152317880795,0.5909911687601642
7.112582781456954,0.5904989133349985
7.132450331125828,0.5896272953797629
7.152317880794702,0.5883784144626695
7.172185430463576,0.5867550907463065
7.19205298013245,0.5847608704163946
7.211920529801324,0.5824000326073987
7.231788079470198,0.5796775978923425
7.251655629139073,0.5765993384184289
7.271523178807947,0.573171789784403
7.291390728476822,0.5694022647685494
7.311258278145695,0.5652988690285528
7.33112582781457,0.560870518904663
7.3509933774834435,0.5561269614659309
7.370860927152318,0.5510787969440271
7.390728476821192,0.5457375036995791
7.410596026490066,0.540115465860164
7.430463576158941,0.5342260037555356
7.450331125827814,0.528083407250965
7.470198675496689,0.5217029720413259
7.490066225165562,0.5151010389120607
7.509933774834438,0.5082950358939834
7.52980132450331,0.5013035231301356
7.549668874172186,0.49414624012880726
7.569536423841059,0.48684415488711097
7.589403973509934,0.4794195141263729
7.6092715231788075,0.47189589357212525
7.629139072847682,0.4642982468274821
7.649006622516557,0.45665295091780705
7.66887417218543,0.4489878460183483
7.6887417218543055,0.4413322662090378
7.708609271523178,0.43371705733397625
7.728476821192054,0.4261745771887649
7.748344370860927,0.4187386723455998
7.768211920529802,0.4114446250030072
7.788079470198675,0.40432906239407523
7.80794701986755,0.397429820616659
7.827814569536423,0.3907857544139698
7.847682119205298,0.38443648462410035
7.8675496688741715,0.3784220759500613
7.887417218543046,0.3727826396036426
7.907284768211921,0.36755785844122213
7.927152317880795,0.3627864365520206
7.9470198675496695,0.3585054808462993
7.966887417218543,0.3547498287790196
7.986754966887418,0.3515513434331807
8.006622516556291,0.34893820400746817
8.026490066225167,0.3469342253331999
8.046357615894038,0.34555824333498253
8.066225165562914,0.3448236034280765
8.086092715231787,0.34473778514520126
8.105960264900663,0.34530218879259755
8.125827814569536,0.3465120992817669
8.14569536423841,0.34835682969376736
8.165562913907285,0.35082003421407565
8.185430463576159,0.35388016850009324
8.205298013245034,0.35751106671477606
8.225165562913906,0.36168259925366014
8.245033112582782,0.36636137384077133
8.264900662251655,0.3715114447988351
8.28476821192053,0.3770950001006476
8.304635761589404,0.38307300225678065
8.324503311258278,0.38940576616875056
8.344370860927151,0.3960534639200833
8.364238410596027,0.4029765524845508
8.3841059602649,0.41013612516296244
8.403973509933774,0.41749419110988495
8.42384105960265,0.42501388964432246
8.443708609271523,0.4326596473236802
8.463576158940398,0.4403972862161501
8.483443708609272,0.4481940916562382
8.503311258278146,0.4560188472135803
8.52317880794702,0.46384184381303023
8.543046357615895,0.4716348690424914
8.562913907284768,0.4793711817650505
8.582781456953642,0.48702547627437165
8.602649006622515,0.4945738394324678
8.62251655629139,0.5019937035250712
8.642384105960264,0.5092637969662451
8.66225165562914,0.5163640944784348
8.682119205298013,0.5232757679585015
8.701986754966887,0.5299811389044812
8.721854304635762,0.5364636330106979
8.741721854304636,0.542707737329931
8.76158940397351,0.5486989602403772
8.781456953642383,0.554423794333415
8.801324503311259,0.559869682248032
8.821192052980132,0.5650249854128664
8.841059602649008,0.5698789556113844
8.86092715231788,0.5744217092560405
8.880794701986755,0.5786442042389954
8.90066225165563,0.5825382192179838
8.920529801324504,0.5860963351936823
8.940397350993377,0.5893119192372743
8.960264900662251,0.5921791102337166
8.980132450331126,0.5946928065145017
9.0,0.5968486552647139
9.019867549668875,0.5986430436011005
9.039735099337747,0.6000730912301393
9.059602649006623,0.6011366446084818
9.079470198675496,0.6018322725411158
9.099337748344372,0.6021592631660546
9.119205298013245,0.6021176222873817
9.139072847682119,0.6017080730315999
9.158940397350994,0.6009320568150083
9.178807947019868,0.599791735622227
9.198675496688743,0.5982899956082981
9.218543046357615,0.5964304520484125
9.23841059602649,0.5942174556703841
9.258278145695364,0.5916561004159303
9.27814569536424,0.588752232685853
9.298013245033111,0.5855124621334088
9.317880794701987,0.5819441740765731
9.33774834437086,0.5780555436056511
9.357615894039736,0.5738555514645411
9.37748344370861,0.5693540017839965
9.397350993377483,0.564561541739373
9.417218543046358,0.5594896831953688
9.437086092715232,0.5541508263822497
9.456953642384107,0.5485582856214923
9.47682119205298,0.5427263170807098
9.496688741721854,0.5366701484858225
9.516556291390728,0.530406010648411
9.536423841059603,0.5239511705756542
9.556291390728477,0.5173239658128632
9.57615894039735,0.5105438395207113
9.596026490066224,0.5036313756044161
9.6158940397351,0.49660833298443535
9.635761589403973,0.48949767782273046
9.655629139072847,0.4823236121889018
9.675496688741722,0.4751115972638321
9.695364238410596,0.46788836873387546
9.715231788079471,0.4606819415291113
9.735099337748345,0.4535216005155801
9.754966887417218,0.44643787318269584
9.774834437086092,0.439462479804458
9.794701986754967,0.4326282560442578
9.814569536423841,0.42596904258219304
9.834437086092716,0.4195195361553829
9.854304635761588,0.4133150965198549
9.874172185430464,0.40739150438274974
9.894039735099337,0.4017846664397096
9.913907284768213,0.3965302653920986
9.933774834437086,0.39166335528691953
9.95364238410596,0.387217905728858
9.973509933774835,0.3832263023702116
9.993377483443709,0.37971881538364743
10.013245033112582,0.3767230520170222
10.033112582781456,0.37426341335079727
10.052980132450331,0.3723605784723089
10.072847682119205,0.37103104088878947
10.09271523178808,0.3702867216567615
10.112582781456952,0.37013468114643405
10.132450331125828,0.37057694661339197
10.152317880794701,0.37161046617104726
10.172185430463577,0.37322719200131904
10.192052980132452,0.3754142875663402
10.211920529801324,0.37815444610316096
10.2317880794702,0.3814263016070979
10.251655629139073,0.385204909406345
10.271523178807948,0.3894622715556555
10.29139072847682,0.39416788256079566
10.311258278145695,0.3992892730531143
10.331125827814569,0.40479253246036745
10.350993377483444,0.4106427958984619
10.370860927152318,0.41680468490759665
10.390728476821192,0.4232426958399552
10.410596026490065,0.4299215333730659
10.43046357615894,0.436806389602863
10.450331125827816,0.4438631714097677
10.470198675496688,0.45105868032169827
10.490066225165563,0.4583607500065581
10.509933774834437,0.4657383469292976
10.529801324503312,0.4731616397251453
10.549668874172186,0.48060204258531347
10.56953642384106,0.4880322375213981
10.589403973509933,0.4954261798476237
