Time (s),Filtered Signal
0.0,0.028556954921929344
0.03337008452774715,0.04089037220740933
0.0667401690554943,0.05296614696114159
0.10011025358324147,0.06438594760399484
0.1334803381109886,0.0740835121311924
0.16685042263873576,0.08034897728815053
0.20022050716648293,0.08114168285209067
0.23359059169423008,0.07462179860376685
0.2669606762219772,0.05977118957209211
0.30033076074972437,0.03692832369603697
0.3337008452774715,0.008041854247275966
0.36707092980521866,-0.023510867082827874
0.40044101433296586,-0.053556687494837926
0.433811098860713,-0.07800746649917174
0.46718118338846015,-0.09358234620566407
0.5005512679162073,-0.09794701206406634
0.5339213524439544,-0.08914240827124977
0.5672914369717016,-0.06473186374888523
0.6006615214994487,-0.02160090185028198
0.6340316060271959,0.042656819319274314
0.667401690554943,0.12663512048259948
0.7007717750826902,0.221543898998272
0.7341418596104373,0.3095652546738319
0.7675119441381845,0.3664132312107845
0.8008820286659317,0.36855051858033694
0.8342521131936789,0.3027065879169465
0.867622197721426,0.17322905602043306
0.9009922822491732,0.0029981538081093723
0.9343623667769203,-0.17352082877417405
0.9677324513046675,-0.322420197965387
1.0011025358324146,-0.42206781613808986
1.0344726203601617,-0.46882594238761455
1.0678427048879089,-0.4743333815050156
1.101212789415656,-0.45636566399859335
1.1345828739434032,-0.4285081374818036
1.1679529584711503,-0.3940986423539606
1.2013230429988975,-0.3471384699815541
1.2346931275266446,-0.2788230525644421
1.2680632120543918,-0.18532180515258773
1.301433296582139,-0.0720744166811687
1.334803381109886,0.04774072166800682
1.3681734656376332,0.15924895930212546
1.4015435501653803,0.2524012071785221
1.4349136346931275,0.3248504547408607
1.4682837192208746,0.37965468724302204
1.5016538037486218,0.4198744193284571
1.535023888276369,0.4442831492739876
1.568393972804116,0.4475553582407351
1.6017640573318634,0.4249596284779217
1.6351341418596106,0.37811854863823086
1.6685042263873577,0.31733517617534696
1.7018743109151049,0.25816249243891737
1.735244395442852,0.21381574723672098
1.7686144799705992,0.1879891850239698
1.8019845644983463,0.17265116441430417
1.8353546490260935,0.15247856778324284
1.8687247335538406,0.11361026689534881
1.9020948180815878,0.05174751598084548
1.935464902609335,-0.02517083099643514
1.968834987137082,-0.10153101533893592
2.002205071664829,-0.16351709243706117
2.0355751561925763,-0.2081095103357643
2.0689452407203235,-0.24606753263824455
2.1023153252480706,-0.2964235637912885
2.1356854097758178,-0.3748054877389973
2.169055494303565,-0.4817562047314162
2.202425578831312,-0.5978328817505648
2.235795663359059,-0.6890914808448615
2.2691657478868064,-0.7211931874078034
2.3025358324145535,-0.6756562126952155
2.3359059169423007,-0.5602081186971009
2.369276001470048,-0.4075969406451279
2.402646085997795,-0.2624585322236305
2.436016170525542,-0.16149582109323368
2.4693862550532892,-0.11573834899438495
2.5027563395810364,-0.10335680301161058
2.5361264241087835,-0.07731960795980022
2.5694965086365307,0.014288554789360289
2.602866593164278,0.20342742154185847
2.636236677692025,0.48353133406255505
2.669606762219772,0.805877880677395
2.7029768467475193,1.093416371915633
2.7363469312752664,1.2671097910585165
2.7697170158030135,1.2744334316499748
2.8030871003307607,1.108730524616597
2.836457184858508,0.8119703925626289
2.869827269386255,0.4602441709260526
2.903197353914002,0.13802041413016505
2.9365674384417493,-0.0889941572317986
2.9699375229694964,-0.19282660821812123
3.0033076074972436,-0.18823122220369853
3.0366776920249907,-0.12320317795375035
3.070047776552738,-0.05929265219745962
3.103417861080485,-0.04886027220797688
3.136787945608232,-0.11689895085364917
3.1701580301359793,-0.2533524394569186
3.203528114663727,-0.4184845199872463
3.236898199191474,-0.5595169346639743
3.270268283719221,-0.6325593589015123
3.3036383682469683,-0.6212855726616603
3.3370084527747155,-0.5442840379817638
3.3703785373024626,-0.44705138013721113
3.4037486218302098,-0.3811167785520819
3.437118706357957,-0.37909683877601813
3.470488790885704,-0.4373449401445298
3.503858875413451,-0.5152294024022153
3.5372289599411983,-0.5525619027724072
3.5705990444689455,-0.4977048609223581
3.6039691289966926,-0.33305799596239405
3.63733921352444,-0.08532078364547804
3.670709298052187,0.18482589781874983
3.704079382579934,0.4087606864820989
3.7374494671076812,0.5389954324004435
3.7708195516354284,0.5672943933390519
3.8041896361631755,0.5236899105467339
3.8375597206909227,0.45798295156023155
3.87092980521867,0.4137878970469554
3.904299889746417,0.4081705743389826
3.937669974274164,0.42631130440363485
3.9710400588019112,0.4326723667914316
4.004410143329658,0.39206486988074074
4.0377802278574055,0.28966956572732794
4.071150312385153,0.1402097946896458
4.1045203969129,-0.017843503055841724
4.137890481440647,-0.13983376843329498
4.171260565968394,-0.19550155977111094
4.204630650496141,-0.18255448963827797
4.238000735023888,-0.12671743093590218
4.2713708195516356,-0.06845319805785004
4.304740904079383,-0.043181891018749155
4.33811098860713,-0.06502797470136056
4.371481073134877,-0.12210601577737304
4.404851157662624,-0.18506755797143062
4.438221242190371,-0.2234630741824739
4.471591326718118,-0.22046858777495185
4.504961411245866,-0.1780169471425137
4.538331495773613,-0.11047969057266653
4.57170158030136,-0.0320906375937077
4.605071664829107,0.05301117417970393
4.638441749356854,0.15119665459181814
4.671811833884601,0.2697031996889886
4.7051819184123485,0.4032785343722215
4.738552002940096,0.5264364853428685
4.771922087467843,0.5977954172798923
4.80529217199559,0.5759668847610764
4.838662256523337,0.4395213214460098
4.872032341051084,0.2007425991783917
4.905402425578831,-0.09430846438867313
4.9387725101065785,-0.3801931081563158
4.972142594634326,-0.5947961548626076
5.005512679162073,-0.7004952581223322
5.03888276368982,-0.6950885787540824
5.072252848217567,-0.6087654787517237
5.105622932745314,-0.48958545657222463
5.138993017273061,-0.38435734413866113
5.1723631018008085,-0.3227363738870181
5.205733186328556,-0.30991191397022044
5.239103270856303,-0.3290971729340501
5.27247335538405,-0.35125099869717774
5.305843439911797,-0.347485045579228
5.339213524439544,-0.29966782708128364
5.372583608967291,-0.20613571069301376
5.4059536934950385,-0.08125559926320901
5.439323778022786,0.05067582001333288
5.472693862550533,0.16516157368223455
5.50606394707828,0.24752775821454015
5.539434031606027,0.2992860129651542
5.572804116133774,0.337659706204526
5.606174200661521,0.3876191684962966
5.6395442851892685,0.4692918632938716
5.672914369717016,0.5863450598670914
5.706284454244763,0.7210800644025238
5.73965453877251,0.8390621014613474
5.773024623300257,0.9015482167175833
5.806394707828004,0.8802459012529957
5.839764792355751,0.7679998792127345
5.873134876883499,0.581140367412884
5.906504961411246,0.35306773710209105
5.939875045938993,0.12223446384963917
5.97324513046674,-0.08040626387357871
6.006615214994487,-0.23960600275273963
6.039985299522234,-0.35675070673406967
6.073355384049981,-0.4435921727682032
6.106725468577729,-0.5119817955536111
6.140095553105476,-0.564837926155778
6.173465637633223,-0.593342270604336
6.20683572216097,-0.582465327718687
6.240205806688717,-0.5224159655130688
6.273575891216464,-0.4198047165076904
6.3069459757442115,-0.3015601367602334
6.340316060271959,-0.20781693571525373
6.373686144799706,-0.17573638720806967
6.407056229327454,-0.22152087374488733
6.440426313855201,-0.32974670901476083
6.473796398382948,-0.45626968185238076
6.507166482910695,-0.5445710662495046
6.540536567438442,-0.5486899783122544
6.5739066519661895,-0.45233771995841476
6.607276736493937,-0.27534108491679776
6.640646821021684,-0.06448138605772374
6.674016905549431,0.12690670768902798
6.707386990077178,0.2611337897878193
6.740757074604925,0.3301819008451099
6.774127159132672,0.35564943100151286
6.8074972436604195,0.37528645092605545
6.840867328188167,0.42281647235133807
6.874237412715914,0.5105271968578188
6.907607497243661,0.6225183093326911
6.940977581771408,0.721378750658187
6.974347666299155,0.7648731056355929
7.007717750826902,0.7248195494901877
7.0410878353546495,0.599679119773238
7.074457919882397,0.4155635852705303
7.107828004410144,0.21573454518331334
7.141198088937891,0.04365283032551515
7.174568173465638,-0.07294412877727877
7.207938257993385,-0.1304682047053947
7.241308342521132,-0.14763948455443326
7.27467842704888,-0.15512705085809445
7.308048511576627,-0.1817068356777516
7.341418596104374,-0.242759174811299
7.374788680632121,-0.33524072500436075
7.408158765159868,-0.4402046511236377
7.441528849687615,-0.5309749235819804
7.4748989342153624,-0.5833084617405494
7.50826901874311,-0.5836958747587875
7.541639103270857,-0.5331108164325224
7.575009187798604,-0.4454115697946673
7.608379272326351,-0.3415245452600902
7.641749356854098,-0.24187725727730866
7.675119441381845,-0.15989043507804593
7.7084895259095925,-0.0986271782548297
7.74185961043734,-0.05129865643853448
7.775229694965087,-0.004908061145870687
7.808599779492834,0.05451277699288253
7.841969864020581,0.13668281881300937
7.875339948548328,0.2431041103809644
7.908710033076075,0.36524476796744654
7.9420801176038225,0.48558085372747
7.97545020213157,0.5818113843779688
8.008820286659317,0.6335748026287076
8.042190371187063,0.6295987830473657
8.075560455714811,0.5722862811959682
8.108930540242557,0.477244992933415
8.142300624770305,0.3673693924293034
8.175670709298052,0.26379178520799307
8.2090407938258,0.17775475456569848
8.242410878353546,0.10713802654895528
8.275780962881294,0.039138147065604624
8.30915104740904,-0.04231683411010656
8.342521131936788,-0.14791651870517047
8.375891216464534,-0.27690014668032165
8.409261300992283,-0.4160148324415038
8.442631385520029,-0.5437147856003458
8.476001470047777,-0.6377723779550571
8.509371554575523,-0.6833104413226451
8.542741639103271,-0.6781755299267759
8.57611172363102,-0.6334401302209244
8.609481808158765,-0.5684769555778789
8.642851892686513,-0.5022074218081175
8.67622197721426,-0.4441145385537468
8.709592061742008,-0.3893526610654293
8.742962146269754,-0.3209080886154993
8.776332230797502,-0.21845689783537814
8.809702315325248,-0.06989199276355297
8.843072399852996,0.12037257548688363
8.876442484380743,0.3308901967327899
8.90981256890849,0.5310047734491437
8.943182653436237,0.6930157065283052
8.976552737963985,0.8022828877420377
9.009922822491731,0.860026997845585
9.04329290701948,0.8776742827715045
9.076662991547225,0.866319890101941
9.110033076074973,0.8276140583338056
9.14340316060272,0.7516082372369157
9.176773245130468,0.623209678213648
9.210143329658214,0.4339270070031178
9.243513414185962,0.19224685328772861
9.276883498713708,-0.07376075471887643
9.310253583241456,-0.3240455135615003
9.343623667769203,-0.5211662097837315
9.37699375229695,-0.6444585400385142
9.410363836824697,-0.6962051828576898
9.443733921352445,-0.6964213430047212
9.477104005880191,-0.6691933804580018
9.51047409040794,-0.6283582726920338
9.543844174935685,-0.5707940817272159
9.577214259463434,-0.48130361398333826
9.61058434399118,-0.3464046699497222
9.643954428518928,-0.16906949047972308
9.677324513046674,0.024451605304309496
9.710694597574422,0.19060588122840671
9.744064682102168,0.2854211848914977
9.777434766629916,0.28437475927892036
9.810804851157663,0.19522191664381566
9.84417493568541,0.056810056878501124
9.877545020213157,-0.0762926850311101
9.910915104740905,-0.15639913992693208
9.944285189268651,-0.16184858001443705
9.9776552737964,-0.10366171825481463
10.011025358324146,-0.016866166869325336
10.044395442851894,0.058797516814134795
10.07776552737964,0.09897573036559663
10.111135611907388,0.10561215180218032
10.144505696435134,0.10342850546016878
10.177875780962882,0.12406423711221128
10.211245865490628,0.1862556838756427
10.244615950018376,0.2825408853696766
10.277986034546123,0.37976279682728753
10.31135611907387,0.4336418050748443
10.344726203601617,0.4104010616846154
10.378096288129365,0.3045853123441375
10.411466372657111,0.14385739942846248
10.44483645718486,-0.022053213203707848
10.478206541712606,-0.1431456956275106
10.511576626240354,-0.19117216749038332
10.5449467107681,-0.17127173935162537
10.578316795295848,-0.11781527725707211
10.611686879823594,-0.07685399501256984
10.645056964351342,-0.08391431803873627
10.678427048879088,-0.14767603340691005
10.711797133406836,-0.24669456158867806
10.745167217934583,-0.33982445382175214
10.77853730246233,-0.3847870464276843
10.811907386990077,-0.3562778626766469
10.845277471517825,-0.2560776344311251
10.878647556045571,-0.11170629550319112
10.91201764057332,0.034950374334274066
10.945387725101066,0.14393558517513602
10.978757809628814,0.19197978325904685
11.01212789415656,0.18033039017202276
11.045497978684308,0.133086510656112
11.078868063212054,0.08697395180827952
11.112238147739802,0.07649710329246384
11.145608232267548,0.11996152043713029
11.178978316795297,0.21152001074046448
11.212348401323043,0.3222899023364892
11.24571848585079,0.41038298798507655
11.279088570378537,0.4364023973270485
11.312458654906285,0.3787230056536004
11.345828739434031,0.24261251170382384
11.37919882396178,0.05932795526467582
11.412568908489526,-0.12479993280555735
11.445938993017274,-0.2650825407112289
11.47930907754502,-0.334182558124203
11.512679162072768,-0.3304223587473654
11.546049246600514,-0.27567761063472773
11.579419331128262,-0.20454502428980015
11.612789415656009,-0.15010528459479003
11.646159500183757,-0.1324147917045978
11.679529584711503,-0.1537518526345674
11.71289966923925,-0.2010916910473915
11.746269753766997,-0.2532937064829031
11.779639838294745,-0.28934375923581884
11.813009922822491,-0.294706172950905
11.84638000735024,-0.26445893627055866
11.879750091877986,-0.20332706007495902
11.913120176405734,-0.12341603187811416
11.94649026093348,-0.040471107483668986
11.979860345461228,0.030653802314443476
12.013230429988974,0.08049657743824527
12.046600514516722,0.10821600600193139
12.079970599044469,0.12210000083734064
12.113340683572217,0.1364951253359682
12.146710768099963,0.16577640501434268
12.180080852627711,0.21764249277155476
12.213450937155457,0.28879200604157296
12.246821021683205,0.3652328396638049
12.280191106210951,0.42736417012533423
12.3135611907387,0.4576329190416725
12.346931275266446,0.4472552752196864
12.380301359794194,0.3989353696127993
12.41367144432194,0.3245144957022151
12.447041528849688,0.2390039668541862
12.480411613377434,0.15414431283090413
12.513781697905182,0.0746185142582345
12.547151782432929,-0.0015502320902649235
12.580521866960677,-0.07908657620211272
12.613891951488423,-0.16035616726333618
12.647262036016171,-0.24179615556429115
12.680632120543917,-0.3137689933061058
12.714002205071665,-0.3640638923629638
12.747372289599411,-0.3834655955870385
12.78074237412716,-0.3706180511202724
12.814112458654908,-0.3334836103170162
12.847482543182654,-0.2862408668977638
12.880852627710402,-0.24290177499126853
12.914222712238148,-0.21096971786992058
12.947592796765896,-0.1887497666036144
12.980962881293642,-0.16798332367127414
13.01433296582139,-0.1402542227254482
13.047703050349137,-0.10307590898224209
13.081073134876885,-0.06151495637328153
13.114443219404631,-0.023969635144467902
13.147813303932379,0.005266353625890436
13.181183388460125,0.0313990720251986
13.214553472987873,0.0679774454323858
13.24792355751562,0.12866238627692964
13.281293642043368,0.21626918928850455
13.314663726571114,0.3159986709150028
13.348033811098862,0.39811604181810417
13.381403895626608,0.4301319571574205
13.414773980154356,0.39276891965146893
13.448144064682102,0.29116469293213415
13.48151414920985,0.15474527999740562
13.514884233737597,0.02504867982379381
13.548254318265345,-0.06273585904464976
13.581624402793091,-0.09526168130657615
13.614994487320839,-0.08575601779219458
13.648364571848585,-0.06577697858414396
13.681734656376333,-0.06842811134344283
13.71510474090408,-0.11160450723819851
13.748474825431828,-0.1894173362625687
13.781844909959574,-0.2754299787591642
13.815214994487322,-0.3353391290869508
13.848585079015068,-0.34241101117682293
13.881955163542816,-0.28835061359171765
13.915325248070562,-0.1852696450629222
13.94869533259831,-0.05911577157969133
13.982065417126057,0.06123011243044588
14.015435501653805,0.15378406340704642
14.048805586181551,0.2084282375446189
14.082175670709299,0.22632881341485284
14.115545755237045,0.21581051489441155
14.148915839764793,0.18769084109635314
14.18228592429254,0.15226456701617433
14.215656008820288,0.11841149607788025
14.249026093348034,0.09385923186429561
14.282396177875782,0.08520918722425135
14.315766262403528,0.09692906297766803
14.349136346931276,0.1295639673761276
14.382506431459023,0.17822020086582624
14.41587651598677,0.23248182766641345
14.449246600514517,0.2783026609354496
14.482616685042265,0.3014199366260729
14.515986769570011,0.29100451251352216
14.54935685409776,0.2420907595517756
14.582726938625505,0.1559773089566743
14.616097023153253,0.03890423902368698
14.649467107681,-0.09983042554233905
14.682837192208748,-0.24916009610013537
14.716207276736494,-0.39665468981403124
14.749577361264242,-0.5287810841240823
14.782947445791988,-0.6320874567566418
14.816317530319736,-0.6956704109743697
14.849687614847483,-0.714038260937163
14.88305769937523,-0.6886859877635241
14.916427783902977,-0.6270655523356683
14.949797868430725,-0.5390684756413171
14.983167952958471,-0.4327503688723429
15.01653803748622,-0.3117236707343303
15.049908122013965,-0.1758417754220846
15.083278206541713,-0.024848147183120877
15.11664829106946,0.1372817985400655
15.150018375597208,0.3002388069912771
15.183388460124954,0.44925142490613745
15.216758544652702,0.5702186828980045
15.250128629180448,0.6552234390503628
15.283498713708196,0.705126088530938
15.316868798235943,0.7276350574301431
15.35023888276369,0.7319996432081702
15.383608967291437,0.7234794037989185
15.416979051819185,0.7007363411012473
15.450349136346931,0.6573697361743301
15.48371922087468,0.5863063953950285
15.517089305402425,0.4842773155173261
15.550459389930174,0.3539522736462545
15.58382947445792,0.20301735600301868
15.617199558985668,0.04131873879050239
15.650569643513414,-0.1219623427139558
15.683939728041162,-0.2795970761275793
15.717309812568908,-0.42578281398180806
15.750679897096656,-0.5546856211708963
15.784049981624403,-0.6594112041872436
15.81742006615215,-0.7324094830059423
15.850790150679897,-0.7673883983126093
15.884160235207645,-0.7618183894601335
15.917530319735391,-0.7186151088013039
15.95090040426314,-0.6459246935862439
15.984270488790886,-0.554943785936377
16.017640573318634,-0.4567693802540718
16.05101065784638,-0.3597189381722894
16.084380742374126,-0.2681468895203998
16.117750826901876,-0.18286027888306916
16.151120911429622,-0.10244833740728297
16.18449099595737,-0.02463804658459219
16.217861080485115,0.052847041187010974
16.251231165012864,0.13189186043172046
16.28460124954061,0.21369372389863076
16.317971334068357,0.2982732171849507
16.351341418596103,0.3838635543551984
16.384711503123853,0.4666026982420998
16.4180815876516,0.5409983320315844
16.451451672179346,0.6012625604249985
16.484821756707092,0.6429990666486712
16.51819184123484,0.6642881471702912
16.551561925762588,0.6653647349318632
16.584932010290334,0.6468904202216738
16.61830209481808,0.6078499897079834
16.65167217934583,0.5446316100752883
16.685042263873576,0.45236197196565403
16.718412348401323,0.32820110934946295
16.75178243292907,0.17487017087158274
16.78515251745682,0.0021923415315655125
16.818522601984565,-0.17464272432991926
16.85189268651231,-0.33948847470213794
16.885262771040058,-0.4800587065245365
16.918632855567807,-0.5905821373191011
16.952002940095554,-0.6710321428658625
16.9853730246233,-0.7237457855622478
17.018743109151046,-0.7497405779380043
17.052113193678796,-0.7470455941315625
17.085483278206542,-0.712000866885309
17.11885336273429,-0.6426834185189523
17.15222344726204,-0.5424384468044888
17.185593531789785,-0.4214581065760657
17.21896361631753,-0.2953073097210597
17.252333700845277,-0.1806817994501287
17.285703785373027,-0.0898934426877729
