Frequency (Hz),Amplitude
0.0,6.396328143752342
0.01978021978021978,6.399510810642101
0.03956043956043956,6.409036795338321
0.05934065934065934,6.424840425292441
0.07912087912087912,6.446813481801055
0.0989010989010989,6.474806999611014
0.11868131868131868,6.508633683148851
0.13846153846153844,6.548070845457094
0.15824175824175823,6.592863761151487
0.17802197802197803,6.642729317073088
0.1978021978021978,6.697359843641326
0.21758241758241756,6.756427015458238
0.23736263736263735,6.819585720278562
0.2571428571428572,6.886477809607796
0.2769230769230769,6.956735660434878
0.2967032967032967,7.02998549456462
0.31648351648351647,7.105850418521353
0.3362637362637363,7.183953162163095
0.35604395604395606,7.263918507379769
0.3758241758241758,7.345375409230215
0.3956043956043956,7.427958820512203
0.4153846153846154,7.51131123714488
0.4351648351648351,7.595083986086247
0.45494505494505494,7.6789382800890715
0.4747252747252747,7.762546064731926
0.4945054945054945,7.84559068315716
0.5142857142857143,7.927767383094415
0.5340659340659341,8.008783689301323
0.5538461538461538,8.088359662725196
0.5736263736263736,8.166228065653252
0.5934065934065934,8.242134450007528
0.6131868131868132,8.31583718385208
0.6329670329670329,8.387107429183718
0.6527472527472528,8.455729082219014
0.6725274725274726,8.521498685694741
0.6923076923076923,8.584225321180233
0.7120879120879121,8.643730488058328
0.7318681318681318,8.699847974662367
0.7516483516483516,8.752423726049237
0.7714285714285715,8.801315712029844
0.7912087912087912,8.846393798354176
0.810989010989011,8.887539623343214
0.8307692307692308,8.924646481760297
0.8505494505494506,8.95761921730528
0.8703296703296702,8.986374124784543
0.8901098901098901,9.010838862745407
0.9098901098901099,9.030952377155502
0.9296703296703297,9.046664836545798
0.9494505494505494,9.057937578912526
0.9692307692307692,9.064743070580162
0.989010989010989,9.067064877158792
1.0087912087912088,9.064897646678034
1.0285714285714287,9.058247104940978
1.0483516483516484,9.047130063110203
1.0681318681318681,9.031574437508498
1.087912087912088,9.011619281584872
1.1076923076923075,8.9873148299572
1.1274725274725275,8.958722554389574
1.1472527472527472,8.925915231492217
1.1670329670329669,8.888977021835581
1.1868131868131868,8.848003560043956
1.2065934065934065,8.80310205526787
1.2263736263736265,8.754391401221577
1.2461538461538462,8.702002294702357
1.2659340659340659,8.646077361170711
1.2857142857142858,8.586771285554297
1.3054945054945055,8.524250945929664
1.3252747252747252,8.458695547121174
1.3450549450549452,8.390296750521552
1.3648351648351649,8.319258795567455
1.3846153846153846,8.2457986072835
1.4043956043956045,8.170145883125135
1.4241758241758242,8.09254315099551
1.443956043956044,8.013245788779043
1.4637362637362636,7.932521994027411
1.4835164835164834,7.8506526905650045
1.5032967032967033,7.767931356779345
1.523076923076923,7.684663758273363
1.542857142857143,7.601167565453396
1.5626373626373626,7.517771834609412
1.5824175824175823,7.434816329248707
1.6021978021978023,7.352650657046188
1.621978021978022,7.271633196989613
1.6417582417582417,7.192129791383701
1.6615384615384616,7.114512178622383
1.6813186813186813,7.039156145355521
1.7010989010989013,6.9664393811735525
1.720879120879121,6.896739025487691
1.7406593406593405,6.830428905094112
1.7604395604395604,6.7678764720541515
1.7802197802197801,6.709439464890779
1.7999999999999998,6.655462331355726
1.8197802197802198,6.6062724675450015
1.8395604395604395,6.562176345026566
1.8593406593406594,6.523455613712244
1.879120879120879,6.490363282068081
1.8989010989010988,6.463120086432417
1.9186813186813187,6.441911166283439
1.9384615384615385,6.426883161110357
1.9582417582417584,6.418141836381212
1.978021978021978,6.415750330862263
1.9978021978021978,6.4197280958221015
2.0175824175824175,6.430050569742146
2.0373626373626372,6.446649601940566
2.0571428571428574,6.4694146072761685
2.076923076923077,6.498194404233735
2.096703296703297,6.532799662437054
2.1164835164835165,6.573005864800512
2.1362637362637362,6.618556675306151
2.1560439560439564,6.669167596270743
2.175824175824176,6.724529798742233
2.195604395604396,6.784314015549792
2.215384615384615,6.848174397317255
2.2351648351648348,6.915752246003009
2.254945054945055,6.986679556773663
2.2747252747252746,7.060582315893587
2.2945054945054943,7.137083518675445
2.314285714285714,7.2158058865247
2.3340659340659338,7.296374275152343
2.353846153846154,7.378417776820832
2.3736263736263736,7.461571527952799
2.3934065934065933,7.545478239666808
2.413186813186813,7.629789473022768
2.4329670329670328,7.714166683244799
2.452747252747253,7.798282058251892
2.4725274725274726,7.88181917677447
2.4923076923076923,7.964473510453669
2.512087912087912,8.045952792860186
2.5318681318681318,8.125977276540246
2.5516483516483515,8.204279897167325
2.5714285714285716,8.280606361779158
2.5912087912087913,8.354715176007007
2.610989010989011,8.426377623225827
2.6307692307692307,8.495377706712542
2.6505494505494505,8.561512064222839
2.6703296703296706,8.624589862893442
2.6901098901098903,8.684432681050767
2.70989010989011,8.740874382350654
2.7296703296703297,8.793760986678528
2.7494505494505495,8.842950541390389
2.769230769230769,8.888312995759897
2.7890109890109893,8.929730080898802
2.808791208791209,8.967095196924578
2.8285714285714287,9.000313308744566
2.8483516483516484,9.02930085149933
2.8681318681318677,9.053985646447012
2.887912087912088,9.074306827864092
2.9076923076923076,9.090214781378116
2.9274725274725273,9.101671094025233
2.947252747252747,9.108648516233064
2.9670329670329667,9.111130935860219
2.986813186813187,9.109113364372416
3.0065934065934066,9.102601935195313
3.0263736263736263,9.091613914251456
3.046153846153846,9.07617772265735
3.0659340659340657,9.056332971522504
3.085714285714286,9.032130508749564
3.1054945054945056,9.003632477678691
3.1252747252747253,8.97091238734419
3.145054945054945,8.934055194010966
3.1648351648351647,8.8931573935258
3.184615384615385,8.84832712384646
3.2043956043956046,8.799684276890845
3.2241758241758243,8.747360618570475
3.243956043956044,8.691499915525423
3.2637362637362637,8.632258066650929
3.2835164835164834,8.569803236985601
3.3032967032967036,8.504315990903661
3.3230769230769233,8.435989420805127
3.342857142857143,8.365029266613146
3.3626373626373627,8.291654020353034
3.3824175824175824,8.216095008891159
3.4021978021978025,8.138596446543898
3.4219780219780223,8.05941544772452
3.441758241758242,7.978821988082295
3.4615384615384617,7.897098800719261
3.481318681318681,7.814541192074782
3.501098901098901,7.731456759997401
3.520879120879121,7.648164994450086
3.5406593406593405,7.564996739324306
3.5604395604395602,7.482293492108134
3.58021978021978,7.400406516842786
3.5999999999999996,7.3196957451275075
3.61978021978022,7.240528440153415
3.6395604395604395,7.163277600149447
3.659340659340659,7.088320080516805
3.679120879120879,7.01603441861217
3.6989010989010986,6.946798351880003
3.718681318681319,6.880986029014018
3.7384615384615385,6.81896492510362
3.758241758241758,6.7610924851622265
3.7780219780219784,6.70771253567823
3.7978021978021976,6.659151520239129
3.8175824175824173,6.615714631932964
3.8373626373626375,6.577681930944157
3.8571428571428568,6.545304549153757
3.876923076923077,6.518801093171695
3.896703296703296,6.498354361697651
3.916483516483517,6.48410849132402
3.936263736263736,6.4761666362102535
3.956043956043956,6.47458927142788
3.9758241758241755,6.479393187845981
3.9956043956043956,6.490551219521272
4.015384615384615,6.507992714567411
4.035164835164835,6.531604729659616
4.054945054945055,6.561233899037482
4.0747252747252745,6.596688903271605
4.094505494505494,6.637743442895972
4.114285714285715,6.6841396084042355
4.134065934065934,6.735591531497844
4.153846153846154,6.7917892026188635
4.173626373626373,6.852402345898722
4.193406593406594,6.917084253502106
4.213186813186813,6.985475495530728
4.232967032967033,7.057207437728702
4.252747252747253,7.1319055158732505
4.2725274725274724,7.209192231832799
4.292307692307692,7.288689850993926
4.312087912087913,7.370022793549061
4.331868131868132,7.452819722709359
4.351648351648352,7.536715341193487
4.371428571428571,7.6213519134414405
4.391208791208792,7.7063805351248345
4.410989010989011,7.791462173950008
4.43076923076923,7.876268506781614
4.450549450549451,7.960482578054632
4.4703296703296695,8.043799303570696
4.49010989010989,8.125925842335429
4.50989010989011,8.206581857292445
4.52967032967033,8.2854996838121
4.549450549450549,8.362424422726386
4.569230769230769,8.437113972660375
4.589010989010989,8.50933901446111
4.608791208791209,8.578882958710174
4.628571428571428,8.645541865651483
4.648351648351649,8.709124345382879
4.6681318681318675,8.769451444849869
4.687912087912088,8.826356527037468
4.707692307692308,8.879685146771287
4.7274725274725276,8.929294926699034
4.747252747252747,8.975055436314586
4.767032967032967,9.016848076294034
4.786813186813187,9.054565969922745
4.806593406593407,9.08811386299071
4.826373626373626,9.117408033207877
4.846153846153847,9.142376209930847
4.8659340659340655,9.162957504785844
4.885714285714286,9.179102353612334
4.905494505494506,9.190772470027806
4.9252747252747255,9.197940810820077
4.945054945054945,9.200591553302596
4.964835164835165,9.198720084714136
4.984615384615385,9.192333003701707
5.004395604395604,9.181448133889374
5.024175824175824,9.166094549500828
5.043956043956045,9.146312612964538
5.0637362637362635,9.12215402438325
5.083516483516483,9.093681882687523
5.103296703296703,9.060970758211848
5.123076923076923,9.024106776323922
5.142857142857143,8.983187711597271
5.162637362637362,8.938323091835828
5.182417582417583,8.889634311028319
5.2021978021978015,8.83725475002085
5.221978021978022,8.781329903336093
5.241758241758242,8.722017510127378
5.2615384615384615,8.659487686720137
5.281318681318681,8.593923057550882
5.301098901098901,8.525518880548596
5.320879120879121,8.45448316210296
5.340659340659341,8.381036755713449
5.36043956043956,8.305413437203306
5.380219780219781,8.227859948003248
5.3999999999999995,8.148635996461072
5.41978021978022,8.0680142054196
5.43956043956044,7.986279992445215
5.4593406593406595,7.903731367114891
5.479120879120879,7.820678627733442
5.498901098901099,7.7374439378337225
5.518681318681319,7.6543607609160995
5.538461538461538,7.571773130253297
5.558241758241758,7.490034729402412
5.578021978021979,7.409507758545554
5.5978021978021975,7.330561562181704
5.617582417582418,7.253570995298073
5.637362637362637,7.178914508258975
5.6571428571428575,7.1069719355523
5.676923076923077,7.038121980475988
5.696703296703297,6.972739396990326
5.716483516483517,6.911191881337556
5.736263736263735,6.853836699479185
5.756043956043956,6.801017091536873
5.775824175824176,6.753058510585576
5.795604395604395,6.710264769409067
5.815384615384615,6.672914184007076
5.835164835164835,6.641255815387226
5.854945054945055,6.6155059200717705
5.874725274725275,6.5958447234885575
5.894505494505494,6.582413627968347
5.914285714285715,6.575312957864384
5.934065934065933,6.574600328368518
5.953846153846154,6.580289702614747
5.973626373626374,6.592351174976716
5.993406593406593,6.610711488956431
6.013186813186813,6.635255267930853
6.032967032967033,6.665826908550384
6.052747252747253,6.702233061848488
6.072527472527473,6.7442456077721
6.092307692307692,6.791605015927365
6.112087912087913,6.844023979234076
6.131868131868131,6.9011912076291555
6.151648351648352,6.962775275155086
6.171428571428572,7.0284284245322075
6.191208791208791,7.0977902472720755
6.210989010989011,7.170491173143742
6.230769230769231,7.246155719076147
6.2505494505494505,7.324405463300091
6.270329670329671,7.404861724900463
6.29010989010989,7.487147941434178
6.309890109890111,7.570891747595707
6.329670329670329,7.655726766014267
6.349450549450549,7.741294127240798
6.36923076923077,7.827243740033242
6.3890109890109885,7.913235335444679
6.408791208791209,7.99893930925474
6.428571428571428,8.084037387253119
6.4483516483516485,8.168223137055623
6.468131868131868,8.25120234874606
6.487912087912088,8.332693304891588
6.507692307692308,8.412426958535894
6.527472527472527,8.490147035759366
6.547252747252747,8.565610077400342
6.567032967032967,8.638585432622264
6.5868131868131865,8.708855215231598
6.606593406593407,8.776214232024738
6.626373626373626,8.840469890982305
6.6461538461538465,8.901442095837163
6.665934065934065,8.958963132414013
6.685714285714286,9.012877551163673
6.705494505494506,9.063042049482787
6.725274725274725,9.109325356705137
6.745054945054945,9.151608124061049
6.764835164835165,9.18978282141223
6.7846153846153845,9.223753642167217
6.804395604395605,9.253436417456728
6.824175824175824,9.278758540385352
6.8439560439560445,9.299658900967632
6.863736263736263,9.316087832193123
6.883516483516484,9.32800706753772
6.903296703296704,9.335389710140849
6.923076923076923,9.33822021379329
6.942857142857143,9.336494375821598
6.962637362637362,9.330219341908249
6.9824175824175825,9.319413622844927
7.002197802197802,9.304107123175674
7.021978021978022,9.284341181641757
7.041758241758242,9.260168623285427
7.061538461538461,9.23165382300022
7.081318681318681,9.198872780225425
7.101098901098901,9.161913204364723
7.1208791208791204,9.12087461035775
7.140659340659341,9.0758684236396
7.16043956043956,9.027018093479654
7.1802197802197805,8.974459213386398
7.199999999999999,8.918339646889981
7.21978021978022,8.858819656556161
7.23956043956044,8.796072033532345
7.259340659340659,8.730282224264922
7.279120879120879,8.661648450243378
7.298901098901099,8.59038181570784
7.318681318681318,8.516706397190106
7.338461538461539,8.440859307534009
7.358241758241758,8.363090725653269
7.3780219780219785,8.283663881733677
7.397802197802197,8.202854985879783
7.417582417582418,8.120953086365542
7.437362637362638,8.038259841708836
7.457142857142857,7.955089188808858
7.476923076923077,7.871766887443805
7.496703296703297,7.788629919635728
7.516483516483516,7.706025720894348
7.536263736263736,7.624311219334096
7.556043956043957,7.543851658337228
7.575824175824176,7.465019179063374
7.595604395604395,7.388191140958519
7.615384615384615,7.3137481617825255
7.635164835164835,7.242071863822747
7.654945054945055,7.173542320118454
7.674725274725275,7.108535203818684
7.694505494505494,7.047418655234212
7.7142857142857135,6.9905498945336335
7.734065934065935,6.9382716229575125
7.753846153846154,6.8909082712090735
7.7736263736263735,6.848762169389976
7.793406593406592,6.812109727323806
7.813186813186814,6.781197726033399
7.832967032967034,6.756239829162723
7.852747252747252,6.737413426030406
7.872527472527472,6.724856914832731
7.892307692307693,6.718667524795196
7.912087912087912,6.7188997599005384
7.931868131868132,6.725564524933645
7.951648351648351,6.738628968324927
7.971428571428572,6.7580170474817445
7.991208791208791,6.783610793100316
8.010989010989011,6.815252221524807
8.03076923076923,6.852745820532929
8.05054945054945,6.8958615155198135
8.07032967032967,6.944338010886859
8.09010989010989,6.997886395846097
8.10989010989011,7.056193904540256
8.129670329670331,7.118927726566131
8.149450549450549,7.185738774536256
8.169230769230769,7.25626532890229
8.189010989010988,7.330136495556825
8.20879120879121,7.406975427506148
8.22857142857143,7.486402277146474
8.248351648351647,7.568036859613116
8.268131868131867,7.65150101980029
8.287912087912087,7.736420705700667
8.307692307692308,7.822427758625145
8.327472527472528,7.90916143672012
8.347252747252746,7.996269692198321
8.367032967032966,8.083410225092882
8.386813186813187,8.17025133741553
8.406593406593407,8.256472611628109
8.426373626373627,8.341765436582586
8.446153846153845,8.42583340277791
8.465934065934066,8.508392587116825
8.485714285714286,8.589171745478216
8.505494505494505,8.667912429474319
8.525274725274725,8.74436904182715
8.545054945054945,8.818308842940738
8.564835164835165,8.889511919507811
8.584615384615384,8.957771124397253
8.604395604395604,9.0228919956355
8.624175824175826,9.084692661022943
8.643956043956043,9.143003733812721
8.663736263736263,9.197668203914718
8.683516483516483,9.248541328261256
8.703296703296704,9.295490523270223
8.723076923076924,9.33839526175238
8.742857142857142,9.377146976119704
8.762637362637362,9.411648969347675
8.782417582417583,9.441816334814856
8.802197802197803,9.467575885876633
8.821978021978023,9.488866095817047
8.84175824175824,9.50563704865412
8.86153846153846,9.517850401141363
8.881318681318682,9.525479356205015
8.901098901098901,9.528508647975487
8.920879120879121,9.526934538506504
8.940659340659339,9.520764826221676
8.96043956043956,9.510018866079378
8.98021978021978,9.494727601398314
9.0,9.474933607232636
9.01978021978022,9.450691145121704
9.03956043956044,9.422066228959817
9.05934065934066,9.389136701629802
9.079120879120879,9.351992321914505
9.098901098901099,9.310734861035284
9.11868131868132,9.265478207957864
9.138461538461538,9.216348482345525
9.158241758241758,9.163484153717647
9.178021978021977,9.107036164976803
9.197802197802199,9.047168057989738
9.217582417582419,8.984056098333106
9.237362637362637,8.91788939563179
9.257142857142856,8.848870015112922
9.276923076923078,8.777213075059723
9.296703296703297,8.70314682376573
9.316483516483517,8.626912688352792
9.336263736263735,8.548765286422306
9.356043956043957,8.468972389960674
9.375824175824176,8.387814829228901
9.395604395604396,8.305586322556287
9.415384615384616,8.222593216070813
9.435164835164835,8.13915411549314
9.454945054945055,8.055599390284563
9.474725274725275,7.972270528785565
9.494505494505495,7.8895193216588755
9.514285714285714,7.807706850141878
9.534065934065934,7.7272022555343645
9.553846153846154,7.648381267246462
9.573626373626373,7.571624468873647
9.593406593406593,7.49731528542255
9.613186813186815,7.425837680230594
9.632967032967032,7.357573557499986
9.652747252747252,7.292899875802794
9.672527472527472,7.232185489370923
9.692307692307693,7.175787747239611
9.712087912087913,7.1240488949220335
9.731868131868131,7.07729233856496
9.75164835164835,7.035818846542517
9.771428571428572,6.9999027770512035
9.791208791208792,6.969788431216464
9.810989010989012,6.945686638239468
9.83076923076923,6.927771681071766
9.850549450549451,6.916178667173213
9.87032967032967,6.911001438699431
9.89010989010989,6.912291100151172
9.90989010989011,6.920055219871261
9.92967032967033,6.934257736132152
9.94945054945055,6.954819570697793
9.96923076923077,6.981619924697946
9.989010989010989,7.014498205472318
10.008791208791209,7.053256510562305
10.028571428571428,7.097662577669373
10.048351648351648,7.147453098035266
10.068131868131868,7.202337285602672
10.08791208791209,7.2620005951920525
10.107692307692307,7.326108489019942
10.127472527472527,7.394310161100666
10.147252747252747,7.4662421421689125
10.167032967032966,7.541531722471323
10.186813186813188,7.619800144946808
10.206593406593406,7.700665535983754
10.226373626373626,7.7837455543801575
10.246153846153845,7.8686597508558185
10.265934065934067,7.955031640216484
10.285714285714286,8.042490495978809
10.305494505494504,8.130672883011215
10.325274725274724,8.219223947706345
10.345054945054946,8.307798487614726
10.364835164835165,8.396061823601768
10.384615384615385,8.483690497705634
10.404395604395603,8.57037281922106
10.424175824175824,8.655809280332981
10.443956043956044,8.73971286106166
10.463736263736264,8.821809241509097
10.483516483516484,8.90183693753562
10.503296703296703,8.979547374134397
10.523076923076923,9.054704908975518
10.542857142857143,9.127086816903923
10.562637362637362,9.196483244622968
10.582417582417584,9.262697143392787
10.602197802197802,9.325544186323164
10.621978021978022,9.384852675742787
10.641758241758241,9.440463445172211
10.661538461538463,9.492229759607746
10.681318681318682,9.540017217124626
10.7010989010989,9.583703654218771
10.72087912087912,9.623179056813543
10.740659340659342,9.65834547845059
10.760439560439561,9.689116966848365
10.780219780219781,9.715419499740078
10.799999999999999,9.737190930682855
10.819780219780219,9.754380945354454
10.83956043956044,9.766951028713827
10.85934065934066,9.774874443290916
10.87912087912088,9.778136218781599
