Time (s),Filtered Signal
0.0,0.036436382564833614
0.03337000366703337,0.49073847256077063
0.06674000733406674,0.767010804621022
0.1001100110011001,0.732571414608657
0.13348001466813347,0.335416830364287
0.16685001833516683,-0.3771357503559121
0.2002200220022002,-1.2659876400216454
0.2335900256692336,-2.1364635930039935
0.26696002933626695,-2.794815301868927
0.3003300330033003,-3.106431791678493
0.33370003667033366,-3.034085416602069
0.36707004033736707,-2.6415339791119603
0.4004400440044004,-2.0619126160781893
0.4338100476714338,-1.4446502211773422
0.4671800513384672,-0.9025428060473472
0.5005500550055005,-0.4792726546239121
0.5339200586725339,-0.14851663559837988
0.5672900623395672,0.15714166992831535
0.6006600660066006,0.5013075520038748
0.634030069673634,0.9034959965658307
0.6674000733406673,1.3225141816624042
0.7007700770077008,1.672041495107145
0.7341400806747341,1.8612247621961322
0.7675100843417675,1.8397403031652428
0.8008800880088008,1.6235809520955378
0.8342500916758342,1.2876857617249866
0.8676200953428675,0.9295637784930558
0.9009900990099009,0.6239873296093437
0.9343601026769344,0.39331080911741284
0.9677301063439677,0.20853945938632149
1.001100110011001,0.01871250344735847
1.0344701136780343,-0.20929721586099212
1.0678401173450678,-0.4633475942598789
1.1012101210121013,-0.6859600939753185
1.1345801246791345,-0.8011741562753707
1.167950128346168,-0.7535318803311652
1.2013201320132012,-0.5387092701011339
1.2346901356802347,-0.210618645990718
1.268060139347268,0.1375823490851501
1.3014301430143014,0.4084581272166356
1.3348001466813346,0.534839867903315
1.368170150348368,0.49987214468035923
1.4015401540154016,0.33673210414695004
1.4349101576824348,0.11121365197837875
1.4682801613494683,-0.10395454507068196
1.5016501650165015,-0.25302542923429977
1.535020168683535,-0.3115661925225366
1.5683901723505682,-0.2874080913003279
1.6017601760176017,-0.20923154483966858
1.6351301796846351,-0.10850132221369756
1.6685001833516684,-0.003470003478289439
1.7018701870187019,0.10659139632150744
1.735240190685735,0.23360973623287562
1.7686101943527686,0.38344817031596373
1.8019801980198018,0.5393754314122289
1.8353502016868353,0.6574303258458951
1.8687202053538687,0.6792602247466172
1.902090209020902,0.5583979180748595
1.9354602126879354,0.2875617817527678
1.9688302163549687,-0.08762648856282257
2.002200220022002,-0.47751830485594887
2.0355702236890356,-0.7783044027370268
2.0689402273560686,-0.9110762932152895
2.102310231023102,-0.8535245092762119
2.1356802346901356,-0.6504033062237867
2.169050238357169,-0.39751519245076766
2.2024202420242025,-0.2047071964149033
2.2357902456912355,-0.15198203816398065
2.269160249358269,-0.25613371695210324
2.3025302530253025,-0.462004259726393
2.335900256692336,-0.663386839015359
2.369270260359369,-0.7467312962903357
2.4026402640264024,-0.6405797010900173
2.436010267693436,-0.3496315234780446
2.4693802713604693,0.04276004263511749
2.502750275027503,0.4069486921656162
2.536120278694536,0.6216399937333378
2.5694902823615693,0.6268826810000822
2.6028602860286028,0.4508256194806329
2.636230289695636,0.19708809643166864
2.6696002933626692,-0.0018941552942817353
2.7029702970297027,-0.04381554160585488
2.736340300696736,0.0996529544773237
2.7697103043637696,0.3735496677788361
2.803080308030803,0.6671958591490247
2.836450311697836,0.8639736844015135
2.8698203153648696,0.8899704353755499
2.903190319031903,0.7409624587280319
2.9365603226989365,0.47853855092396963
2.96993032636597,0.19975090990688932
3.003300330033003,-0.005273273759938175
3.0366703337000365,-0.08991512511704236
3.07004033736707,-0.06744271542900054
3.1034103410341034,-0.0013007247708035203
3.1367803447011364,0.026063828069159408
3.17015034836817,-0.047492137420099105
3.2035203520352034,-0.23314198230788089
3.236890355702237,-0.4823974857721176
3.2702603593692703,-0.7046580258060683
3.3036303630363033,-0.8043001536174679
3.3370003667033368,-0.7222762679912722
3.3703703703703702,-0.46490626516581596
3.4037403740374037,-0.10727437753943769
3.4371103777044367,0.23140335630201678
3.47048038137147,0.43176428102133696
3.5038503850385037,0.4207784473240473
3.537220388705537,0.2021769593389805
3.5705903923725706,-0.14199840668688665
3.6039603960396036,-0.4803978979061043
3.637330399706637,-0.6812361550991504
3.6707004033736705,-0.6618341266534076
3.704070407040704,-0.4188355649921062
3.7374404107077375,-0.026906214470524423
3.7708104143747705,0.3928703039524334
3.804180418041804,0.720630640761251
3.8375504217088374,0.8806441929438086
3.870920425375871,0.862004142136496
3.904290429042904,0.7108551533030397
3.9376604327099374,0.5012633630514308
3.971030436376971,0.30053025787898907
4.004400440044004,0.14497127482756073
4.037770443711038,0.034889922869667654
4.071140447378071,-0.052671607379845935
4.104510451045105,-0.1425886089112003
4.137880454712137,-0.24326386917831205
4.171250458379171,-0.33981949784000376
4.204620462046204,-0.4015232506657965
4.237990465713238,-0.3997247829558753
4.271360469380271,-0.32784176575916485
4.304730473047305,-0.21323172819191666
4.338100476714338,-0.11308102119940334
4.3714704803813715,-0.09285984028391366
4.404840484048405,-0.19467600789056547
4.438210487715438,-0.4100170426862669
4.471580491382471,-0.6722311831780134
4.5049504950495045,-0.8764215856244663
4.538320498716538,-0.9208762930435735
4.571690502383571,-0.7518133072571043
4.605060506050605,-0.38969198051685905
4.638430509717638,0.07632817335877858
4.671800513384672,0.5231747397513643
4.705170517051705,0.8407697435312865
4.738540520718738,0.9692521686872607
4.771910524385771,0.9118429288330758
4.805280528052805,0.722274100769912
4.838650531719838,0.4772978811402241
4.872020535386872,0.2486533495283022
4.905390539053905,0.08498324311743967
4.938760542720939,0.006772320191102031
4.972130546387972,0.011109830440936505
5.005500550055006,0.08039199045714003
5.038870553722038,0.18986222809823491
5.072240557389072,0.3116692904152798
5.105610561056105,0.4162154300236696
5.138980564723139,0.47356448904824183
5.172350568390172,0.45768545273678424
5.2057205720572055,0.3542078183543854
5.239090575724239,0.16909192940456969
5.272460579391272,-0.06695637864264813
5.305830583058306,-0.303328097096377
5.3392005867253385,-0.48482390073761666
5.372570590392372,-0.5726488512767769
5.405940594059405,-0.5615239519909966
5.439310597726439,-0.4833102829847957
5.472680601393472,-0.3932661322089016
5.506050605060506,-0.34392526728608075
5.539420608727539,-0.3586728882403624
5.572790612394573,-0.41821480812213047
5.606160616061606,-0.46741969566175723
5.63953061972864,-0.4403539077726146
5.672900623395672,-0.29256679957836196
5.706270627062706,-0.02597777626295378
5.739640630729739,0.3053399110246697
5.773010634396773,0.6119681544046961
5.806380638063806,0.8021206960319671
5.83975064173084,0.8170677950921947
5.873120645397873,0.6539358911533674
5.9064906490649065,0.3661693521859064
5.93986065273194,0.04167845051829591
5.9732306563989725,-0.23162954642216846
6.006600660066006,-0.3980148430997081
6.0399706637330395,-0.45030695250973246
6.073340667400073,-0.42441902055525954
6.106710671067106,-0.3757009791934718
6.14008067473414,-0.34885748939042244
6.173450678401173,-0.35577190632083044
6.206820682068207,-0.37162702432622136
6.24019068573524,-0.3509259517921785
6.273560689402273,-0.25534008217102117
6.306930693069306,-0.07923744166329717
6.34030069673634,0.14065997862452637
6.373670700403373,0.3376380075764401
6.407040704070407,0.4444964131336129
6.44041070773744,0.4260764889768339
6.473780711404474,0.298280854498879
6.507150715071507,0.12331710171073823
6.540520718738541,-0.017114626517151
6.573890722405573,-0.057695059093911275
6.607260726072607,0.022905008182877398
6.64063072973964,0.1952004081700708
6.6740007334066735,0.39452077421043524
6.707370737073707,0.5500316127334428
6.7407407407407405,0.6128666441829159
6.774110744407774,0.5711996326520828
6.807480748074807,0.44750837792113657
6.840850751741841,0.2819240510215276
6.8742207554088735,0.11144569364286347
6.907590759075907,-0.0443661096749275
6.94096076274294,-0.1848438456762262
6.974330766409974,-0.31762921777458425
7.007700770077007,-0.4434700325616782
7.041070773744041,-0.5463884353662168
7.074440777411074,-0.596173291790038
7.107810781078108,-0.5629567906559925
7.141180784745141,-0.4362511761574993
7.174550788412174,-0.23753380907776336
7.207920792079207,-0.018309997165645873
7.241290795746241,0.15695420294185014
7.274660799413274,0.23570995746859436
7.308030803080308,0.19861350717515355
7.341400806747341,0.06756805792128792
7.3747708104143745,-0.10282458149795476
7.408140814081408,-0.24631914388016188
7.4415108177484415,-0.3095201490805218
7.474880821415475,-0.27013286780752604
7.5082508250825075,-0.14274931411248165
7.541620828749541,0.028565926413969957
7.5749908324165744,0.18670861236895767
7.608360836083608,0.280355305843757
7.641730839750641,0.27900440431780354
7.675100843417675,0.1805459638932532
7.708470847084708,0.010632733216169046
7.741840850751742,-0.1847044723262532
7.775210854418775,-0.3508399106883809
7.808580858085808,-0.43827950066433197
7.841950861752841,-0.4157524242214632
7.875320865419875,-0.2795804334821015
7.908690869086908,-0.05602841696600051
7.942060872753942,0.2053375721398229
7.975430876420975,0.44601848378157644
8.008800880088009,0.6156809974984181
8.042170883755041,0.6853049592044036
8.075540887422076,0.6516283051014576
8.108910891089108,0.5327261078859741
8.142280894756142,0.3588102454510947
8.175650898423175,0.16349689559085226
8.20902090209021,-0.021526386273630498
8.242390905757242,-0.1691298701433398
8.275760909424275,-0.25937747153142765
8.309130913091309,-0.28382623484387326
8.342500916758341,-0.2500487302226193
8.375870920425376,-0.18247651606038087
8.409240924092408,-0.11618256103229051
8.442610927759443,-0.08394680619025194
8.475980931426475,-0.10168241364602573
8.50935093509351,-0.15982256375813883
8.542720938760542,-0.22646229830196088
8.576090942427575,-0.26232389862305994
8.60946094609461,-0.24084504472882792
8.642830949761642,-0.1628020026182825
8.676200953428676,-0.056693336340378195
8.709570957095709,0.03657501829248856
8.742940960762743,0.08702032582408074
8.776310964429776,0.09370175663956239
8.80968096809681,0.08634862941706338
8.843050971763843,0.10823238012563847
8.876420975430875,0.18911538608614126
8.90979097909791,0.3236006951213328
8.943160982764942,0.4678769695009308
8.976530986431976,0.5577712839997919
9.009900990099009,0.5390262187357322
9.043270993766043,0.39385841529540855
9.076640997433076,0.15007019720631745
9.11001100110011,-0.1312590963858091
9.143381004767143,-0.3821025774544617
9.176751008434175,-0.5539722086380767
9.21012101210121,-0.632259154992554
9.243491015768242,-0.6338253250197835
9.276861019435277,-0.5919662778507951
9.31023102310231,-0.5378817689373249
9.343601026769344,-0.487455788495265
9.376971030436376,-0.43799678350531907
9.41034103410341,-0.374453766435613
9.443711037770443,-0.28075942420292016
9.477081041437476,-0.15041734971640033
9.51045104510451,0.008578051608739099
9.543821048771543,0.1763929264929481
9.577191052438577,0.3296566670979668
9.61056105610561,0.450688837147251
9.643931059772644,0.532727147332752
9.677301063439677,0.5788681674399603
9.710671067106711,0.596334195498815
9.744041070773743,0.5903751280534039
9.777411074440776,0.5618657712244223
9.81078107810781,0.5096832699162316
9.844151081774843,0.43531032338136993
9.877521085441877,0.34535973638103035
9.91089108910891,0.24919677364028087
9.944261092775944,0.1527158714976829
9.977631096442977,0.05297255408010217
10.011001100110011,-0.06105934425817528
10.044371103777044,-0.19986990893354178
10.077741107444076,-0.360948516927212
10.11111111111111,-0.5205325114427782
10.144481114778143,-0.6366846439945932
10.177851118445178,-0.6647778813217049
10.21122112211221,-0.5787994187889759
10.244591125779245,-0.38739479312683656
10.277961129446277,-0.13525915614853323
10.311331133113312,0.11230620875514755
10.344701136780344,0.29495991315153597
10.378071140447377,0.38056511932406345
10.411441144114411,0.3743783831746035
10.444811147781444,0.3095572033435258
10.478181151448478,0.22435012099963703
10.51155115511551,0.13885685663806738
10.544921158782545,0.0449380268099333
10.578291162449577,-0.08414760627866147
10.611661166116612,-0.2690801944690108
10.645031169783644,-0.49892794496799014
10.678401173450677,-0.7208622677866106
10.711771177117711,-0.8541122395715255
10.745141180784744,-0.8241141759300454
10.778511184451778,-0.6008862008639008
10.81188118811881,-0.22158407583699768
10.845251191785845,0.21623862714079195
10.878621195452878,0.5898610004984394
10.911991199119912,0.7996431769243321
10.945361202786945,0.8076840710266382
10.978731206453979,0.6487592180679024
11.012101210121012,0.4092592907374613
11.045471213788044,0.1856417151686103
11.078841217455079,0.04326419895845619
11.112211221122111,-0.0052286716366687835
11.145581224789145,0.005957140030187874
11.178951228456178,0.02270477499537607
11.212321232123212,0.002896554368745023
11.245691235790245,-0.0632218334915172
11.27906123945728,-0.15256014215364186
11.312431243124312,-0.22551753578177833
11.345801246791344,-0.24802208061621053
11.379171250458379,-0.20733155629694258
11.412541254125411,-0.11519099989582693
11.445911257792446,0.00041883702334280954
11.479281261459478,0.10849734098875927
11.512651265126513,0.18607793298298916
11.546021268793545,0.22298360220307273
11.57939127246058,0.2203307507756014
11.612761276127612,0.18586259330571553
11.646131279794645,0.12990305755382733
11.67950128346168,0.06424071173454847
11.712871287128712,0.0036626223470845594
11.746241290795746,-0.032393144223259854
11.779611294462779,-0.021344838876410848
11.812981298129813,0.05579039800684529
11.846351301796846,0.20316279996287742
11.87972130546388,0.39855412229179094
11.913091309130913,0.5882259178184165
11.946461312797945,0.6945262251813493
11.97983131646498,0.6383373002075522
12.013201320132012,0.37105981210541505
12.046571323799046,-0.09624051314564638
12.079941327466079,-0.681169998317318
12.113311331133113,-1.2452748710103245
12.146681334800146,-1.6344308031048567
12.18005133846718,-1.7305396052803235
12.213421342134213,-1.4942949286988718
12.246791345801245,-0.9815345035109984
12.28016134946828,-0.3263746621564947
12.313531353135312,0.3022925989251098
12.346901356802347,0.7543475780013951
12.38027136046938,0.9426680426129412
12.413641364136414,0.8634639587657714
12.447011367803446,0.5879204037452618
12.48038137147048,0.23100761900153668
12.513751375137513,-0.08914379653980369
12.547121378804546,-0.2861439274682795
12.58049138247158,-0.32367719802004474
12.613861386138613,-0.2144876168566252
12.647231389805647,-0.005094252895571487
12.68060139347268,0.24454634288303978
12.713971397139714,0.47801529349566946
12.747341400806746,0.6519031573396913
12.78071140447378,0.7384782669928662
12.814081408140813,0.7251154844765698
12.847451411807846,0.6139452313782527
12.88082141547488,0.42282222607326936
12.914191419141913,0.18586640121805764
12.947561422808947,-0.049653011683464206
12.98093142647598,-0.23238725812816485
13.014301430143014,-0.3211348046538534
13.047671433810047,-0.29968721267156606
13.081041437477081,-0.185545529147224
13.114411441144114,-0.026838514991557705
13.147781444811146,0.1136625094853982
13.18115144847818,0.18234545342023042
13.214521452145213,0.15662616014123776
13.247891455812248,0.05475778216305559
13.28126145947928,-0.07190882504863448
13.314631463146315,-0.16190683525665686
13.348001466813347,-0.17221993725293072
13.381371470480381,-0.09950196987335383
13.414741474147414,0.01630061281415326
13.448111477814447,0.10842613656559479
13.481481481481481,0.11300317345295456
13.514851485148514,-0.001376796530924334
13.548221488815548,-0.2178245713039811
13.58159149248258,-0.47635227753728626
13.614961496149615,-0.6976291170546544
13.648331499816647,-0.8144350330021114
13.681701503483682,-0.7969413073991737
13.715071507150714,-0.6614169109343281
13.748441510817747,-0.45987361536670335
13.781811514484781,-0.25659431036376257
13.815181518151814,-0.1025775994093075
13.848551521818848,-0.01865170127239792
13.88192152548588,0.006981779585067183
13.915291529152915,0.00790126988857064
13.948661532819948,0.021888307717723515
13.982031536486982,0.07503705327055085
14.015401540154015,0.1739383250630407
14.048771543821047,0.3077085574129227
14.082141547488082,0.45660766467516223
14.115511551155114,0.6009813793584026
14.148881554822148,0.7249973969575347
14.182251558489181,0.8139399680227141
14.215621562156215,0.8491325711491514
14.248991565823248,0.8071917422980492
14.282361569490282,0.6679814802624059
14.315731573157315,0.42935995985168685
14.349101576824348,0.12058059882527654
14.382471580491382,-0.19558617493893618
14.415841584158414,-0.4374908273611421
14.449211587825449,-0.5328144966903245
14.482581591492481,-0.44900347007823943
14.515951595159516,-0.21162473093084266
14.549321598826548,0.09937659787285934
14.582691602493583,0.3757937128670787
14.616061606160615,0.5194979764889862
14.649431609827648,0.4770768008848459
14.682801613494682,0.2567259190948649
14.716171617161715,-0.07818659187149576
14.749541620828749,-0.434021832958454
14.782911624495782,-0.7183671025023673
14.816281628162816,-0.8657895890439379
14.849651631829849,-0.850758269348263
14.883021635496883,-0.6877472289288274
14.916391639163916,-0.4232042663553836
14.94976164283095,-0.12427695622778313
14.983131646497982,0.13378664690251085
15.016501650165015,0.2823829633634348
15.04987165383205,0.27683598695016354
15.083241657499082,0.11290711398414865
15.116611661166116,-0.16475276102311237
15.149981664833149,-0.46972356606766885
15.183351668500183,-0.6986229854739939
15.216721672167216,-0.7667707722923074
15.25009167583425,-0.6405346388986679
15.283461679501283,-0.35140452765049995
15.316831683168315,0.015920569156762397
15.35020168683535,0.3571864094490732
15.383571690502382,0.5892866671648667
15.416941694169417,0.6799626619957672
15.45031169783645,0.6538830719520838
15.483681701503484,0.5737974691631101
15.517051705170516,0.5069250966347119
15.55042170883755,0.4929364598728106
15.583791712504583,0.5281903396810925
15.617161716171616,0.5724441498391294
15.65053171983865,0.573268923933943
15.683901723505683,0.49518028004759457
15.717271727172717,0.33891765844452876
15.75064173083975,0.14185148650221927
15.784011734506784,-0.039926426575852145
15.817381738173816,-0.1585523757006696
15.85075174184085,-0.19724704950407276
15.884121745507883,-0.17826691539548237
15.917491749174916,-0.1521252132866511
15.95086175284195,-0.172722242727824
15.984231756508983,-0.26953138414270494
16.017601760176017,-0.429916223403669
16.05097176384305,-0.6009235145875911
16.084341767510082,-0.7114882339263338
16.117711771177117,-0.7060830208760636
16.15108177484415,-0.5740473650453386
16.184451778511182,-0.3591881188321649
16.217821782178216,-0.1427385897780473
16.25119178584525,-0.005935839838491313
16.284561789512285,0.010364199557537996
16.317931793179316,-0.0712526459322279
16.35130179684635,-0.17182248370070363
16.384671800513384,-0.19166885201133946
16.41804180418042,-0.059113871376479936
16.45141180784745,0.23018743980810075
16.484781811514484,0.6021598276277634
16.51815181518152,0.9280557100621274
16.55152181884855,1.0742372343806106
16.584891822515583,0.9576045561929714
16.618261826182618,0.5835658367887644
16.651631829849652,0.050568198382823996
16.685001833516683,-0.4812230889665551
16.718371837183717,-0.845405035895333
16.75174184085075,-0.9282140616865316
16.785111844517782,-0.7090369326476779
16.818481848184817,-0.2677237011487947
16.85185185185185,0.24397786186984918
16.885221855518886,0.6564044410606843
16.918591859185916,0.8413963044541699
16.95196186285295,0.7549577268498999
16.985331866519985,0.4473283748171146
17.01870187018702,0.03750952714360162
17.05207187385405,-0.33637830349823356
17.085441877521085,-0.5698394332268821
17.11881188118812,-0.6261408970650185
17.15218188485515,-0.5390231577643285
17.185551888522184,-0.38560916813852913
17.21892189218922,-0.24440153564586523
17.252291895856253,-0.1590588797170395
17.285661899523284,-0.12436110495581225
