Frequency (Hz),Amplitude
0.0,3.6340106874520277
0.019867549668874173,3.6328718397833275
0.039735099337748346,3.6294576349566294
0.059602649006622516,3.6237750919072815
0.07947019867549669,3.615835923558607
0.09933774834437085,3.6056565590105705
0.11920529801324503,3.5932581748868606
0.13907284768211922,3.578666736120347
0.15894039735099338,3.5619130465321627
0.17880794701986755,3.5430328096307866
0.1986754966887417,3.5220667001221395
0.2185430463576159,3.49906044667844
0.23841059602649006,3.474064926557475
0.2582781456953642,3.447136272692491
0.27814569536423844,3.4183359938794777
0.2980132450331126,3.38773110866609
0.31788079470198677,3.3553942934865844
0.33774834437086093,3.3214040454773692
0.3576158940397351,3.285844860234839
0.3774834437086093,3.2488074245226954
0.3973509933774834,3.210388823578805
0.4172185430463576,3.1706927621854955
0.4370860927152318,3.1298297980214325
0.45695364238410596,3.087917584970903
0.4768211920529801,3.045081122987217
0.49668874172185434,3.0014530097438894
0.5165562913907285,2.957173687612187
0.5364238410596026,2.9123916774271046
0.5562913907284769,2.867263788001127
0.5761589403973509,2.821955287383431
0.5960264900662252,2.7766400184309297
0.6158940397350993,2.731500437382143
0.6357615894039735,2.686727549887667
0.6556291390728477,2.6425207145112957
0.6754966887417219,2.599087279341086
0.695364238410596,2.5566420134387506
0.7152317880794702,2.5154062919666256
0.7350993377483444,2.4756069926907
0.7549668874172186,2.4374750630512376
0.7748344370860927,2.401243722115097
0.7947019867549668,2.3671462714831506
0.8145695364238411,2.335413504478022
0.8344370860927152,2.3062707241612275
0.8543046357615894,2.2799344077563966
0.8741721854304636,2.256608586796791
0.8940397350993378,2.2364810465578238
0.9139072847682119,2.2197194817027057
0.9337748344370861,2.2064677732401163
0.9536423841059603,2.196842570127399
0.9735099337748344,2.190930362801518
0.9933774834437087,2.188785222591535
1.0132450331125828,2.1904273496073032
1.033112582781457,2.1958425243367947
1.0529801324503312,2.2049824995800176
1.0728476821192052,2.2177663063120976
1.0927152317880795,2.2340823872421045
1.1125827814569538,2.253791422255644
1.1324503311258278,2.2767296757541566
1.1523178807947019,2.3027126796212034
1.1721854304635762,2.3315390668311213
1.1920529801324504,2.3629943868844694
1.2119205298013245,2.3968547611149917
1.2317880794701985,2.432890268727673
1.2516556291390728,2.4708679887655713
1.271523178807947,2.5105546555149676
1.2913907284768211,2.551718912739627
1.3112582781456954,2.5941331743249068
1.3311258278145695,2.6375751151111224
1.3509933774834437,2.6818288262954217
1.370860927152318,2.7266856755935027
1.390728476821192,2.77194491437093
1.410596026490066,2.817414073183894
1.4304635761589404,2.862909184517487
1.4503311258278146,2.9082548677299096
1.4701986754966887,2.953284306887224
1.4900662251655628,2.997839147729266
1.5099337748344372,3.041769335728965
1.5298013245033113,3.0849329132704764
1.5496688741721854,3.127195790468696
1.5695364238410596,3.1684315011174333
1.5894039735099337,3.2085209526804026
1.609271523178808,3.247352177097804
1.6291390728476822,3.2848200874284097
1.6490066225165563,3.320826243934707
1.6688741721854303,3.355278632096533
1.6887417218543048,3.388091454161523
1.7086092715231789,3.4191849351654033
1.728476821192053,3.4484851438453994
1.7483443708609272,3.4759238284937
1.7682119205298013,3.5014382675282967
1.7880794701986755,3.5249711343732093
1.8079470198675496,3.5464703761212304
1.8278145695364238,3.565889105384795
1.847682119205298,3.583185504712627
1.8675496688741722,3.598322742951944
1.8874172185430464,3.6112689029612386
1.9072847682119205,3.621996920120336
1.9271523178807946,3.6304845311393312
1.9470198675496688,3.6367142327311393
1.9668874172185429,3.6406732497830334
1.9867549668874174,3.6423535127367384
2.0066225165562916,3.6417516439649367
2.0264900662251657,3.6388689530114537
2.0463576158940397,3.6337114406435784
2.066225165562914,3.6262898117463087
2.086092715231788,3.616619497169471
2.1059602649006623,3.6047206847189495
2.1258278145695364,3.5906183595619185
2.1456953642384105,3.574342354391755
2.165562913907285,3.555927409770129
2.185430463576159,3.535413245129803
2.205298013245033,3.5128446409792855
2.2251655629139075,3.4882715328969898
2.2450331125827816,3.461749117933236
2.2649006622516556,3.433337974048612
2.2847682119205297,3.4031041931993298
2.3046357615894038,3.371119528625948
2.324503311258278,3.337461556800045
2.3443708609271523,3.302213854320061
2.364238410596027,3.2654661898055646
2.384105960264901,3.2273147304978016
2.403973509933775,3.1878622628079523
2.423841059602649,3.1472184254327527
2.443708609271523,3.105499952844985
2.463576158940397,3.062830925922692
2.4834437086092715,3.0193430251605884
2.5033112582781456,2.9751757802619268
2.52317880794702,2.930476807888857
2.543046357615894,2.885402026909109
2.562913907284768,2.8401158375814357
2.5827814569536423,2.7947912477564842
2.6026490066225163,2.7496099253537705
2.622516556291391,2.7047621521807304
2.642384105960265,2.6604466497337986
2.662251655629139,2.6168702432125897
2.6821192052980134,2.5742473259649943
2.7019867549668874,2.53279908349519
2.7218543046357615,2.4927524347096113
2.741721854304636,2.4543386491097183
2.76158940397351,2.4177916031486313
2.781456953642384,2.3833456479634263
2.801324503311258,2.3512330750671677
2.821192052980132,2.3216811868863694
2.8410596026490067,2.294909005209653
2.8609271523178808,2.271123681739833
2.8807947019867552,2.2505167089855265
2.9006622516556293,2.2332600634903885
2.9205298013245033,2.2195024426855356
2.9403973509933774,2.209365776748582
2.9602649006622515,2.2029422032985675
2.9801324503311255,2.200291682287136
3.0,2.2014403999111525
3.0198675496688745,2.206380065341556
3.0397350993377485,2.215068146883518
3.0596026490066226,2.227429031395222
3.0794701986754967,2.2433560299825883
3.0993377483443707,2.2627141013683327
3.119205298013245,2.285343127423507
3.1390728476821192,2.3110615560913064
3.1589403973509933,2.3396702254441726
3.1788079470198674,2.3709561965557455
3.198675496688742,2.4046964482382407
3.218543046357616,2.4406613187953647
3.23841059602649,2.4786176142535425
3.2582781456953644,2.51833133534445
3.2781456953642385,2.5595700042256935
3.2980132450331126,2.602104595101338
3.3178807947019866,2.645711090096077
3.3377483443708607,2.6901716932390816
3.3576158940397347,2.7352757419805163
3.3774834437086096,2.780820358269658
3.3973509933774837,2.8266108808769164
3.4172185430463577,2.8724611182700013
3.437086092715232,2.918193457736342
3.456953642384106,2.9636388621918024
3.47682119205298,3.008636781678696
3.4966887417218544,3.053035002241959
3.5165562913907285,3.096689450873651
3.5364238410596025,3.139463971638122
3.556291390728477,3.18123008497586
3.576158940397351,3.221866739533483
3.596026490066225,3.2612600636538596
3.615894039735099,3.2993031218431037
3.6357615894039736,3.3358956800619555
3.6556291390728477,3.3709439825188774
3.6754966887417218,3.4043605417238862
3.695364238410596,3.4360639428534245
3.7152317880794703,3.4659786629386953
3.7350993377483444,3.4940349049912753
3.754966887417219,3.520168446891898
3.774834437086093,3.544320504668924
3.794701986754967,3.566437609662521
3.814569536423841,3.586471498994428
3.834437086092715,3.604379018728165
3.854304635761589,3.620122039101889
3.8741721854304636,3.633667381236892
3.8940397350993377,3.6449867547639703
3.9139072847682117,3.654056705862298
3.9337748344370858,3.660858575267369
3.9536423841059607,3.6653784658738604
3.9735099337748347,3.6676072196332004
3.993377483443709,3.667540403522923
4.013245033112583,3.665178304444683
4.033112582781457,3.6605259329885658
4.052980132450331,3.6535930360829427
4.072847682119205,3.64439411863029
4.0927152317880795,3.632948474310271
4.112582781456953,3.61928022581
4.132450331125828,3.603418374818199
4.152317880794702,3.5853968621919976
4.172185430463576,3.5652546387723634
4.19205298013245,3.543035747382851
4.211920529801325,3.518789416594153
4.231788079470199,3.492570166870042
4.251655629139073,3.4644379297225463
4.271523178807947,3.434458180490253
4.291390728476821,3.4027020853034964
4.311258278145695,3.369246662704422
4.33112582781457,3.334174960233748
4.3509933774834435,3.297576246064097
4.370860927152318,3.2595462154302073
4.390728476821192,3.2201872111553724
4.410596026490066,3.179608456971036
4.43046357615894,3.1379263015376884
4.450331125827815,3.0952644700607292
4.470198675496689,3.0517543191090573
4.490066225165563,3.007535088639798
4.509933774834438,2.96275414325956
4.529801324503311,2.917567192365097
4.549668874172186,2.8721384759676782
4.569536423841059,2.8266408996973995
4.589403973509934,2.781256098721596
4.6092715231788075,2.7361744061581597
4.629139072847682,2.691594697157404
4.649006622516556,2.6477240753974636
4.66887417218543,2.6047773646478314
4.688741721854305,2.562976364812705
4.708609271523179,2.522548830147061
4.728476821192054,2.4837271279834514
4.748344370860927,2.4467465402840065
4.768211920529802,2.41184317865314
4.788079470198675,2.3792514970259013
4.80794701986755,2.349201405697794
4.827814569536423,2.321915015731134
4.847682119205298,2.297603073272252
4.867549668874172,2.2764611770828105
4.887417218543046,2.2586659066044334
4.9072847682119205,2.24437101808099
4.927152317880794,2.233703887996795
4.947019867549669,2.226762391812003
4.966887417218543,2.223612398200294
4.986754966887418,2.2242860332086134
5.006622516556291,2.2287808260983697
5.026490066225166,2.2370597930195637
5.04635761589404,2.249052452353242
5.066225165562914,2.2646567040141323
5.086092715231788,2.2837414515688508
5.105960264900662,2.3061498065295023
5.125827814569536,2.331702692002793
5.14569536423841,2.360202658572835
5.1655629139072845,2.3914377368959276
5.185430463576159,2.425185175214
5.205298013245033,2.4612149412238287
5.225165562913908,2.499292901895157
5.245033112582782,2.5391836280491873
5.264900662251656,2.5806528000077855
5.28476821192053,2.6234692147770833
5.304635761589404,2.667406413439177
5.324503311258278,2.7122439598738337
5.344370860927152,2.7577684093077584
5.364238410596027,2.803774008435717
5.3841059602649,2.8500631689842164
5.403973509933775,2.896446754536561
5.4238410596026485,2.9427442170131988
5.443708609271523,2.988783615043149
5.463576158940397,3.034401542046433
5.483443708609272,3.0794429875050384
5.503311258278146,3.123761150841505
5.52317880794702,3.1672172236704323
5.543046357615895,3.2096801529905283
5.562913907284768,3.251026395151865
5.582781456953643,3.2911396681412963
5.602649006622516,3.329910707840958
5.622516556291391,3.367237032383152
5.642384105960264,3.4030227175001353
5.662251655629139,3.437178184803917
5.682119205298013,3.4696200041833865
5.701986754966887,3.50027071093707
5.7218543046357615,3.5290586378351794
5.741721854304636,3.5559177619959006
5.7615894039735105,3.5807875662447697
5.781456953642384,3.6036129144825195
5.801324503311259,3.6243439404999247
5.821192052980132,3.642935949635648
5.841059602649007,3.6593493326637994
5.860927152317881,3.6735494913144815
5.880794701986755,3.685506774866194
5.900662251655629,3.6951964272987707
5.920529801324503,3.702598544556085
5.940397350993377,3.70769804153536
5.960264900662251,3.7104846284933664
5.980132450331126,3.7109527966366835
6.0,3.7091018127426842
6.0198675496688745,3.704935722738669
6.039735099337749,3.6984633642484135
6.059602649006623,3.6896983881968493
6.079470198675497,3.6786592896446333
6.099337748344371,3.665369448103638
6.119205298013245,3.6498571776614317
6.139072847682119,3.6321557873157557
6.158940397350993,3.6123036519876806
6.178807947019867,3.590344294741747
6.198675496688741,3.5663264807905213
6.218543046357616,3.5403043238950884
6.23841059602649,3.512337405787397
6.258278145695365,3.482490909228521
6.2781456953642385,3.4508357652698978
6.298013245033113,3.4174488151926035
6.317880794701987,3.382412987448923
6.337748344370861,3.3458174897047965
6.357615894039735,3.30775801576097
6.377483443708609,3.2683369666903395
6.397350993377484,3.227663684940375
6.417218543046357,3.185854699377911
6.437086092715232,3.1430339782602905
6.456953642384105,3.0993331858567874
6.47682119205298,3.054891936870956
6.496688741721854,3.0098580408776163
6.516556291390729,2.96438772664203
6.5364238410596025,2.918645833395443
6.556291390728477,2.8728059528802414
6.5761589403973515,2.8270505022608994
6.596026490066225,2.781570703880465
6.6158940397351,2.736566443455346
6.635761589403973,2.6922459738627715
6.655629139072848,2.64882542753004
6.675496688741721,2.606528097071696
6.695364238410596,2.5655834418947228
6.715231788079469,2.526225778821403
6.735099337748344,2.488692618315842
6.754966887417219,2.4532226156509696
6.774834437086093,2.420053119249634
6.794701986754967,2.389417317131515
6.814569536423841,2.361541007030148
6.8344370860927155,2.336639045640383
6.854304635761589,2.3149115659120585
6.874172185430464,2.2965400854587665
6.894039735099337,2.281683660084524
6.913907284768212,2.270475259555182
6.933774834437086,2.2630185534759204
6.95364238410596,2.259385289813553
6.973509933774834,2.2596134254014126
6.993377483443709,2.263706127418542
7.013245033112583,2.2716317108664645
7.033112582781457,2.283324515395995
7.052980132450331,2.298686662799738
7.072847682119205,2.317590581483862
7.0927152317880795,2.3398821423635674
7.112582781456954,2.3653842256592386
7.132450331125828,2.3939005309968664
7.152317880794702,2.425219452435122
7.172185430463576,2.459117862027935
7.19205298013245,2.4953646757661336
7.211920529801324,2.5337241096149627
7.231788079470198,2.573958566888639
7.251655629139073,2.6158311284192632
7.271523178807947,2.6591076420777178
7.291390728476822,2.7035584274315956
7.311258278145695,2.748959624742752
7.33112582781457,2.795094225727443
7.3509933774834435,2.841752827432395
7.370860927152318,2.888734151220924
7.390728476821192,2.9358453671685605
7.410596026490066,2.9829022609664366
7.430463576158941,3.029729276388734
7.450331125827814,3.076159462001938
7.470198675496689,3.1220343464317666
7.490066225165562,3.167203762390653
7.509933774834438,3.2115256359386426
7.52980132450331,3.254865754168329
7.549668874172186,3.2970975216846994
7.569536423841059,3.3381017138763935
7.589403973509934,3.377766233010838
7.6092715231788075,3.4159858715859173
7.629139072847682,3.4526620860875665
7.649006622516557,3.4877027832880874
7.66887417218543,3.521022120430203
7.6887417218543055,3.552540320037245
7.708609271523178,3.582183499636528
7.728476821192054,3.609883516350397
7.748344370860927,3.6355778260748175
7.768211920529802,3.659209356806541
7.788079470198675,3.6807263955816056
7.80794701986755,3.7000824884357186
7.827814569536423,3.717236352781216
7.847682119205298,3.7321518016061277
7.8675496688741715,3.7447976789326325
7.887417218543046,3.755147806019267
7.907284768211921,3.763180937849422
7.927152317880795,3.768880729515273
7.9470198675496695,3.7722357121786274
7.966887417218543,3.7732392783667508
7.986754966887418,3.7718896764405363
8.006622516556291,3.7681900141531095
8.026490066225167,3.7621482712992447
8.046357615894038,3.753777321537492
8.066225165562914,3.7430949635485375
8.086092715231787,3.7301239617729856
8.105960264900663,3.7148920970493835
8.125827814569536,3.6974322275465457
8.14569536423841,3.6777823604528175
8.165562913907285,3.6559857349448217
8.185430463576159,3.6320909170081603
8.205298013245034,3.606151906717533
8.225165562913906,3.5782282585988243
8.245033112582782,3.548385215685134
8.264900662251655,3.516693857833231
8.28476821192053,3.4832312647768013
8.304635761589404,3.4480806942445166
8.324503311258278,3.411331775248941
8.344370860927151,3.3730807163355143
8.364238410596027,3.333430528146884
8.3841059602649,3.292491259076692
8.403973509933774,3.250380242025096
8.42384105960265,3.207222349287727
8.443708609271523,3.1631502513656926
8.463576158940398,3.1183046739298335
8.483443708609272,3.072834645259433
8.503311258278146,3.0268977241563935
8.52317880794702,2.9806601955732455
8.543046357615895,2.9342972179655056
8.562913907284768,2.887992902693936
8.582781456953642,2.8419403017141978
8.602649006622515,2.796341275420461
8.62251655629139,2.751406208067892
8.642384105960264,2.7073535340167845
8.66225165562914,2.6644090345927984
8.682119205298013,2.622804863279311
8.701986754966887,2.582778257050126
8.721854304635762,2.544569894847446
8.741721854304636,2.5084218715135917
8.76158940397351,2.474575267832601
8.781456953642383,2.4432673154198037
8.801324503311259,2.4147281792071618
8.821192052980132,2.389177409639569
8.841059602649008,2.3668201498453354
8.86092715231788,2.347843217256084
8.880794701986755,2.3324112106416193
8.90066225165563,2.3206628177831483
8.920529801324504,2.3127075114424875
8.940397350993377,2.308622818095685
8.960264900662251,2.3084523230092837
8.980132450331126,2.3122045370307505
9.0,2.3198526980905534
9.019867549668875,2.3313355194791985
9.039735099337747,2.346558834633177
9.059602649006623,2.365398031859134
9.079470198675496,2.3877011284496286
9.099337748344372,2.4132923061098857
9.119205298013245,2.441975719912751
9.139072847682119,2.4735393998900745
9.158940397350994,2.5077590845917554
9.178807947019868,2.544401855105797
9.198675496688743,2.583229471523865
9.218543046357615,2.6240013475662596
9.23841059602649,2.666477129931909
9.258278145695364,2.710418874929832
9.27814569536424,2.7555928351655075
9.298013245033111,2.8017708834376753
9.317880794701987,2.8487316100797027
9.33774834437086,2.8962611346169838
9.357615894039736,2.9441536737951552
9.37748344370861,2.9922119067247523
9.397350993377483,3.0402471749347195
9.417218543046358,3.088079551222397
9.437086092715232,3.135537806860818
9.456953642384107,3.182459302353445
9.47682119205298,3.228689822764296
9.496688741721854,3.2740833748481406
9.516556291390728,3.318501959838082
9.536423841059603,3.3618153328392215
9.556291390728477,3.4039007573173063
9.57615894039735,3.444642761126653
9.596026490066224,3.4839328988504144
9.6158940397351,3.5216695238792877
9.635761589403973,3.557757572586173
9.655629139072847,3.592108362118127
9.675496688741722,3.6246394026840014
9.695364238410596,3.655274224730717
9.715231788079471,3.6839422210431527
9.735099337748345,3.7105785035464707
9.754966887417218,3.7351237744147006
9.774834437086092,3.7575242109773224
9.794701986754967,3.777731363853829
9.814569536423841,3.795702067721502
9.834437086092716,3.811398364127382
9.854304635761588,3.8247874357820137
9.874172185430464,3.8358415518166513
9.894039735099337,3.8445380235415416
9.913907284768213,3.850859170307856
9.933774834437086,3.854792295147448
9.95364238410596,3.856329669940599
9.973509933774835,3.8554685299411635
9.993377483443709,3.8522110775694856
10.013245033112582,3.846564495465932
10.033112582781456,3.8385409688798724
10.052980132450331,3.8281577175512402
10.072847682119205,3.81543703732183
10.09271523178808,3.800406351791631
10.112582781456952,3.783098274409497
10.132450331125828,3.763550681456087
10.152317880794701,3.7418067964376216
10.172185430463577,3.717915286458983
10.192052980132452,3.691930371179743
10.211920529801324,3.663911944972172
10.2317880794702,3.633925712889187
10.251655629139073,3.602043341004757
10.271523178807948,3.568342621598898
10.29139072847682,3.5329076535107338
10.311258278145695,3.495829037760568
10.331125827814569,3.4572040882256365
10.350993377483444,3.4171370567197332
10.370860927152318,3.3757393712467616
10.390728476821192,3.333129885437938
10.410596026490065,3.2894351362038385
10.43046357615894,3.2447896053923513
10.450331125827816,3.1993359796947516
10.470198675496688,3.153225401136428
10.490066225165563,3.106617698179392
10.509933774834437,3.0596815847133385
10.529801324503312,3.012594810997533
10.549668874172186,2.9655442469456754
10.56953642384106,2.9187258740701845
10.589403973509933,2.8723446580390637
10.609271523178808,2.8266142693528846
10.629139072847682,2.7817566154441455
10.649006622516556,2.7380011439996443
10.66887417218543,2.6955838751320376
10.688741721854305,2.6547461199646585
10.70860927152318,2.6157328461666522
10.728476821192054,2.5787906579753326
10.748344370860927,2.544165370211132
10.7682119205298,2.512099173435479
10.788079470198676,2.4828274109610096
