Time (s),Filtered Signal
0.0,0.05486783515760115
0.033370535714285714,-0.05011641041093162
0.06674107142857143,-0.07980011741989948
0.10011160714285713,0.013035856833670029
0.13348214285714285,0.22887695753644788
0.16685267857142858,0.5214843315041355
0.20022321428571427,0.8153352777057762
0.23359375,1.0332741392912863
0.2669642857142857,1.1234303419056777
0.30033482142857143,1.075122371448685
0.33370535714285715,0.9181700660965405
0.36707589285714287,0.7069401357909045
0.40044642857142854,0.49677639587564315
0.43381696428571426,0.32346405734564987
0.4671875,0.19452988912238228
0.5005580357142857,0.09516250323096201
0.5339285714285714,0.004200487406622774
0.5672991071428571,-0.0892807030595596
0.6006696428571429,-0.17812256286053094
0.6340401785714286,-0.24216230584937443
0.6674107142857143,-0.26299677979490105
0.70078125,-0.2395357720219647
0.7341517857142857,-0.19469652469572357
0.7675223214285715,-0.16825464391789371
0.8008928571428571,-0.19849479326925953
0.8342633928571428,-0.30175997039224534
0.8676339285714285,-0.46072344667146986
0.9010044642857142,-0.6282142548485804
0.934375,-0.745812530902476
0.9677455357142857,-0.7691273025589443
1.0011160714285714,-0.6882614358210857
1.0344866071428571,-0.5339251717803363
1.0678571428571428,-0.36588243223926326
1.1012276785714286,-0.2480604820562584
1.1345982142857143,-0.22051652932749086
1.16796875,-0.28017781585774776
1.2013392857142857,-0.37909251459602955
1.2347098214285714,-0.44193676501813933
1.2680803571428572,-0.39640032024761546
1.3014508928571429,-0.20422608622788088
1.3348214285714286,0.12014742107001798
1.3681919642857143,0.5115113163218588
1.4015625,0.8759363744904586
1.4349330357142858,1.12401552659406
1.4683035714285715,1.2018464874899648
1.5016741071428572,1.1076536506802406
1.535044642857143,0.8883099117982834
1.5684151785714286,0.6184035361485486
1.6017857142857141,0.3713098556690577
1.6351562499999999,0.19429435153857402
1.6685267857142856,0.09716989026416718
1.7018973214285713,0.0576758822801713
1.735267857142857,0.039286958408825144
1.7686383928571427,0.011832414035127893
1.8020089285714285,-0.0354228071830125
1.8353794642857142,-0.09418604254400673
1.86875,-0.1494098047371678
1.9021205357142856,-0.1949332701833358
1.9354910714285714,-0.24180596169492932
1.968861607142857,-0.3128326037281131
2.002232142857143,-0.4255455466711663
2.0356026785714287,-0.5738946015754345
2.0689732142857142,-0.7211740500171879
2.10234375,-0.8110306763086834
2.1357142857142857,-0.7927440513786287
2.169084821428571,-0.6477702380268356
2.202455357142857,-0.40268181849043266
2.2358258928571426,-0.12056987422976873
2.2691964285714286,0.1253141987723261
2.302566964285714,0.28232114788227464
2.3359375,0.3382398264535483
2.3693080357142855,0.321276551914678
2.4026785714285714,0.2819204338926012
2.436049107142857,0.26718775359084634
2.469419642857143,0.3000895934352168
2.5027901785714284,0.3727589856438879
2.5361607142857143,0.4539143186194011
2.56953125,0.5048375450762794
2.6029017857142858,0.4957590991926834
2.6362723214285713,0.41643082627451117
2.669642857142857,0.2785007792382568
2.7030133928571427,0.11061963639857976
2.7363839285714286,-0.051111368975189954
2.769754464285714,-0.1743249288704292
2.803125,-0.2401805845564544
2.8364955357142856,-0.24889457333830942
2.8698660714285715,-0.21890000227486936
2.903236607142857,-0.17937896950161525
2.936607142857143,-0.15852163866133395
2.9699776785714285,-0.17204148465686087
3.0033482142857144,-0.21684529004478353
3.03671875,-0.2727806401072509
3.070089285714286,-0.31183938731999283
3.1034598214285714,-0.31080172412281915
3.1368303571428573,-0.2617460455755573
3.170200892857143,-0.1758541623982714
3.2035714285714283,-0.07896539088559262
3.2369419642857142,-0.0009239418928672544
3.2703124999999997,0.03669146159549793
3.3036830357142857,0.02940914154681445
3.337053571428571,-0.0080928380420647
3.370424107142857,-0.04720250298865773
3.4037946428571426,-0.05553215092293365
3.4371651785714286,-0.008211535300409741
3.470535714285714,0.1033160584909196
3.50390625,0.26728105599551916
3.5372767857142855,0.4530701299328771
3.5706473214285714,0.6177910326829625
3.604017857142857,0.7167989459924035
3.637388392857143,0.716259958838874
3.6707589285714284,0.6046689322231515
3.7041294642857143,0.3992875714786437
3.7375,0.14389210092668386
3.7708705357142858,-0.1031847421538655
3.8042410714285713,-0.2875513698023013
3.837611607142857,-0.3769375849834581
3.8709821428571427,-0.3714153456119017
3.9043526785714286,-0.30115821234822754
3.937723214285714,-0.21292502970758306
3.97109375,-0.15157513987195614
4.004464285714286,-0.1446290567913847
4.0378348214285715,-0.19548476963163836
4.0712053571428575,-0.2861978042469561
4.1045758928571425,-0.3866367365110894
4.1379464285714285,-0.46530728534874916
4.171316964285714,-0.49816527577011604
4.2046875,-0.4738053599234601
4.238058035714285,-0.3949719301436258
4.271428571428571,-0.27686452003893974
4.304799107142857,-0.14269286185890687
4.338169642857142,-0.017135642240206972
4.371540178571428,0.08093094247772491
4.404910714285714,0.14423127722578385
4.43828125,0.17902096250742286
4.471651785714285,0.20179049917574254
4.505022321428571,0.2315106957822404
4.538392857142857,0.2804606252894658
4.571763392857143,0.3477835038655233
4.605133928571428,0.4189876652117558
4.638504464285714,0.4718848749981593
4.671875,0.48628719633001394
4.705245535714286,0.45289521588440845
4.738616071428571,0.3772564261353626
4.771986607142857,0.277175502161878
4.805357142857143,0.17511924053248704
4.838727678571429,0.08934446443716951
4.872098214285714,0.02773582611396493
4.90546875,-0.01322429611041862
4.938839285714286,-0.044420102611059296
4.972209821428572,-0.07733121463717156
5.005580357142857,-0.11795971216190275
5.038950892857143,-0.16437610137317277
5.072321428571429,-0.2088637921088602
5.105691964285715,-0.24314926399334238
5.1390625,-0.2634677789062334
5.172433035714286,-0.27231258921729223
5.2058035714285715,-0.27575246358861466
5.2391741071428575,-0.2780433791227023
5.2725446428571425,-0.277126718929704
5.3059151785714285,-0.2642317027588498
5.339285714285714,-0.22832738926312268
5.3726562499999995,-0.16310840732918463
5.406026785714285,-0.07246055212691306
5.439397321428571,0.028960428912072532
5.472767857142857,0.12068077150372872
5.506138392857142,0.1844057944279659
5.539508928571428,0.21089616824494464
5.572879464285714,0.20227472915880418
5.60625,0.16892873066289102
5.639620535714285,0.1231011630397019
5.672991071428571,0.0728606630326884
5.706361607142857,0.019655716375065455
5.739732142857143,-0.0394474179806172
5.773102678571428,-0.10627182844067781
5.806473214285714,-0.17596278099552123
5.83984375,-0.23477265474999517
5.873214285714286,-0.2631969148231546
5.906584821428571,-0.24379062859184863
5.939955357142857,-0.17019605395799067
5.973325892857143,-0.05254527154981607
6.006696428571429,0.08435796233947655
6.040066964285714,0.21005817773323937
6.0734375,0.300555200354302
6.106808035714286,0.3473393567724404
6.140178571428572,0.3586644331366661
6.173549107142857,0.3526251795965241
6.206919642857143,0.34612001496072303
6.240290178571429,0.34583604266119156
6.273660714285715,0.3458390723595537
6.30703125,0.33228427330882804
6.340401785714286,0.2917595069208207
6.3737723214285715,0.21820718744675555
6.407142857142857,0.11494547226770817
6.4405133928571425,-0.008264296079940434
6.4738839285714285,-0.14019712996010575
6.507254464285714,-0.2715843375922318
6.5406249999999995,-0.39510873599409035
6.573995535714285,-0.5028997351593358
6.607366071428571,-0.5843540338798834
6.640736607142857,-0.6269037767236845
6.674107142857142,-0.6202454921231983
6.707477678571428,-0.561934066733072
6.740848214285714,-0.4608440694388648
6.77421875,-0.33578239973679175
6.807589285714285,-0.2091481092119075
6.840959821428571,-0.09847112604457159
6.874330357142857,-0.010142383488814159
6.907700892857143,0.06130115061240951
6.941071428571428,0.12790850759510558
6.974441964285714,0.19992605674646124
7.0078125,0.2789073069238381
7.041183035714286,0.35611342704539806
7.074553571428571,0.41700909639367073
7.107924107142857,0.4492005704011856
7.141294642857143,0.44922749330493755
7.174665178571429,0.4243288394083452
7.208035714285714,0.3882383885253769
7.24140625,0.35350813971446754
7.274776785714286,0.32479363529147587
7.308147321428572,0.2968392468990138
7.341517857142857,0.25803304384589126
7.374888392857143,0.19715348249501918
7.408258928571429,0.10931997458304159
7.441629464285715,-0.0018880630434236845
7.475,-0.12644939558443588
7.508370535714286,-0.25180299053046606
7.5417410714285715,-0.3657352507450784
7.575111607142857,-0.45693305694513514
7.6084821428571425,-0.5143461556853607
7.6418526785714285,-0.5278262192763948
7.675223214285714,-0.4914974886115407
7.7085937499999995,-0.40857706834756485
7.741964285714285,-0.2940142906084559
7.775334821428571,-0.17147954873040133
7.808705357142857,-0.06435935782635656
7.842075892857142,0.015297027263285577
7.875446428571428,0.07346828864885457
7.908816964285714,0.13150818005492904
7.9421875,0.21406654420562998
7.975558035714285,0.33306995990601174
8.008928571428571,0.4761023358347878
8.042299107142856,0.6058590004003487
8.075669642857143,0.6720137809424575
8.109040178571428,0.6307480656152892
8.142410714285715,0.4635322515051717
8.17578125,0.18720762369065777
8.209151785714285,-0.14857933290328137
8.242522321428572,-0.47523393406134423
8.275892857142857,-0.7249262230614509
8.309263392857142,-0.8493568164946643
8.342633928571429,-0.8320379172705364
8.376004464285714,-0.6912363247214521
8.409375,-0.4734610333408521
8.442745535714286,-0.23947125113883833
8.47611607142857,-0.04632620003596828
8.509486607142858,0.06974057952947836
8.542857142857143,0.10417367834719572
8.576227678571428,0.08411644683777525
8.609598214285715,0.05625291383796778
8.64296875,0.06610101216369739
8.676339285714285,0.13693266100044024
8.709709821428572,0.257841711748584
8.743080357142857,0.387160134005404
8.776450892857143,0.4705579251095653
8.809821428571428,0.4660883712391933
8.843191964285714,0.3648396703369436
8.8765625,0.19764199773717356
8.909933035714285,0.024571095859024762
8.94330357142857,-0.08833124249916408
8.976674107142857,-0.09526655819577828
9.010044642857142,0.010913944286375453
9.04341517857143,0.19517576548965726
9.076785714285714,0.3925278260435113
9.11015625,0.5309675699593959
9.143526785714286,0.5565743210252304
9.176897321428571,0.45189341230672536
9.210267857142856,0.24138024892393098
9.243638392857143,-0.017786726434922826
9.277008928571428,-0.25612018927432467
9.310379464285715,-0.4160014378509851
9.34375,-0.47065612303407717
9.377120535714285,-0.430851511625937
9.410491071428572,-0.33705513987911173
9.443861607142857,-0.24071448057682077
9.477232142857142,-0.18281050595687465
9.510602678571429,-0.17881560598044893
9.543973214285714,-0.21608665830109325
9.57734375,-0.26392856724265623
9.610714285714286,-0.2908054728488746
9.64408482142857,-0.2801843977242571
9.677455357142858,-0.23760906820197356
9.710825892857143,-0.1861328884582595
9.744196428571428,-0.15290596572391252
9.777566964285715,-0.15382865038496843
9.8109375,-0.183937336629244
9.844308035714285,-0.21834924123677302
9.877678571428572,-0.22350322077411927
9.911049107142857,-0.17340930933156615
9.944419642857143,-0.06301933664179972
9.977790178571428,0.08797385160091908
10.011160714285714,0.2429955988420105
10.04453125,0.3643594943870316
10.077901785714285,0.42916417322961875
10.11127232142857,0.43754106198146125
10.144642857142857,0.40959602072233015
10.178013392857142,0.373318365757909
10.21138392857143,0.3501427827706894
10.244754464285714,0.34542392244801456
10.278125,0.347860876474942
10.311495535714286,0.33704817188407515
10.344866071428571,0.29458020457385625
10.378236607142856,0.21318830045537454
10.411607142857143,0.10016296426864042
10.444977678571428,-0.02559487093554979
10.478348214285715,-0.14080812068607498
10.51171875,-0.22591671716938147
10.545089285714285,-0.2708386226554964
10.578459821428572,-0.27658432999301613
10.611830357142857,-0.25275705253167896
10.645200892857142,-0.21259467883443864
10.678571428571429,-0.16800610585001208
10.711941964285714,-0.12669128456265438
10.745312499999999,-0.09208830571416528
10.778683035714286,-0.06528781629598435
10.81205357142857,-0.04712424150764698
10.845424107142858,-0.038940577431408434
10.878794642857143,-0.04177379417579392
10.912165178571428,-0.05498242240343888
10.945535714285715,-0.0756754565502615
10.97890625,-0.09948097520799382
11.012276785714285,-0.12195844685845729
11.045647321428572,-0.13942173353954992
11.079017857142857,-0.14859946402517415
11.112388392857143,-0.14582524800984492
11.145758928571428,-0.12713855345910618
11.179129464285714,-0.09005012625309193
11.2125,-0.036159937335446236
11.245870535714285,0.027443124871820806
11.27924107142857,0.08984709967184205
11.312611607142857,0.14102694143609182
11.345982142857142,0.1771857630073955
11.37935267857143,0.20315656638250287
11.412723214285714,0.22953067938812902
11.44609375,0.2653905111161621
11.479464285714286,0.3107424623138136
11.512834821428571,0.35364703586114615
11.546205357142856,0.3745938932059829
11.579575892857143,0.3560967428995307
11.612946428571428,0.29174819409885155
11.646316964285715,0.18887615561291607
11.6796875,0.06300708269297318
11.713058035714285,-0.07192797722504184
11.746428571428572,-0.21037387795796064
11.779799107142857,-0.35344271641060176
11.813169642857142,-0.4993261252805137
11.846540178571429,-0.6326954387021582
11.879910714285714,-0.7218198552310311
11.913281249999999,-0.7279195846386181
11.946651785714286,-0.6234864079726559
11.98002232142857,-0.4099653906700829
12.013392857142858,-0.12444137303193524
12.046763392857143,0.16960936428878673
12.080133928571428,0.4040841632002738
12.113504464285715,0.5306593799226497
12.146875,0.5368429806755135
12.180245535714285,0.44710081594371165
12.213616071428572,0.30969090419031914
12.246986607142857,0.1760527752730089
12.280357142857143,0.08207046709539859
12.313727678571428,0.03863342179281188
12.347098214285714,0.03401919690306052
12.38046875,0.045162464475650706
12.413839285714285,0.051290621950432345
12.44720982142857,0.04316103832304692
12.480580357142857,0.024129972251894352
12.513950892857142,0.003884926451785014
12.54732142857143,-0.010519460048885007
12.580691964285714,-0.020607497371723946
12.6140625,-0.03581147945078714
12.647433035714286,-0.06663859177923431
12.680803571428571,-0.11586259625617884
12.714174107142856,-0.17327820594310112
12.747544642857143,-0.21775179494301838
12.780915178571428,-0.226274609932886
12.814285714285713,-0.1856547000635789
12.84765625,-0.1006544138968718
12.881026785714285,0.006090678202561067
12.914397321428572,0.10287495654586831
12.947767857142857,0.16238028725508732
12.981138392857142,0.17322721995225263
13.014508928571429,0.14400147653854925
13.047879464285714,0.09798887574316827
13.081249999999999,0.061529186763613825
13.114620535714286,0.05194535447939065
13.14799107142857,0.07091962337198203
13.181361607142858,0.10616453453706179
13.214732142857143,0.1399456903732019
13.248102678571428,0.15964366180030312
13.281473214285715,0.16467608564878455
13.31484375,0.1660317661075299
13.348214285714285,0.1784281038716507
13.381584821428572,0.2089916934108176
13.414955357142857,0.2486120446684893
13.448325892857143,0.2715071301123431
13.481696428571428,0.24493608829639182
13.515066964285714,0.14569849141092572
13.5484375,-0.024431168824397855
13.581808035714285,-0.2332045898525885
13.61517857142857,-0.4274310990816809
13.648549107142857,-0.5552214387592767
13.681919642857142,-0.5911156135979813
13.71529017857143,-0.5509657626215629
13.748660714285714,-0.48698496626412785
13.78203125,-0.46282240729438784
13.815401785714286,-0.5193777577058634
13.848772321428571,-0.6484105019891914
13.882142857142856,-0.7887924333459315
13.915513392857143,-0.849830899319753
13.948883928571428,-0.7523738750738315
13.982254464285713,-0.4685216684123461
14.015625,-0.040259746190361136
14.048995535714285,0.4330235780129947
14.082366071428572,0.8330494204957618
14.115736607142857,1.069306624548587
14.149107142857142,1.112172522843458
14.182477678571429,0.9979065075838177
14.215848214285714,0.8050488848667232
14.249218749999999,0.6154798964955703
14.282589285714286,0.4797649890052359
14.31595982142857,0.4025963424804514
14.349330357142858,0.35273991116680364
14.382700892857143,0.28931196481500804
14.416071428571428,0.18899499430846994
14.449441964285715,0.06013413919326587
14.4828125,-0.0620824314493109
14.516183035714285,-0.13498775422728362
14.549553571428572,-0.1312508738243294
14.582924107142857,-0.053617956763425026
14.616294642857143,0.06480172668430678
14.649665178571428,0.17369404965917315
14.683035714285714,0.2253084117979174
14.71640625,0.19210447686792276
14.749776785714285,0.075631942843224
14.78314732142857,-0.09566718195008525
14.816517857142857,-0.27769704396917755
14.849888392857142,-0.4261547016473579
14.88325892857143,-0.5106008226642018
14.916629464285714,-0.5226069110942084
14.95,-0.4757289820508624
14.983370535714286,-0.39796631596432197
15.016741071428571,-0.32002885605368236
15.050111607142856,-0.2641846585159492
15.083482142857143,-0.23802047876331975
15.116852678571428,-0.23521116318835383
15.150223214285713,-0.24227618291364855
15.18359375,-0.24766738177813047
15.216964285714285,-0.24856913171162268
15.250334821428572,-0.251969510746673
15.283705357142857,-0.26938499806621047
15.317075892857142,-0.3078166100973923
15.350446428571429,-0.36158806532607274
15.383816964285714,-0.40964088337588106
15.417187499999999,-0.4205619222152455
15.450558035714286,-0.36403624364895576
15.48392857142857,-0.22414571821415608
15.517299107142858,-0.00855133822287246
15.550669642857143,0.2510682511670216
15.584040178571428,0.5083097514878483
15.617410714285715,0.7176896796564183
15.65078125,0.8502129073377335
15.684151785714285,0.9022249646662558
15.717522321428572,0.8937310598532242
15.750892857142857,0.8569923888508287
15.784263392857143,0.8205535017571707
15.817633928571428,0.7959238978774655
15.851004464285714,0.7729376404558903
15.884375,0.7258135031551924
15.917745535714285,0.6269134673656551
15.95111607142857,0.4615073417423055
15.984486607142857,0.23636875627672543
16.017857142857142,-0.0218493314482883
16.05122767857143,-0.277266206688783
16.084598214285712,-0.4986628861096425
16.11796875,-0.6694329777342295
16.151339285714286,-0.788998999680015
16.18470982142857,-0.8660637075150664
16.218080357142856,-0.9084796498665169
16.251450892857143,-0.9159446800698546
16.28482142857143,-0.879632318172667
16.318191964285713,-0.7886996171291485
16.3515625,-0.6397661729347474
16.384933035714287,-0.44388506589547316
16.41830357142857,-0.22688245611964655
16.451674107142857,-0.02241827572241878
16.485044642857144,0.13910446147328256
16.518415178571427,0.24054967113051662
16.551785714285714,0.2824189901427585
16.58515625,0.2800465873640625
16.618526785714284,0.25567906085446396
16.65189732142857,0.22965449920655512
16.685267857142858,0.21460133290770878
16.71863839285714,0.21436285415022996
16.752008928571428,0.2267188669324099
16.785379464285715,0.24734822562550662
16.81875,0.2724607417255087
16.852120535714285,0.2988294399243812
16.88549107142857,0.32175582331162644
16.91886160714286,0.332899370503162
16.95223214285714,0.3202209136094771
16.98560267857143,0.2712899109779547
17.018973214285715,0.17924655714656715
17.05234375,0.04873034125327206
17.085714285714285,-0.10174019345094679
17.119084821428572,-0.24335371573481468
17.152455357142856,-0.346173443897368
17.185825892857142,-0.39032330887725114
17.21919642857143,-0.3739212245692544
17.252566964285712,-0.3135212702004038
17.2859375,-0.23638846443254613
17.319308035714286,-0.16822590411929664
17.35267857142857,-0.1225593142485541
17.386049107142856,-0.097215199100052
17.419419642857143,-0.07945288488758892
17.45279017857143,-0.05645517008243849
17.486160714285713,-0.02485459289081453
17.51953125,0.006433149949800219
17.552901785714287,0.02190159540001179
17.58627232142857,0.010542732276375573
17.619642857142857,-0.024021083157733616
17.653013392857144,-0.060449708288721295
