Time (s),Filtered Signal
0.0,0.03448239404582543
0.033370165745856356,-0.12357645308521878
0.06674033149171271,-0.2550315842879896
0.10011049723756907,-0.33921324138925657
0.13348066298342542,-0.3664429137542907
0.16685082872928178,-0.3399066871454469
0.20022099447513814,-0.27383421799497387
0.2335911602209945,-0.1883804796389551
0.26696132596685085,-0.10300346937618193
0.30033149171270723,-0.0309952473149986
0.33370165745856356,0.022546708264751927
0.3670718232044199,0.058701890672212986
0.4004419889502763,0.08025963727752367
0.43381215469613266,0.08782687462774587
0.467182320441989,0.07918090140300034
0.5005524861878453,0.05242064776327528
0.5339226519337017,0.010781031647297126
0.5672928176795581,-0.03456037108023089
0.6006629834254145,-0.06656398301483685
0.6340331491712707,-0.06929160948689599
0.6674033149171271,-0.03642141680985836
0.7007734806629835,0.023654539549172748
0.7341436464088398,0.08981138000728729
0.7675138121546962,0.13717432336618143
0.8008839779005525,0.14894805752929888
0.8342541436464089,0.12494134928014856
0.8676243093922653,0.08198967288469851
0.9009944751381216,0.04553035237147249
0.934364640883978,0.03618450290006846
0.9677348066298344,0.05794213850820984
1.0011049723756906,0.09402636020881991
1.0344751381215471,0.11296479457553121
1.0678453038674034,0.08252957512833062
1.1012154696132597,-0.014624906345905943
1.1345856353591162,-0.17073702015139772
1.1679558011049724,-0.3528614475827111
1.201325966850829,-0.5132021571285061
1.2346961325966852,-0.6056948647939525
1.2680662983425415,-0.602249907352901
1.301436464088398,-0.5024696675717648
1.3348066298342542,-0.33346101705112313
1.3681767955801105,-0.14027891498993958
1.401546961325967,0.029010977819267533
1.4349171270718233,0.13799998756691192
1.4682872928176796,0.1714229308699488
1.501657458563536,0.1372539627757694
1.5350276243093923,0.06243197102984527
1.5683977900552488,-0.014756022007183525
1.601767955801105,-0.05280098396189532
1.6351381215469614,-0.014631289579908092
1.6685082872928179,0.12446264442618496
1.7018784530386741,0.36810485172946095
1.7352486187845306,0.6910963574383935
1.768618784530387,1.037100941125624
1.8019889502762432,1.3265318999013973
1.8353591160220997,1.4759913175327064
1.868729281767956,1.4245949302377072
1.9020994475138122,1.1573374147849746
1.9354696132596687,0.7148860563142125
1.968839779005525,0.18406742983259752
2.0022099447513813,-0.32834381718625594
2.0355801104972375,-0.7285041903493776
2.0689502762430942,-0.9624258667080592
2.1023204419889505,-1.0276133695674718
2.135690607734807,-0.9670301483347659
2.169060773480663,-0.8498069378775869
2.2024309392265193,-0.7467724988278717
2.235801104972376,-0.7087820193234197
2.2691712707182323,-0.7532998737056076
2.3025414364640886,-0.8616429896283332
2.335911602209945,-0.9867620702202043
2.369281767955801,-1.0693728790915817
2.402651933701658,-1.0582148751962779
2.436022099447514,-0.9283603902485306
2.4693922651933704,-0.6908862364414492
2.5027624309392267,-0.38917364936008314
2.536132596685083,-0.08196613941792656
2.5695027624309392,0.18046421227894532
2.602872928176796,0.3762846965176897
2.636243093922652,0.5179761695203358
2.6696132596685085,0.6402070352096324
2.7029834254143648,0.7752923477275233
2.736353591160221,0.9293680756654965
2.7697237569060777,1.073295898586859
2.803093922651934,1.1552597055677811
2.8364640883977903,1.130287283144193
2.8698342541436466,0.9917471585737857
2.903204419889503,0.7870141345452181
2.936574585635359,0.6060671375194766
2.969944751381216,0.5448901980897995
3.003314917127072,0.658707233768071
3.0366850828729284,0.9265906220074079
3.0700552486187846,1.245415846553296
3.103425414364641,1.4590220918093786
3.1367955801104976,1.4133277348789464
3.170165745856354,1.0167461602413748
3.20353591160221,0.28230269129447044
3.2369060773480665,-0.6656862021887654
3.2702762430939227,-1.6244738294053893
3.3036464088397794,-2.3748612756185428
3.3370165745856357,-2.7511311082729852
3.370386740331492,-2.694522900188328
3.4037569060773483,-2.2711617242551436
3.4371270718232045,-1.6475173462606345
3.4704972375690613,-1.031435225357814
3.5038674033149175,-0.5993593549788201
3.537237569060774,-0.43589072372559134
3.57060773480663,-0.5078537826384506
3.6039779005524863,-0.6825377837692438
3.6373480662983426,-0.7831168366835202
3.6707182320441993,-0.6598399370529465
3.7040883977900556,-0.2494002431962881
3.737458563535912,0.4001688906326364
3.770828729281768,1.147517429364216
3.8041988950276244,1.810026316202472
3.837569060773481,2.2281324606448125
3.8709392265193374,2.317117548858815
3.9043093922651937,2.088667040014333
3.93767955801105,1.6376366674601526
3.9710497237569062,1.102560109558719
4.0044198895027625,0.6166112775961048
4.037790055248619,0.26691002969950667
4.071160220994475,0.07493833602075999
4.104530386740332,0.0020399362145743934
4.1379005524861885,-0.025064396478709457
4.171270718232044,-0.08002541924376956
4.204640883977901,-0.20680906550140496
4.238011049723757,-0.4039297670531843
4.271381215469614,-0.6272823811088202
4.30475138121547,-0.8093003570796193
4.338121546961326,-0.8867678415420667
4.371491712707183,-0.8268247806102416
4.404861878453039,-0.6413352848087744
4.438232044198895,-0.3838954331509108
4.471602209944752,-0.13032019037478745
4.504972375690608,0.04977279540706106
4.538342541436465,0.11857615373407
4.5717127071823205,0.08199741532389643
4.605082872928177,-0.017272608003075673
4.638453038674034,-0.12231045663931225
4.67182320441989,-0.1898190048037908
4.7051933701657465,-0.2104568434712447
4.738563535911602,-0.21204963109394603
4.771933701657459,-0.24374761421620256
4.805303867403316,-0.3479653954241006
4.8386740331491715,-0.5329921307287798
4.872044198895028,-0.7596202105221852
4.905414364640884,-0.9493918119949522
4.938784530386741,-1.0123363147071456
4.972154696132597,-0.8827957592947265
5.005524861878453,-0.5477359175861408
5.03889502762431,-0.055134869910469224
5.072265193370166,0.5008497362970421
5.105635359116023,1.0108406495247682
5.1390055248618784,1.3837911170832737
5.172375690607735,1.5700051140905151
5.205745856353592,1.566883930977194
5.239116022099448,1.409079624960818
5.272486187845304,1.1507246283735495
5.30585635359116,0.8484001653561458
5.339226519337017,0.5500310715768705
5.372596685082874,0.2899172820724832
5.4059668508287295,0.08704708875871256
5.439337016574586,-0.055660463243621235
5.472707182320442,-0.15064262365772163
5.506077348066299,-0.22078547768681459
5.5394475138121555,-0.28873434539994963
5.572817679558011,-0.36317603019817196
5.606187845303868,-0.4293137799672335
5.639558011049724,-0.4513988921240998
5.672928176795581,-0.3901711935869806
5.706298342541437,-0.22937291467955226
5.739668508287293,0.0019363464743883325
5.77303867403315,0.22572014277303595
5.806408839779006,0.3373451127779701
5.839779005524862,0.2485478674395963
5.873149171270718,-0.06691066440325756
5.906519337016575,-0.5478704958041005
5.939889502762432,-1.0571641602310942
5.9732596685082875,-1.4297338740754262
6.006629834254144,-1.5383534798180003
6.04,-1.346569628878587
6.073370165745857,-0.9225820735215811
6.1067403314917135,-0.40672306885479087
6.140110497237569,0.05072780543032729
6.173480662983426,0.3493207312020351
6.206850828729282,0.4665414219795203
6.240220994475139,0.44436196506530107
6.273591160220995,0.3483228592549162
6.306961325966851,0.22705578178111666
6.340331491712708,0.09589837013227505
6.373701657458564,-0.05023899108063648
6.40707182320442,-0.20953480382811546
6.440441988950277,-0.3545411730136445
6.473812154696133,-0.4371093319979861
6.50718232044199,-0.4138838089929303
6.5405524861878455,-0.27399837750921957
6.573922651933702,-0.0484834123429848
6.607292817679559,0.2069454214556887
6.640662983425415,0.4460243658826682
6.674033149171271,0.6613497865576379
6.707403314917127,0.8890984315268411
6.740773480662984,1.1833108582386036
6.774143646408841,1.5721567616525443
6.8075138121546965,2.020254985792238
6.840883977900553,2.4198150823047366
6.874254143646409,2.619800453858539
6.907624309392266,2.483455925694669
6.9409944751381225,1.9497630228517182
6.974364640883978,1.0708231416992902
7.007734806629835,0.006577469391330794
7.041104972375691,-1.023493594046716
7.074475138121548,-1.8130906419235722
7.107845303867403,-2.2365689915072084
7.14121546961326,-2.2836921401564974
7.174585635359117,-2.0489766023256544
7.207955801104973,-1.6833812182374857
7.241325966850829,-1.332132594157365
7.274696132596685,-1.0862852222848445
7.308066298342542,-0.9659868567683554
7.341436464088399,-0.9363034084002285
7.3748066298342545,-0.9412643820289796
7.408176795580111,-0.9359629162167649
7.441546961325967,-0.9017373219581609
7.474917127071824,-0.8413463844629852
7.5082872928176805,-0.7624102247433465
7.541657458563536,-0.6623239191687968
7.575027624309393,-0.524679501999791
7.608397790055249,-0.3287745865039494
7.641767955801106,-0.0653458326049224
7.675138121546962,0.2519798079449604
7.708508287292818,0.5871050335578671
7.741878453038675,0.8939225622920661
7.775248618784531,1.133698635969749
7.808618784530387,1.2875605154803218
7.841988950276244,1.3576929815633512
7.8753591160221,1.3580627992796137
7.908729281767957,1.3018093046948755
7.9420994475138125,1.1938983575897417
7.975469613259669,1.0335181417117347
8.008839779005525,0.8238491731538057
8.042209944751383,0.5817217543511659
8.075580110497238,0.33949800401592434
8.108950276243094,0.13633272608225988
8.14232044198895,0.0027273286190860916
8.175690607734808,-0.05322294180897119
8.209060773480664,-0.05003823932893354
8.24243093922652,-0.02487059341374926
8.275801104972377,-0.017321729963082292
8.309171270718233,-0.0532201481590365
8.342541436464089,-0.13600202324045355
8.375911602209946,-0.24883692409330715
8.409281767955802,-0.3650014309179028
8.442651933701658,-0.4603491139308219
8.476022099447514,-0.5216604787946125
8.509392265193371,-0.5476692987581778
8.542762430939227,-0.543698454352582
8.576132596685083,-0.5139636866988078
8.60950276243094,-0.45640430652760766
8.642872928176796,-0.3632572428175276
8.676243093922652,-0.22742551606847902
8.709613259668508,-0.051506845718354254
8.742983425414366,0.145382820940448
8.776353591160222,0.32729807383426773
8.809723756906077,0.4493104040920735
8.843093922651935,0.471528499647102
8.87646408839779,0.37428715185673284
8.909834254143647,0.1684025461013006
8.943204419889504,-0.10424266085855312
8.97657458563536,-0.38109485762480116
9.009944751381216,-0.5973154937400645
9.043314917127072,-0.7056344354353444
9.07668508287293,-0.6900151326855196
9.110055248618785,-0.567698376116651
9.143425414364641,-0.37926927141796934
9.176795580110499,-0.17205704411229292
9.210165745856354,0.014761160451493862
9.24353591160221,0.15667467966763687
9.276906077348068,0.24104509701448618
9.310276243093924,0.2603003844114891
9.34364640883978,0.20881159870690186
9.377016574585635,0.08773579251939599
9.410386740331493,-0.08506597207518465
9.443756906077349,-0.26881800924608956
9.477127071823205,-0.4059729981515007
9.510497237569062,-0.442241633679768
9.543867403314918,-0.3519983235327318
9.577237569060774,-0.15438405714083708
9.610607734806631,0.09178908186003945
9.643977900552487,0.3149442597050829
9.677348066298343,0.46660333519968433
9.710718232044199,0.5461986759315692
9.744088397790057,0.599203366718663
9.777458563535912,0.6872173343001774
9.810828729281768,0.8449742111439981
9.844198895027626,1.048145957196054
9.877569060773482,1.2117624628189299
9.910939226519337,1.2236782639794037
9.944309392265193,0.9988319817135787
9.97767955801105,0.5280672870598554
10.011049723756907,-0.1034452214639845
10.044419889502763,-0.7390961643648145
10.07779005524862,-1.2062968087833232
10.111160220994476,-1.3804797637127835
10.144530386740332,-1.230080121535983
10.17790055248619,-0.8243121134593773
10.211270718232045,-0.3026182636822361
10.244640883977901,0.1790175476688578
10.278011049723757,0.50143904624939
10.311381215469615,0.6146153862151084
10.34475138121547,0.5394244698262863
10.378121546961326,0.3433932881692952
10.411491712707184,0.10489553556031665
10.44486187845304,-0.11744347094373178
10.478232044198895,-0.29872058946863445
10.511602209944753,-0.4430150837125485
10.544972375690609,-0.5663521375906548
10.578342541436465,-0.6779050668062342
10.61171270718232,-0.7687563646037933
10.645082872928178,-0.8125739185161613
10.678453038674034,-0.7766849652768338
10.71182320441989,-0.6378021035741415
10.745193370165747,-0.3953758954602168
10.778563535911603,-0.0771243817375774
10.811933701657459,0.2653517211492018
10.845303867403315,0.569279126294138
10.878674033149172,0.7774523328997757
10.912044198895028,0.8537004359575415
10.945414364640884,0.792474376177938
10.978784530386742,0.6198408663279874
11.012154696132598,0.38560176793209516
11.045524861878453,0.14869922461780688
11.078895027624311,-0.03991583442603906
11.112265193370167,-0.15169118157150088
11.145635359116023,-0.1873290494554006
11.179005524861878,-0.17350303818067628
11.212375690607736,-0.15041746697419095
11.245745856353592,-0.15474958592054483
11.279116022099448,-0.20446013659080034
11.312486187845305,-0.29133365004524947
11.345856353591161,-0.38414982894937755
11.379226519337017,-0.441310394561028
11.412596685082875,-0.42810063216010497
11.44596685082873,-0.3318401066498559
11.479337016574586,-0.16868513967524792
11.512707182320442,0.021240149040657706
11.5460773480663,0.1892441471986267
11.579447513812156,0.29841404584268405
11.612817679558011,0.34069296215009764
11.646187845303869,0.3429557212263846
11.679558011049725,0.35811086633344325
11.71292817679558,0.44311611372000337
11.746298342541436,0.6315687028553775
11.779668508287294,0.9118042663846984
11.81303867403315,1.2205396176202974
11.846408839779006,1.4569111980992544
11.879779005524863,1.513959829792657
11.91314917127072,1.3171340702051835
11.946519337016575,0.8553832889391287
11.979889502762433,0.19201483914683226
12.013259668508288,-0.5502833030913576
12.046629834254144,-1.225577217006121
12.08,-1.7084545985785369
12.113370165745858,-1.9288027400913577
12.146740331491714,-1.8852948926097945
12.18011049723757,-1.6348546936359645
12.213480662983427,-1.265357508154769
12.246850828729283,-0.8645159885947826
12.280220994475139,-0.49718205551512035
12.313591160220996,-0.19743911732643854
12.346961325966852,0.02566150643331525
12.380331491712708,0.17541735163517092
12.413701657458564,0.25607523689677564
12.447071823204421,0.2685437229950724
12.480441988950277,0.2143576385268118
12.513812154696133,0.10430695909117021
12.54718232044199,-0.03455963098439017
12.580552486187846,-0.15925331243445087
12.613922651933702,-0.22044140896453587
12.64729281767956,-0.1782035304246578
12.680662983425416,-0.017179406228640864
12.714033149171271,0.24578391538533118
12.747403314917127,0.5648915827531535
12.780773480662985,0.8779027072627241
12.81414364640884,1.1224309389551834
12.847513812154697,1.25005973114571
12.880883977900554,1.2348135316040696
12.91425414364641,1.0760100463681128
12.947624309392266,0.7974502362971931
12.980994475138122,0.4442448705441132
13.01436464088398,0.07656802507972806
13.047734806629835,-0.24123656878386313
13.081104972375691,-0.4558962979163858
13.114475138121549,-0.5407496533550511
13.147845303867404,-0.5048261706165456
13.18121546961326,-0.3898019930275349
13.214585635359118,-0.25440374343503236
13.247955801104974,-0.15249560955722843
13.28132596685083,-0.11499629406254377
13.314696132596685,-0.14406472556081606
13.348066298342543,-0.22119177268523635
13.381436464088399,-0.32283327375488297
13.414806629834255,-0.4330138063241311
13.448176795580112,-0.5448274565696596
13.481546961325968,-0.6506848015661939
13.514917127071824,-0.7295485733931524
13.548287292817681,-0.7426369377143657
13.581657458563537,-0.6445532748498254
13.615027624309393,-0.40688851615558314
13.648397790055249,-0.042109168855593626
13.681767955801106,0.3869977032210686
13.715138121546962,0.7808136029161942
13.748508287292818,1.0360182178660884
13.781878453038676,1.0843316066689614
13.815248618784532,0.9191674258443814
13.848618784530387,0.5978873972177026
13.881988950276245,0.21885735766287498
13.9153591160221,-0.11592520402772966
13.948729281767957,-0.33600528301553445
13.982099447513813,-0.42115412281900305
14.01546961325967,-0.3979637994792518
14.048839779005526,-0.3190038065293465
14.082209944751382,-0.23599006154303637
14.11558011049724,-0.1791146222271535
14.148950276243095,-0.14998090493167782
14.182320441988951,-0.12858968879536425
14.215690607734807,-0.08898577938828413
14.249060773480664,-0.015590188213616674
14.28243093922652,0.08685982156502263
14.315801104972376,0.19350055794415671
14.349171270718234,0.26912093648256974
14.38254143646409,0.2832520668533298
14.415911602209945,0.22429123658463268
14.449281767955803,0.10677388998100575
14.482651933701659,-0.031479744251430956
14.516022099447515,-0.14175436776176442
14.54939226519337,-0.1820978268998979
14.582762430939228,-0.1338266532164976
14.616132596685084,-0.010582679384597851
14.64950276243094,0.14401716265458045
14.682872928176797,0.2702952280017413
14.716243093922653,0.3139886837325338
14.749613259668509,0.24797406565675878
14.782983425414367,0.08570455470544813
14.816353591160222,-0.12030166967878488
14.849723756906078,-0.2964474960697334
14.883093922651934,-0.3770213126398379
14.916464088397792,-0.33265162867136583
14.949834254143648,-0.18512501567712006
14.983204419889503,-2.0140375633968158e-05
15.016574585635361,0.14170310959171228
15.049944751381217,0.18139000554028883
15.083314917127073,0.11179471624596313
15.116685082872928,-0.0178387169916147
15.150055248618786,-0.12529581072736673
15.183425414364642,-0.13752440055932308
15.216795580110498,-0.03061689651709245
15.250165745856355,0.15373560365785896
15.283535911602211,0.3257176139051969
15.316906077348067,0.3916101952460835
15.350276243093925,0.30263787418353144
15.38364640883978,0.0825939514647184
15.417016574585636,-0.1812792501729007
15.450386740331492,-0.38031750636852163
15.48375690607735,-0.4376369822167876
15.517127071823205,-0.3445200905055425
15.550497237569061,-0.16118140525538338
15.583867403314919,0.017320887189544772
15.617237569060775,0.11048928265210677
15.65060773480663,0.09027171477848649
15.683977900552488,-0.011467762689599825
15.717348066298344,-0.1269174976613588
15.7507182320442,-0.19179414752036206
15.784088397790056,-0.1778615698305128
15.817458563535913,-0.10248524015032551
15.85082872928177,-0.013453093414521491
15.884198895027625,0.0396204531471528
15.917569060773483,0.030947665331318173
15.950939226519338,-0.030859966702771077
15.984309392265194,-0.10998912110161944
16.01767955801105,-0.1622857373467669
16.051049723756908,-0.15558890603416287
16.084419889502765,-0.08260808350948898
16.11779005524862,0.03795064448193309
16.151160220994477,0.17098784440927434
16.18453038674033,0.28033552497119524
16.21790055248619,0.34310760252631267
16.251270718232046,0.35718912795665647
16.2846408839779,0.3389459300508298
16.318011049723758,0.31245577840660044
16.351381215469615,0.29550429514335286
16.38475138121547,0.2894526101400322
16.418121546961327,0.27861878997375017
16.451491712707185,0.24021254347712404
16.48486187845304,0.1600715392724764
16.518232044198896,0.04549596838601961
16.551602209944754,-0.07306114728851201
16.584972375690608,-0.1543421883553564
16.618342541436466,-0.1676749689894803
16.651712707182323,-0.11224435427600574
16.685082872928177,-0.02256723692020592
16.718453038674035,0.045258212550529725
16.751823204419892,0.041674215413608565
16.785193370165747,-0.047598519160365414
16.818563535911604,-0.18824205828920182
16.851933701657458,-0.30907825483072077
16.885303867403316,-0.3359623657918521
16.918674033149173,-0.2324549746217271
16.952044198895027,-0.026299368201095123
16.985414364640885,0.19418916869269398
17.018784530386743,0.315625392796105
17.052154696132597,0.2523777265303582
17.085524861878454,-0.00802303492717236
17.118895027624312,-0.3898882183536142
17.152265193370166,-0.7544337284303837
17.185635359116024,-0.955828753187522
17.21900552486188,-0.9041062038024167
17.252375690607735,-0.6067101321688727
17.285745856353593,-0.1693825298961071
17.31911602209945,0.2449720050438215
