Time (s),Filtered Signal
0.0,0.0020567630321336257
0.033370535714285714,-0.37550571608249106
0.06674107142857143,-0.6184545066283136
0.10011160714285713,-0.6351221545908929
0.13348214285714285,-0.40492770909813697
0.16685267857142858,0.017726721001033816
0.20022321428571427,0.5240669599395749
0.23359375,0.9876527674277867
0.2669642857142857,1.3036557011060768
0.30033482142857143,1.4174643062729924
0.33370535714285715,1.3344311185810867
0.36707589285714287,1.1099005287872779
0.40044642857142854,0.825210168445993
0.43381696428571426,0.5590157243824683
0.4671875,0.36347722064113575
0.5005580357142857,0.25222060078419634
0.5339285714285714,0.20270282852443777
0.5672991071428571,0.17085452249820318
0.6006696428571429,0.11188609218884414
0.6340401785714286,-0.0007906256272989598
0.6674107142857143,-0.1655433650575184
0.70078125,-0.3546072949422742
0.7341517857142857,-0.5264412634066977
0.7675223214285715,-0.6425285857686438
0.8008928571428571,-0.681617822749272
0.8342633928571428,-0.6462532983450957
0.8676339285714285,-0.560073911937191
0.9010044642857142,-0.4579315488191194
0.934375,-0.373049671932273
0.9677455357142857,-0.32582606048371165
1.0011160714285714,-0.31785206233081537
1.0344866071428571,-0.33287965520817697
1.0678571428571428,-0.3442980871423819
1.1012276785714286,-0.32654692821367903
1.1345982142857143,-0.26627218722940366
1.16796875,-0.16863496057394362
1.2013392857142857,-0.05564198308206907
1.2347098214285714,0.04338570583264381
1.2680803571428572,0.1052646241606299
1.3014508928571429,0.12398105040884509
1.3348214285714286,0.1136382480525165
1.3681919642857143,0.10146572743296457
1.4015625,0.11414871184293332
1.4349330357142858,0.164356741820616
1.4683035714285715,0.24437625665359722
1.5016741071428572,0.33003703898931475
1.535044642857143,0.3926366122918774
1.5684151785714286,0.4123464204190838
1.6017857142857141,0.3860178771100239
1.6351562499999999,0.32570724534419937
1.6685267857142856,0.24959605584649408
1.7018973214285713,0.17114962885462762
1.735267857142857,0.0929536418416619
1.7686383928571427,0.00850871806389436
1.8020089285714285,-0.08963286218680636
1.8353794642857142,-0.20072536515309222
1.86875,-0.3115099082431154
1.9021205357142856,-0.399672582557728
1.9354910714285714,-0.4434910802210261
1.968861607142857,-0.43237025445188143
2.002232142857143,-0.3721692114022126
2.0356026785714287,-0.281964616740041
2.0689732142857142,-0.18387258143317217
2.10234375,-0.09193691773898649
2.1357142857142857,-0.007008240998194028
2.169084821428571,0.07900263818348541
2.202455357142857,0.17219749841300439
2.2358258928571426,0.26655435503145974
2.2691964285714286,0.342178372081377
2.302566964285714,0.3745743888516499
2.3359375,0.3503756871549284
2.3693080357142855,0.28000736940295723
2.4026785714285714,0.1983905449733913
2.436049107142857,0.15106801924153337
2.469419642857143,0.17164460828420788
2.5027901785714284,0.2622279448972915
2.5361607142857143,0.38803625858872787
2.56953125,0.49043525757486006
2.6029017857142858,0.5129538818861659
2.6362723214285713,0.4276007175683196
2.669642857142857,0.24815678378598086
2.7030133928571427,0.02363410458679724
2.7363839285714286,-0.18463854676211258
2.769754464285714,-0.33041887214146737
2.803125,-0.4006478954247779
2.8364955357142856,-0.4160023627397416
2.8698660714285715,-0.41532404713027443
2.903236607142857,-0.4334749847422888
2.936607142857143,-0.4843629795262456
2.9699776785714285,-0.5565922157119819
3.0033482142857144,-0.6216965836306607
3.03671875,-0.6488396621246322
3.070089285714286,-0.6181812222299575
3.1034598214285714,-0.5276510366489517
3.1368303571428573,-0.3921468110521523
3.170200892857143,-0.23744836661758087
3.2035714285714283,-0.09212188038532626
3.2369419642857142,0.020149241557499618
3.2703124999999997,0.08663022040245949
3.3036830357142857,0.10936315240632191
3.337053571428571,0.10580325663448632
3.370424107142857,0.10493943816595214
3.4037946428571426,0.13823779631395067
3.4371651785714286,0.2268934354160032
3.470535714285714,0.36975649720109566
3.50390625,0.5380982470695278
3.5372767857142855,0.6821828435589582
3.5706473214285714,0.7498044706810767
3.604017857142857,0.7102626194256425
3.637388392857143,0.5723844202705863
3.6707589285714284,0.38584592582476757
3.7041294642857143,0.22220026271065257
3.7375,0.14261339286394775
3.7708705357142858,0.1674709293353155
3.8042410714285713,0.2636192456090648
3.837611607142857,0.357041150996108
3.8709821428571427,0.3661973660268554
3.9043526785714286,0.24071383692263507
3.937723214285714,-0.012910146502737956
3.97109375,-0.33084013316589
4.004464285714286,-0.6169682161366898
4.0378348214285715,-0.7819070158233149
4.0712053571428575,-0.7784097279747493
4.1045758928571425,-0.6183448531959403
4.1379464285714285,-0.3656203078816788
4.171316964285714,-0.11018267803551693
4.2046875,0.06488626417364211
4.238058035714285,0.11054844056633878
4.271428571428571,0.025049401712552887
4.304799107142857,-0.14894465082670671
4.338169642857142,-0.34063462444037745
4.371540178571428,-0.475280576595981
4.404910714285714,-0.49925419098547313
4.43828125,-0.39827311655390407
4.471651785714285,-0.20216071969343397
4.505022321428571,0.02673052090652513
4.538392857142857,0.2180481951860126
4.571763392857143,0.3213979970344653
4.605133928571428,0.32570632661159454
4.638504464285714,0.2611637357204387
4.671875,0.18275324581112554
4.705245535714286,0.14303227823584633
4.738616071428571,0.16696864215011362
4.771986607142857,0.24064979182830537
4.805357142857143,0.31904835800342385
4.838727678571429,0.3489060537623454
4.872098214285714,0.29555079955758695
4.90546875,0.160628401785948
4.938839285714286,-0.017694691867312647
4.972209821428572,-0.1817390594188723
5.005580357142857,-0.2797507289503961
5.038950892857143,-0.28722963620756703
5.072321428571429,-0.21437373065461454
5.105691964285715,-0.0974008805524033
5.1390625,0.02039384681471402
5.172433035714286,0.1075313089393455
5.2058035714285715,0.15402295557585868
5.2391741071428575,0.1683451777914034
5.2725446428571425,0.16520197261099562
5.3059151785714285,0.1521652360044974
5.339285714285714,0.12328121682826375
5.3726562499999995,0.06333030258727142
5.406026785714285,-0.03991001493754555
5.439397321428571,-0.1828289248145482
5.472767857142857,-0.3405142871164049
5.506138392857142,-0.4724862715653947
5.539508928571428,-0.5371274789891699
5.572879464285714,-0.5075423383631108
5.60625,-0.3812101376778457
5.639620535714285,-0.17976363953045593
5.672991071428571,0.05931445065291872
5.706361607142857,0.2938748355253784
5.739732142857143,0.4863285249996208
5.773102678571428,0.6091142892352521
5.806473214285714,0.647528668395258
5.83984375,0.601684508855349
5.873214285714286,0.48769664492113207
5.906584821428571,0.33610086962555213
5.939955357142857,0.1852059325492102
5.973325892857143,0.06939350806778304
6.006696428571429,0.006091143775415691
6.040066964285714,-0.012321986084632657
6.0734375,-0.016281267668980897
6.106808035714286,-0.04559245128251769
6.140178571428572,-0.12986312728293828
6.173549107142857,-0.2718505321477327
6.206919642857143,-0.44213835282730074
6.240290178571429,-0.5884120908457505
6.273660714285715,-0.6556731632697712
6.30703125,-0.60868665750072
6.340401785714286,-0.4472113100853008
6.3737723214285715,-0.2080817166443489
6.407142857142857,0.04610236576666469
6.4405133928571425,0.24685358105110913
6.4738839285714285,0.3409499082236942
6.507254464285714,0.30614562901730624
6.5406249999999995,0.157364399633332
6.573995535714285,-0.057537942223389996
6.607366071428571,-0.2708292510999808
6.640736607142857,-0.41356034098720673
6.674107142857142,-0.4355549687747711
6.707477678571428,-0.32163703032714996
6.740848214285714,-0.0987818366673052
6.77421875,0.1697709517780067
6.807589285714285,0.40376347488276476
6.840959821428571,0.5335145443933287
6.874330357142857,0.5260971125316523
6.907700892857143,0.39907720532685176
6.941071428571428,0.21470525357107093
6.974441964285714,0.0554628871705992
7.0078125,-0.009617463542888654
7.041183035714286,0.04631686405788551
7.074553571428571,0.19673893885751967
7.107924107142857,0.37314718164017086
7.141294642857143,0.49408423615330843
7.174665178571429,0.4988988581014325
7.208035714285714,0.37152178166520583
7.24140625,0.14457540525280804
7.274776785714286,-0.1165527406444079
7.308147321428572,-0.3412130597359326
7.341517857142857,-0.4799586485804437
7.374888392857143,-0.5193388724105283
7.408258928571429,-0.4807689714897213
7.441629464285715,-0.4063653054880967
7.475,-0.339169204824732
7.508370535714286,-0.30575560606204166
7.5417410714285715,-0.30682991264243203
7.575111607142857,-0.3181247026582755
7.6084821428571425,-0.30105826227565174
7.6418526785714285,-0.22013606859172885
7.675223214285714,-0.06150808942339001
7.7085937499999995,0.1548754888021263
7.741964285714285,0.3764872103130354
7.775334821428571,0.5352008212641723
7.808705357142857,0.5748356355769687
7.842075892857142,0.47735657552852695
7.875446428571428,0.27438543748796085
7.908816964285714,0.03653779477138715
7.9421875,-0.15599373236407285
7.975558035714285,-0.24794044771085305
8.008928571428571,-0.23130033469822217
8.042299107142856,-0.14400949570601093
8.075669642857143,-0.04579417526656183
8.109040178571428,0.015632657528373665
8.142410714285715,0.029538325797211964
8.17578125,0.02463531727124927
8.209151785714285,0.04788000157898415
8.242522321428572,0.1317594900234317
8.275892857142857,0.2688725130397285
8.309263392857142,0.40875196926330265
8.342633928571429,0.4796413528235505
8.376004464285714,0.4242604282178305
8.409375,0.23107766289593384
8.442745535714286,-0.054953884039036935
8.47611607142857,-0.3477346273173135
8.509486607142858,-0.5543184350165498
8.542857142857143,-0.61255660284765
8.576227678571428,-0.51559413824617
8.609598214285715,-0.31309838808811097
8.64296875,-0.08937764387607514
8.676339285714285,0.0717332927734775
8.709709821428572,0.12004557470222466
8.743080357142857,0.05623794787272547
8.776450892857143,-0.07369499265832322
8.809821428571428,-0.20330908152250726
8.843191964285714,-0.27755955908743735
8.8765625,-0.2761253397000901
8.909933035714285,-0.2171573041970287
8.94330357142857,-0.14065370770394423
8.976674107142857,-0.08154717693654069
9.010044642857142,-0.04812327891979653
9.04341517857143,-0.018248601073176107
9.076785714285714,0.04441587014499729
9.11015625,0.16375395339533327
9.143526785714286,0.33001486400334273
9.176897321428571,0.49733335743914703
9.210267857142856,0.6027735012715906
9.243638392857143,0.5974714550746036
9.277008928571428,0.47326927159602433
9.310379464285715,0.27019505716968256
9.34375,0.060185224152108176
9.377120535714285,-0.08502801716113195
9.410491071428572,-0.12580682775667323
9.443861607142857,-0.070720944628227
9.477232142857142,0.03020378124986457
9.510602678571429,0.11067595348767122
9.543973214285714,0.11890891312759388
9.57734375,0.03966039037050771
9.610714285714286,-0.10135514844107428
9.64408482142857,-0.2507937670130811
9.677455357142858,-0.35124010103982467
9.710825892857143,-0.36420896769281574
9.744196428571428,-0.28352835223395695
9.777566964285715,-0.1351872989475779
9.8109375,0.03439723205016361
9.844308035714285,0.17564634204638543
9.877678571428572,0.2515593774004566
9.911049107142857,0.24673135295271087
9.944419642857143,0.1679015223008408
9.977790178571428,0.03778313891370278
10.011160714285714,-0.11379335416482722
10.04453125,-0.25715330391130825
10.077901785714285,-0.36619390207435515
10.11127232142857,-0.41896791985549736
10.144642857142857,-0.3989269300397588
10.178013392857142,-0.2998010812857289
10.21138392857143,-0.13335155419122113
10.244754464285714,0.0652189026016106
10.278125,0.2408062843631123
10.311495535714286,0.3338034303110419
10.344866071428571,0.30311271528241107
10.378236607142856,0.14644906853543724
10.411607142857143,-0.0930819782899082
10.444977678571428,-0.33934786777446935
10.478348214285715,-0.5103881836131554
10.51171875,-0.5487039179418153
10.545089285714285,-0.4412050304393437
10.578459821428572,-0.22051542283953035
10.611830357142857,0.05159039971621627
10.645200892857142,0.3096475144378658
10.678571428571429,0.5066598842645016
10.711941964285714,0.6238119787632996
10.745312499999999,0.6659324271837679
10.778683035714286,0.6484186396540739
10.81205357142857,0.5849134038396285
10.845424107142858,0.4828874922849705
10.878794642857143,0.34804573111632103
10.912165178571428,0.19226561320598715
10.945535714285715,0.03760323299296676
10.97890625,-0.08802332966733743
11.012276785714285,-0.1618505515339686
11.045647321428572,-0.17751730999417262
11.079017857142857,-0.1494725430143986
11.112388392857143,-0.10731915322622926
11.145758928571428,-0.08267746798939049
11.179129464285714,-0.09543827221699273
11.2125,-0.1466062545985424
11.245870535714285,-0.22118200587362846
11.27924107142857,-0.2988440912138751
11.312611607142857,-0.36578437367805317
11.345982142857142,-0.4204516562070018
11.37935267857143,-0.46963461893358194
11.412723214285714,-0.5173231551046843
11.44609375,-0.5537125443385306
11.479464285714286,-0.5524984078061002
11.512834821428571,-0.48036958854830386
11.546205357142856,-0.31537576831984715
11.579575892857143,-0.0646561845543739
11.612946428571428,0.22930199304253224
11.646316964285715,0.49977582396307596
11.6796875,0.6811377188335673
11.713058035714285,0.7368725039752853
11.746428571428572,0.6759915306825336
11.779799107142857,0.5485844634379581
11.813169642857142,0.4217863258621022
11.846540178571429,0.34776299112437614
11.879910714285714,0.3395960141348673
11.913281249999999,0.3667988580972927
11.946651785714286,0.3720982279231742
11.98002232142857,0.3007097732065029
12.013392857142858,0.12795634275505785
12.046763392857143,-0.1271530804657948
12.080133928571428,-0.4075649677166889
12.113504464285715,-0.6396049051508245
12.146875,-0.7605955415499043
12.180245535714285,-0.7414440111400974
12.213616071428572,-0.595738688958597
12.246986607142857,-0.3725267350290719
12.280357142857143,-0.1363423574078461
12.313727678571428,0.05696068159912755
12.347098214285714,0.1783764498329779
12.38046875,0.23044222845020262
12.413839285714285,0.2373384288773723
12.44720982142857,0.2264566494385253
12.480580357142857,0.21177044980055365
12.513950892857142,0.1881142650573455
12.54732142857143,0.13913554883496643
12.580691964285714,0.05366177051993876
12.6140625,-0.05989245412251397
12.647433035714286,-0.1705978571087536
12.680803571428571,-0.2365830111975497
12.714174107142856,-0.22561620301232502
12.747544642857143,-0.1335783628608358
12.780915178571428,0.009729878738893291
12.814285714285713,0.15148519789717682
12.84765625,0.23861959809973218
12.881026785714285,0.24132192512401465
12.914397321428572,0.16565558703376707
12.947767857142857,0.04919709313909482
12.981138392857142,-0.057962799358008625
13.014508928571429,-0.11746289993695434
13.047879464285714,-0.12041696853125526
13.081249999999999,-0.09015363875351412
13.114620535714286,-0.06862530106032486
13.14799107142857,-0.09299360174905597
13.181361607142858,-0.17378739176086205
13.214732142857143,-0.28556026500194304
13.248102678571428,-0.3751536202825302
13.281473214285715,-0.38420147973489294
13.31484375,-0.2756147747170707
13.348214285714285,-0.051945072536406546
13.381584821428572,0.242449528577881
13.414955357142857,0.535899792074847
13.448325892857143,0.7537799598562306
13.481696428571428,0.8424084703660568
13.515066964285714,0.7836258135102763
13.5484375,0.5962535047423504
13.581808035714285,0.3264652162226935
13.61517857142857,0.03284678004478407
13.648549107142857,-0.22783150504406716
13.681919642857142,-0.41075716994792455
13.71529017857143,-0.48911832248401294
13.748660714285714,-0.45769733812614805
13.78203125,-0.33467965130397825
13.815401785714286,-0.16000311236257306
13.848772321428571,0.012460452340412643
13.882142857142856,0.12950177161398638
13.915513392857143,0.15611873366729473
13.948883928571428,0.08855256851491625
13.982254464285713,-0.044246720508613724
14.015625,-0.19272686922334195
14.048995535714285,-0.3073827200034541
14.082366071428572,-0.35822941237692085
14.115736607142857,-0.3439973757504842
14.149107142857142,-0.28750765537884454
14.182477678571429,-0.22084394755696152
14.215848214285714,-0.16863733925325888
14.249218749999999,-0.13774425076964597
14.282589285714286,-0.11740589038693643
14.31595982142857,-0.08830916619275356
14.349330357142858,-0.03484155157599534
14.382700892857143,0.04596865555155581
14.416071428571428,0.1428813939387338
14.449441964285715,0.23617091975796153
14.4828125,0.306946683880493
14.516183035714285,0.34495666063255037
14.549553571428572,0.3510863694267442
14.582924107142857,0.3339541960965496
14.616294642857143,0.30327263297324536
14.649665178571428,0.2642297766751091
14.683035714285714,0.21620396385473273
14.71640625,0.15621106685892394
14.749776785714285,0.0843305646821096
14.78314732142857,0.006965026604978861
14.816517857142857,-0.06480301089143722
14.849888392857142,-0.12104420866945687
14.88325892857143,-0.15908838861419025
14.916629464285714,-0.18536118089856798
14.95,-0.21101822584913724
14.983370535714286,-0.2436309131807708
15.016741071428571,-0.28008242871136907
15.050111607142856,-0.3054327673494061
15.083482142857143,-0.29902709110810255
15.116852678571428,-0.24478951084760128
15.150223214285713,-0.1401640667483871
15.18359375,0.0010160048949575127
15.216964285714285,0.15295739317077298
15.250334821428572,0.2869239532149685
15.283705357142857,0.38013273314779383
15.317075892857142,0.4207614096669301
15.350446428571429,0.4082114794410796
15.383816964285714,0.3504882772248211
15.417187499999999,0.26130658741282653
15.450558035714286,0.15815389245731773
15.48392857142857,0.06051297047878184
15.517299107142858,-0.013344900331591702
15.550669642857143,-0.05136074932585205
15.584040178571428,-0.052628456873833745
15.617410714285715,-0.029203120828701204
15.65078125,-0.002763076604056493
15.684151785714285,0.003119200637674803
15.717522321428572,-0.02819398439168275
15.750892857142857,-0.10034091464774762
15.784263392857143,-0.20292670030408047
15.817633928571428,-0.3152919351784114
15.851004464285714,-0.4130421914801907
15.884375,-0.4748878015854783
15.917745535714285,-0.4879715514837188
15.95111607142857,-0.45072804483651335
15.984486607142857,-0.3729530511572106
16.017857142857142,-0.2731980327225321
16.05122767857143,-0.17401235016659228
16.084598214285712,-0.09593696111775482
16.11796875,-0.051467356647420914
16.151339285714286,-0.040530963888266255
16.18470982142857,-0.0493253898523357
16.218080357142856,-0.05411941969941944
16.251450892857143,-0.030106797398521942
16.28482142857143,0.037335070547691314
16.318191964285713,0.1441452455385333
16.3515625,0.26713101912977816
16.384933035714287,0.3734954510791238
16.41830357142857,0.4367094545377889
16.451674107142857,0.45067183089233065
16.485044642857144,0.4339746508584807
16.518415178571427,0.42094097608420944
16.551785714285714,0.4433776272923972
16.58515625,0.5124091543837125
16.618526785714284,0.6100296165213878
16.65189732142857,0.6948933319019313
16.685267857142858,0.7193419693900397
16.71863839285714,0.6490718237607747
16.752008928571428,0.4762220553513789
16.785379464285715,0.22096405999954813
16.81875,-0.07703450917517253
16.852120535714285,-0.3714170768865538
16.88549107142857,-0.619977942664556
16.91886160714286,-0.7905180702318783
16.95223214285714,-0.8628523882639538
16.98560267857143,-0.8302180147006941
17.018973214285715,-0.7021161873055937
17.05234375,-0.5072536054759217
17.085714285714285,-0.29252076746566485
17.119084821428572,-0.11430227333946494
17.152455357142856,-0.02221668491759303
17.185825892857142,-0.04054088585399092
17.21919642857143,-0.15580774159966682
17.252566964285712,-0.3179581718416975
17.2859375,-0.4569519477144099
17.319308035714286,-0.5093904703025721
17.35267857142857,-0.44422386739834585
17.386049107142856,-0.27603463994879945
17.419419642857143,-0.05937807615922679
17.45279017857143,0.133954582536743
17.486160714285713,0.24508321415372097
17.51953125,0.25246844642495175
17.552901785714287,0.1799909567358326
17.58627232142857,0.08526659383064447
17.619642857142857,0.033418096314272304
17.653013392857144,0.06780823712924705
