Time (s),Filtered Signal
0.0,0.05282728075763473
0.033370165745856356,0.279063272088684
0.06674033149171271,0.4751288631389251
0.10011049723756907,0.6142716535615121
0.13348066298342542,0.6747442431474114
0.16685082872928178,0.6446789580791754
0.20022099447513814,0.5268119364585594
0.2335911602209945,0.3402737897209789
0.26696132596685085,0.11746808049707992
0.30033149171270723,-0.10371909353966867
0.33370165745856356,-0.2897915518462601
0.3670718232044199,-0.419911174009939
0.4004419889502763,-0.4895745731152825
0.43381215469613266,-0.5087094101235556
0.467182320441989,-0.4954188268560182
0.5005524861878453,-0.4680808193035904
0.5339226519337017,-0.4388140132090794
0.5672928176795581,-0.41052634198785587
0.6006629834254145,-0.3782554746194297
0.6340331491712707,-0.33383084949066855
0.6674033149171271,-0.27162226048341065
0.7007734806629835,-0.19277002292776949
0.7341436464088398,-0.10600151947775187
0.7675138121546962,-0.024684286666555005
0.8008839779005525,0.03849233135469726
0.8342541436464089,0.07668022813128188
0.8676243093922653,0.091425230452389
0.9009944751381216,0.09146711551590164
0.934364640883978,0.08854340284659207
0.9677348066298344,0.09238672813128315
1.0011049723756906,0.10726162922761526
1.0344751381215471,0.13126522529366325
1.0678453038674034,0.15806050903935048
1.1012154696132597,0.1797876166575075
1.1345856353591162,0.19007080887415176
1.1679558011049724,0.18680575738333274
1.201325966850829,0.17475290208293393
1.2346961325966852,0.16728508289418775
1.2680662983425415,0.18546403222761662
1.301436464088398,0.25236275259906327
1.3348066298342542,0.38236746599702875
1.3681767955801105,0.5687372158233601
1.401546961325967,0.7758684508961631
1.4349171270718233,0.9428524039871541
1.4682872928176796,1.0007613124229702
1.501657458563536,0.8990517521722444
1.5350276243093923,0.6301887502488192
1.5683977900552488,0.24004379545897236
1.601767955801105,-0.18333878188095407
1.6351381215469614,-0.5401196268948241
1.6685082872928179,-0.7558127223147256
1.7018784530386741,-0.8084592670072376
1.7352486187845306,-0.7331513717910089
1.768618784530387,-0.6020567438467475
1.8019889502762432,-0.4900460269552401
1.8353591160220997,-0.44267657474712085
1.868729281767956,-0.46118404494552884
1.9020994475138122,-0.5097476278469858
1.9354696132596687,-0.5389966454682892
1.968839779005525,-0.5125325288556621
2.0022099447513813,-0.4234379092796587
2.0355801104972375,-0.2943766956357968
2.0689502762430942,-0.1637601553131109
2.1023204419889505,-0.06677670297119108
2.135690607734807,-0.021080496229465468
2.169060773480663,-0.02298000298671166
2.2024309392265193,-0.05386940031747906
2.235801104972376,-0.09177482383075375
2.2691712707182323,-0.12138762844906752
2.3025414364640886,-0.13794681648104584
2.335911602209945,-0.14426232853798485
2.369281767955801,-0.14385545944308936
2.402651933701658,-0.13489328813772955
2.436022099447514,-0.10870416176675426
2.4693922651933704,-0.053839690207083665
2.5027624309392267,0.036569277987147715
2.536132596685083,0.15836258249351579
2.5695027624309392,0.29468887932584287
2.602872928176796,0.4206036630110083
2.636243093922652,0.5121502916504307
2.6696132596685085,0.5557568719783199
2.7029834254143648,0.5535046228406473
2.736353591160221,0.521805117332067
2.7697237569060777,0.4842144429156448
2.803093922651934,0.46182962667647093
2.8364640883977903,0.4655690527837076
2.8698342541436466,0.4933105528387045
2.903204419889503,0.5322444022902301
2.936574585635359,0.5644414896203452
2.969944751381216,0.5727797001528984
3.003314917127072,0.5451960469243422
3.0366850828729284,0.4768275655245035
3.0700552486187846,0.3706944755376212
3.103425414364641,0.2374920755944212
3.1367955801104976,0.09419302383460273
3.170165745856354,-0.0394012605915986
3.20353591160221,-0.14643922982529403
3.2369060773480665,-0.21978031161120185
3.2702762430939227,-0.2667559614574264
3.3036464088397794,-0.30861677714262137
3.3370165745856357,-0.37305444106700486
3.370386740331492,-0.48150695203945126
3.4037569060773483,-0.6363557002231043
3.4371270718232045,-0.8146165207777306
3.4704972375690613,-0.9729411987614762
3.5038674033149175,-1.0638709332618108
3.537237569060774,-1.0573286048906212
3.57060773480663,-0.9573824443504372
3.6039779005524863,-0.8049647160319643
3.6373480662983426,-0.6630051550011906
3.6707182320441993,-0.5890386667582687
3.7040883977900556,-0.6074340597447607
3.737458563535912,-0.6948038360182747
3.770828729281768,-0.7864756106181563
3.8041988950276244,-0.8017299670335041
3.837569060773481,-0.6762759050265224
3.8709392265193374,-0.3872596760211723
3.9043093922651937,0.03938258184893784
3.93767955801105,0.5400898226835638
3.9710497237569062,1.03561866607136
4.0044198895027625,1.4528279224147227
4.037790055248619,1.7385224278140534
4.071160220994475,1.8639923196205728
4.104530386740332,1.8239078908170143
4.1379005524861885,1.633970938845815
4.171270718232044,1.3288370456571479
4.204640883977901,0.9585165330081089
4.238011049723757,0.5807327144926473
4.271381215469614,0.24909896134726425
4.30475138121547,0.00044577885066087136
4.338121546961326,-0.15355900570445952
4.371491712707183,-0.22658011064079261
4.404861878453039,-0.24919346369562256
4.438232044198895,-0.2553111898487294
4.471602209944752,-0.26906060429814527
4.504972375690608,-0.2973445526683799
4.538342541436465,-0.3306881371468394
4.5717127071823205,-0.35132431850397905
4.605082872928177,-0.3443851428041461
4.638453038674034,-0.30690027169010403
4.67182320441989,-0.2505648836702608
4.7051933701657465,-0.19728889445831727
4.738563535911602,-0.16988029668997734
4.771933701657459,-0.1822645602342025
4.805303867403316,-0.23356359205159408
4.8386740331491715,-0.3084154488526816
4.872044198895028,-0.38316282132060575
4.905414364640884,-0.4351614189905529
4.938784530386741,-0.451284348905239
4.972154696132597,-0.4320628227956594
5.005524861878453,-0.38970444073266886
5.03889502762431,-0.34090670733170353
5.072265193370166,-0.2978963171148761
5.105635359116023,-0.2622240329530057
5.1390055248618784,-0.22471428194973667
5.172375690607735,-0.17188816177159652
5.205745856353592,-0.09562675186781762
5.239116022099448,-0.0007781611300499335
5.272486187845304,0.09387444333787479
5.30585635359116,0.16258148170983847
5.339226519337017,0.18462325425830373
5.372596685082874,0.155508361992663
5.4059668508287295,0.09151558489788708
5.439337016574586,0.024704884681264833
5.472707182320442,-0.009885581969177621
5.506077348066299,0.010796792514338243
5.5394475138121555,0.08763548840984171
5.572817679558011,0.19879381808884025
5.606187845303868,0.30912593693895996
5.639558011049724,0.3851288468959958
5.672928176795581,0.4084273568134474
5.706298342541437,0.38167903477222054
5.739668508287293,0.32467116254698464
5.77303867403315,0.26321174999738944
5.806408839779006,0.21671627176297106
5.839779005524862,0.19056903473419354
5.873149171270718,0.17646317121731953
5.906519337016575,0.15962254671359585
5.939889502762432,0.12839119417002165
5.9732596685082875,0.08092290512535047
6.006629834254144,0.025894742648877457
6.04,-0.0221253574313524
6.073370165745857,-0.04913812093807132
6.1067403314917135,-0.04617680287685974
6.140110497237569,-0.01022043635512312
6.173480662983426,0.05698037809553298
6.206850828729282,0.14927794624416657
6.240220994475139,0.25412991496337006
6.273591160220995,0.34974470522190076
6.306961325966851,0.4052608607879214
6.340331491712708,0.3872778212333671
6.373701657458564,0.2722948439386632
6.40707182320442,0.059886331819238865
6.440441988950277,-0.22089534515188233
6.473812154696133,-0.5171629722560923
6.50718232044199,-0.7690714982488146
6.5405524861878455,-0.9306400869890273
6.573922651933702,-0.9844472953753854
6.607292817679559,-0.9430473430736134
6.640662983425415,-0.8370834015329368
6.674033149171271,-0.6972750260152012
6.707403314917127,-0.5405160244084606
6.740773480662984,-0.3674856841321781
6.774143646408841,-0.1721482142888104
6.8075138121546965,0.043601435510801353
6.840883977900553,0.25996065361515247
6.874254143646409,0.4409807536803451
6.907624309392266,0.5481863409521626
6.9409944751381225,0.5590701067772426
6.974364640883978,0.48032280378519243
7.007734806629835,0.3481984680146863
7.041104972375691,0.21513470379155564
7.074475138121548,0.12885247132581187
7.107845303867403,0.11381460842352413
7.14121546961326,0.1633792447139774
7.174585635359117,0.2454068083155289
7.207955801104973,0.31767325926002504
7.241325966850829,0.34550298875222135
7.274696132596685,0.31414639820526047
7.308066298342542,0.23186354420589889
7.341436464088399,0.12418734754424035
7.3748066298342545,0.023129081367354268
7.408176795580111,-0.04399798631972411
7.441546961325967,-0.0626093846145429
7.474917127071824,-0.0341857424043068
7.5082872928176805,0.025020252052277567
7.541657458563536,0.08903741733538027
7.575027624309393,0.12979384849045222
7.608397790055249,0.12570295990419583
7.641767955801106,0.0690247351793566
7.675138121546962,-0.030510958515991306
7.708508287292818,-0.1477050049355146
7.741878453038675,-0.2496067730003701
7.775248618784531,-0.3066825950695876
7.808618784530387,-0.30341488948397055
7.841988950276244,-0.24418290486974292
7.8753591160221,-0.1519628410701554
7.908729281767957,-0.06014546463568953
7.9420994475138125,-0.00041891877785194605
7.975469613259669,0.008803913760172873
8.008839779005525,-0.03096563041776682
8.042209944751383,-0.09921565392859241
8.075580110497238,-0.1647208616363436
8.108950276243094,-0.19799554246557152
8.14232044198895,-0.18287038355540397
8.175690607734808,-0.1224377132524068
8.209060773480664,-0.03707026847683211
8.24243093922652,0.044271417423368264
8.275801104972377,0.09543081650998929
8.309171270718233,0.10241160007888356
8.342541436464089,0.06744209878011127
8.375911602209946,0.007075585247028312
8.409281767955802,-0.05412179575872253
8.442651933701658,-0.09171839109968444
8.476022099447514,-0.08888358664174856
8.509392265193371,-0.041228530662505744
8.542762430939227,0.04219196022131059
8.576132596685083,0.1419761879623601
8.60950276243094,0.23458382950996087
8.642872928176796,0.2994677548064473
8.676243093922652,0.3244726011164551
8.709613259668508,0.30759496275345666
8.742983425414366,0.25494686911987663
8.776353591160222,0.17657467603377555
8.809723756906077,0.08261036103659461
8.843093922651935,-0.018382609591771706
8.87646408839779,-0.11863363921338703
8.909834254143647,-0.2093549572046187
8.943204419889504,-0.27995502763628505
8.97657458563536,-0.3196447581295438
9.009944751381216,-0.3211819660168859
9.043314917127072,-0.284905858057875
9.07668508287293,-0.2205902208480958
9.110055248618785,-0.1453798883525539
9.143425414364641,-0.07785653553432438
9.176795580110499,-0.030312442730224085
9.210165745856354,-0.0026613740354626938
9.24353591160221,0.018673727164642967
9.276906077348068,0.05534838443593
9.310276243093924,0.1265829023074599
9.34364640883978,0.23781508973278878
9.377016574585635,0.3739468771013466
9.410386740331493,0.5011669257300366
9.443756906077349,0.5776771025652628
9.477127071823205,0.5694454462254257
9.510497237569062,0.4644398809291284
9.543867403314918,0.27906311631211345
9.577237569060774,0.053677296321450484
9.610607734806631,-0.16124512972812033
9.643977900552487,-0.3227628850813149
9.677348066298343,-0.4096541274494468
9.710718232044199,-0.4273620238631208
9.744088397790057,-0.4019129592843898
9.777458563535912,-0.36588838585376066
9.810828729281768,-0.34306739207737547
9.844198895027626,-0.338814575645132
9.877569060773482,-0.3403142716365015
9.910939226519337,-0.32577684432573667
9.944309392265193,-0.2773531661534944
9.97767955801105,-0.19100927998436792
10.011049723756907,-0.0787185297172845
10.044419889502763,0.03732278007728782
10.07779005524862,0.13468036656797186
10.111160220994476,0.19946577696419293
10.144530386740332,0.22992126885619776
10.17790055248619,0.2340810840536828
10.211270718232045,0.2238998015030137
10.244640883977901,0.20955588339728431
10.278011049723757,0.19673016823862935
10.311381215469615,0.1873484232435266
10.34475138121547,0.18204672198683752
10.378121546961326,0.1817730607422827
10.411491712707184,0.18691099951819015
10.44486187845304,0.1944307247152394
10.478232044198895,0.19544858195955314
10.511602209944753,0.17592176679914157
10.544972375690609,0.12163805483323016
10.578342541436465,0.025981235918995788
10.61171270718232,-0.10328217439565379
10.645082872928178,-0.24231564023453103
10.678453038674034,-0.356788922403875
10.71182320441989,-0.4134354471771032
10.745193370165747,-0.39310101887801074
10.778563535911603,-0.2995517190291643
10.811933701657459,-0.1598083710713745
10.845303867403315,-0.01538385031171746
10.878674033149172,0.0922232354285319
10.912044198895028,0.1360035725653583
10.945414364640884,0.1123118967411108
10.978784530386742,0.041095185572574015
11.012154696132598,-0.04211426344489323
11.045524861878453,-0.09917886213876545
11.078895027624311,-0.10268760405191688
11.112265193370167,-0.04521179690964299
11.145635359116023,0.05854928799267426
11.179005524861878,0.1775321542952564
11.212375690607736,0.2760985209430257
11.245745856353592,0.32754372585344277
11.279116022099448,0.32390494393165264
11.312486187845305,0.2777409435785999
11.345856353591161,0.21484766596975025
11.379226519337017,0.16111025430664994
11.412596685082875,0.1297855776511609
11.44596685082873,0.11563942482538454
11.479337016574586,0.09911650022706256
11.512707182320442,0.058535413219185414
11.5460773480663,-0.016160295451918365
11.579447513812156,-0.1157930743648013
11.612817679558011,-0.2152238184412606
11.646187845303869,-0.28636380892023
11.679558011049725,-0.31402096102980925
11.71292817679558,-0.3053768410194466
11.746298342541436,-0.28679976043323896
11.779668508287294,-0.28865275564892184
11.81303867403315,-0.32598453984877895
11.846408839779006,-0.38616144451658374
11.879779005524863,-0.4313828398966451
11.91314917127072,-0.4160633561076353
11.946519337016575,-0.3106833981698603
11.979889502762433,-0.1197251621066716
12.013259668508288,0.11592739364652417
12.046629834254144,0.333761437601284
12.08,0.4744831731015324
12.113370165745858,0.5051142825148248
12.146740331491714,0.4300606601477981
12.18011049723757,0.28635788059324585
12.213480662983427,0.12685432427635007
12.246850828729283,-0.00016746844056267444
12.280220994475139,-0.06631154173138747
12.313591160220996,-0.06837028695585404
12.346961325966852,-0.02362073354229394
12.380331491712708,0.04101890166382763
12.413701657458564,0.1006466539895302
12.447071823204421,0.14038539910016484
12.480441988950277,0.15756799843861918
12.513812154696133,0.15852891583613662
12.54718232044199,0.15242343398761046
12.580552486187846,0.14529040788572561
12.613922651933702,0.13700556223815444
12.64729281767956,0.12213510518877228
12.680662983425416,0.09373112930989588
12.714033149171271,0.047764663625129954
12.747403314917127,-0.014134561305486742
12.780773480662985,-0.08471298515826456
12.81414364640884,-0.15330403213173865
12.847513812154697,-0.208619091692288
12.880883977900554,-0.24079128699211222
12.91425414364641,-0.2425022807241495
12.947624309392266,-0.21003750461664228
12.980994475138122,-0.14509580014673057
13.01436464088398,-0.0570509977683749
13.047734806629835,0.0360415844341361
13.081104972375691,0.10987525628445817
13.114475138121549,0.14073004427553595
13.147845303867404,0.11511860662019364
13.18121546961326,0.038110985445778005
13.214585635359118,-0.06453506075824052
13.247955801104974,-0.1533091528837282
13.28132596685083,-0.18965832625103338
13.314696132596685,-0.15285089998427695
13.348066298342543,-0.051247233398010746
13.381436464088399,0.07822322691468872
13.414806629834255,0.1836572002432119
13.448176795580112,0.21990024844923609
13.481546961325968,0.16892683773945733
13.514917127071824,0.04909879617693742
13.548287292817681,-0.09190785277256218
13.581657458563537,-0.19808514208224845
13.615027624309393,-0.23052217997791283
13.648397790055249,-0.18510385589663708
13.681767955801106,-0.09366259808118821
13.715138121546962,-0.007799947863005395
13.748508287292818,0.026721108843118006
13.781878453038676,-0.007669276905738447
13.815248618784532,-0.09223246783910019
13.848618784530387,-0.1817278649312493
13.881988950276245,-0.22677154689067916
13.9153591160221,-0.19730363782831067
13.948729281767957,-0.09567156815382084
13.982099447513813,0.04638449002740991
14.01546961325967,0.18416863255543525
14.048839779005526,0.2806742779361497
14.082209944751382,0.3208657651366581
14.11558011049724,0.31330540217159136
14.148950276243095,0.2801224459675866
14.182320441988951,0.2424104337433479
14.215690607734807,0.20970515705210793
14.249060773480664,0.17872385504608673
14.28243093922652,0.14050592593061462
14.315801104972376,0.09025140882352803
14.349171270718234,0.03320329273443264
14.38254143646409,-0.01699443933307109
14.415911602209945,-0.046123901882959326
14.449281767955803,-0.0483638833126338
14.482651933701659,-0.030887393334741407
14.516022099447515,-0.011317054767471479
14.54939226519337,-0.009424514597875928
14.582762430939228,-0.03758109105253021
14.616132596685084,-0.0948864533334672
14.64950276243094,-0.16759678143634626
14.682872928176797,-0.23497564270535942
14.716243093922653,-0.2771154695836687
14.749613259668509,-0.28101621876821703
14.782983425414367,-0.24307595829772283
14.816353591160222,-0.16858451900532062
14.849723756906078,-0.07004662099694886
14.883093922651934,0.03447221905289365
14.916464088397792,0.12340093011775335
14.949834254143648,0.17547610219540527
14.983204419889503,0.17584100132101751
15.016574585635361,0.1227840914563635
15.049944751381217,0.03160790953373629
15.083314917127073,-0.06774075466222688
15.116685082872928,-0.1400492457445167
15.150055248618786,-0.15817248439594056
15.183425414364642,-0.11447596452956224
15.216795580110498,-0.024669246917864204
15.250165745856355,0.0783690160506393
15.283535911602211,0.1582835306973894
15.316906077348067,0.19013506283514262
15.350276243093925,0.16953688236216363
15.38364640883978,0.11202091751377917
15.417016574585636,0.04358824998214383
15.450386740331492,-0.01225696223501163
15.48375690607735,-0.04427116813467878
15.517127071823205,-0.055506573031215416
15.550497237569061,-0.05758375100688331
15.583867403314919,-0.06137873519130398
15.617237569060775,-0.06986733340914596
15.65060773480663,-0.07702901436626992
15.683977900552488,-0.07275283397642021
15.717348066298344,-0.0501243056886561
15.7507182320442,-0.010441461364796744
15.784088397790056,0.03678802536264101
15.817458563535913,0.07828103019436242
15.85082872928177,0.10276105080526006
15.884198895027625,0.10480491743979596
15.917569060773483,0.08532600729160703
15.950939226519338,0.049612121893023685
15.984309392265194,0.00501269601254101
16.01767955801105,-0.0402354614464544
16.051049723756908,-0.07719271591209434
16.084419889502765,-0.09677862479574896
16.11779005524862,-0.09184915561399402
16.151160220994477,-0.06042471992851804
16.18453038674033,-0.008165212006699259
16.21790055248619,0.0520510395140368
16.251270718232046,0.10413194435879489
16.2846408839779,0.13478890663945506
16.318011049723758,0.13850135690196558
16.351381215469615,0.11875493343522116
16.38475138121547,0.08500895246974774
16.418121546961327,0.04736510864230901
16.451491712707185,0.01217413533811895
16.48486187845304,-0.018985635605254764
16.518232044198896,-0.04684906456897116
16.551602209944754,-0.07073223541279995
16.584972375690608,-0.0865357076010889
16.618342541436466,-0.08825802841157515
16.651712707182323,-0.07232013796521168
16.685082872928177,-0.04187385655519835
16.718453038674035,-0.007875957386616698
16.751823204419892,0.014612034249140371
16.785193370165747,0.01360712736607489
16.818563535911604,-0.012775983002977097
16.851933701657458,-0.053582189859319555
16.885303867403316,-0.08880378394606481
16.918674033149173,-0.09858424507626423
16.952044198895027,-0.07356412805414672
16.985414364640885,-0.0209491838597892
17.018784530386743,0.03736756815340534
17.052154696132597,0.07434614484947623
17.085524861878454,0.07063330381608346
17.118895027624312,0.02439850617857452
17.152265193370166,-0.046755100156852865
17.185635359116024,-0.11282844827772809
