Frequency (Hz),Amplitude
0.0,7.891339525430446
0.01993355481727575,7.888850635633343
0.0398671096345515,7.88138907563197
0.059800664451827246,7.868970183263077
0.079734219269103,7.851619553902081
0.09966777408637874,7.82937308925255
0.11960132890365449,7.802277066285287
0.13953488372093023,7.770388226954703
0.159468438538206,7.733773889489742
0.17940199335548174,7.692512082216942
0.19933554817275748,7.64669170102095
0.21926910299003324,7.59641269167666
0.23920265780730898,7.541786258390739
0.25913621262458475,7.482935099959018
0.27906976744186046,7.419993674967699
0.29900332225913623,7.353108497425081
0.318936877076412,7.28243846408657
0.3388704318936877,7.208155214503518
0.3588039867109635,7.130443524454319
0.37873754152823924,7.049501732865152
0.39867109634551495,6.965542201549261
0.4186046511627907,6.878791806029613
0.4385382059800665,6.78949245429063
0.4584717607973422,6.697901628449157
0.47840531561461797,6.604292941948845
0.49833887043189373,6.50895670186275
0.5182724252491695,6.412200462123462
0.5382059800664452,6.314349548877187
0.5581395348837209,6.215747533573729
0.5780730897009968,6.116756622780833
0.5980066445182725,6.017757926020777
0.6179401993355482,5.9191515542213775
0.637873754152824,5.821356491832092
0.6578073089700996,5.724810175634189
0.6777408637873754,5.629967703368858
0.6976744186046512,5.537300586419669
0.717607973421927,5.447294954176154
0.7375415282392027,5.360449115024127
0.7574750830564785,5.277270382169334
0.7774086378737541,5.198271083976327
0.7973421926910299,5.123963700493949
0.8172757475083057,5.054855102298648
0.8372093023255814,4.991439915809879
0.8571428571428572,4.934193100421092
0.877076411960133,4.88356189462744
0.8970099667774087,4.839957365718576
0.9169435215946844,4.803745872776072
0.9368770764119602,4.775240815759818
0.9568106312292359,4.754695083563626
0.9767441860465116,4.7422946212205135
0.9966777408637875,4.738153504302247
1.0166112956810631,4.742310835565475
1.036544850498339,4.754729670034806
1.0564784053156147,4.775298041191954
1.0764119601328903,4.803832018524651
1.0963455149501662,4.840080592829199
1.1162790697674418,4.883732076182864
1.1362126245847177,4.9344216297268915
1.1561461794019936,4.991739499438874
1.176079734219269,5.055239546624889
1.196013289036545,5.124447699369606
1.2159468438538206,5.198870013845574
1.2358803986710964,5.278000109380096
1.255813953488372,5.361325818570753
1.275747508305648,5.448334965717131
1.2956810631229239,5.53852024824603
1.3156146179401993,5.631383244085998
1.3355481727574752,5.726437602662312
1.3554817275747508,5.82321149940228
1.3754152823920267,5.921249445308364
1.3953488372093024,6.020113546566476
1.4152823920265782,6.119384306584274
1.435215946843854,6.218661056317453
1.4551495016611296,6.317562089898342
1.4750830564784054,6.415724572697662
1.495016611295681,6.5128042789343565
1.514950166112957,6.608475206402093
1.5348837209302328,6.702429107163342
1.5548172757475083,6.794374965356804
1.5747508305647842,6.884038446623223
1.5946843853820598,6.971161338054327
1.6146179401993357,7.055500992930607
1.6345514950166113,7.136829790734381
1.6544850498338872,7.2149346198924444
1.6744186046511629,7.289616388305968
1.6943521594684385,7.360689564860591
1.7142857142857144,7.427981753682553
1.73421926910299,7.491333301836635
1.754152823920266,7.55059694037758
1.7740863787375416,7.605637458111533
1.7940199335548175,7.656331407048488
1.8139534883720931,7.702566838291552
1.8338870431893688,7.74424306698307
1.8538205980066447,7.7812704648841375
1.8737541528239203,7.813570279184675
1.893687707641196,7.841074476208633
1.9136212624584719,7.863725608781561
1.9335548172757475,7.881476706156419
1.9534883720930232,7.894291185540337
1.9734219269102993,7.902142784425301
1.993355481727575,7.905015513095015
2.0132890365448506,7.902903626855638
2.0332225913621262,7.895811617717371
2.0531561461794023,7.883754225435325
2.073089700996678,7.866756468000277
2.0930232558139537,7.844853691851304
2.1129568106312293,7.8180916422617415
2.132890365448505,7.78652655452534
2.1528239202657806,7.75022526673916
2.1727574750830567,7.709265355139745
2.1926910299003324,7.663735293096811
2.212624584717608,7.613734634997236
2.2325581395348837,7.559374226355549
2.25249169435216,7.500776441555331
2.2724252491694354,7.438075450647004
2.292358803986711,7.371417516585893
2.312292358803987,7.300961324169879
2.332225913621263,7.226878341702843
2.352159468438538,7.149353216037866
2.3720930232558137,7.068584201102046
2.39202657807309,6.984783619225975
2.4119601328903655,6.898178353536416
2.431893687707641,6.80901036825176
2.4518272425249172,6.717537251864298
2.471760797342193,6.62403277580923
2.4916943521594686,6.528787458202474
2.511627906976744,6.432109118467947
2.5315614617940203,6.334323404057144
2.551495016611296,6.2357742648868495
2.5714285714285716,6.136824344507555
2.5913621262458477,6.037855249336834
2.611295681063123,5.939267648601943
2.6312292358803986,5.841481148111629
2.6511627906976742,5.744933870973596
2.6710963455149503,5.6500816684854245
2.691029900332226,5.557396875550143
2.7109634551495017,5.46736651835786
2.7308970099667778,5.380489879374789
2.7508305647840534,5.297275327895999
2.770764119601329,5.218236335810659
2.7906976744186047,5.143886620090578
2.810631229235881,5.0747343877966555
2.8305647840531565,5.011275707200637
2.850498338870432,4.95398708955972
2.870431893687708,4.903317437673073
2.8903654485049834,4.8596795945384486
2.910299003322259,4.823441800506088
2.9302325581395348,4.794919430444795
2.950166112956811,4.774367422812931
2.9700996677740865,4.761973820334964
2.990033222591362,4.757854810548726
3.0099667774086383,4.762051582312038
3.029900332225914,4.774529206302018
3.0498338870431896,4.7951776146801395
3.0697674418604657,4.823814613069261
3.089700996677741,4.860190724168911
3.1096345514950166,4.90399555253611
3.129568106312292,4.954865285659769
3.1495016611295683,5.012390912678819
3.169435215946844,5.076126747772256
3.1893687707641196,5.145598883953638
3.2093023255813957,5.220313265026906
3.2292358803986714,5.299763138036493
3.249169435215947,5.383435725739858
3.2691029900332227,5.4708180306074965
3.289036544850499,5.561401743415559
3.3089700996677744,5.654687278021241
3.32890365448505,5.750186988917023
3.3488372093023258,5.847427650675231
3.3687707641196014,5.945952290332634
3.388704318936877,6.045321467406872
3.4086378737541527,6.1451140938471545
3.428571428571429,6.244927879822342
3.4485049833887045,6.344379482500279
3.46843853820598,6.443104425147876
3.4883720930232562,6.5407568438969745
3.508305647840532,6.637009109984316
3.5282392026578075,6.731551366552718
3.548172757475083,6.824091011380652
3.5681063122923593,6.9143521502476455
3.588039867109635,7.002075040020085
3.60797342192691,7.0870155358801314
3.6279069767441863,7.168944553318957
3.647840531561462,7.247647552462705
3.6677740863787376,7.322924049884313
3.6877076411960132,7.394587161173007
3.7076411960132893,7.462463176092081
3.727574750830565,7.526391167073022
3.7475083056478407,7.586222630999994
3.7674418604651168,7.641821163674625
3.787375415282392,7.693062165968487
3.807308970099668,7.739832580429945
3.8272425249169437,7.782030656981066
3.8471760797342194,7.819565746293491
3.867109634551495,7.852358119449517
3.887043189368771,7.88033881255968
3.9069767441860463,7.903449495109222
3.9269102990033224,7.921642360932717
3.9468438538205985,7.934880040862037
3.9667774086378738,7.943135536252574
3.98671096345515,7.946392172760857
4.0066445182724255,7.944643573922093
4.026578073089701,7.937893654255077
4.046511627906977,7.926156631802921
4.0664451827242525,7.909457060200329
4.086378737541528,7.88782988053903
4.106312292358805,7.861320493482342
4.1262458471760795,7.829984852254887
4.146179401993356,7.793889577302419
4.166112956810632,7.75311209357658
4.186046511627907,7.707740791545531
4.205980066445183,7.657875213159404
4.225913621262459,7.603626264100899
4.245847176079734,7.545116453717895
4.26578073089701,7.482480164053574
4.2857142857142865,7.415863949344674
4.305647840531561,7.345426867230313
4.325581395348838,7.271340842676393
4.345514950166113,7.193791065242662
4.365448504983389,7.112976419761298
4.385382059800665,7.029109949709766
4.40531561461794,6.942419351487839
4.425249169435216,6.85314749638053
4.445182724252492,6.761552975123227
4.465116279069767,6.667910657590638
4.485049833887043,6.57251225710302
4.50498338870432,6.4756668850721155
4.524916943521594,6.377701577083465
4.544850498338871,6.278961765930214
4.5647840531561465,6.179811670500675
4.584717607973422,6.080634561750722
4.604651162790698,5.9818328583192395
4.624584717607974,5.8838279948491845
4.644518272425249,5.7870599961160245
4.664451827242526,5.691986680234984
4.6843853820598005,5.599082405414602
4.704318936877076,5.508836268199068
4.724252491694353,5.421749658530847
4.7441860465116275,5.338333080262524
4.764119601328904,5.259102157197489
4.78405315614618,5.184572766614316
4.803986710963455,5.115255276459024
4.823920265780731,5.051647910048614
4.8438538205980075,4.994229322827484
4.863787375415282,4.943450546976137
4.883720930232559,4.899726536467444
4.9036544850498345,4.863427619853053
4.92358803986711,4.834871230874518
4.943521594684386,4.814314327246409
4.963455149501661,4.801946915903665
4.983388704318937,4.797887072010044
5.003322259136213,4.8021777675688
5.023255813953488,4.814785718329198
5.043189368770764,4.835602325764113
5.063122923588041,4.864446649665365
5.083056478405315,4.901070213579353
5.102990033222592,4.9451633356005535
5.122923588039868,4.996362602321812
5.142857142857143,5.05425906929771
5.162790697674419,5.118406776178969
5.182724252491695,5.188331202445444
5.20265780730897,5.263537350840527
5.222591362126246,5.343517219524132
5.242524916943522,5.427756500734114
5.262458471760797,5.51574041554322
5.282392026578074,5.6069586558873725
5.3023255813953485,5.700909453750449
5.322259136212625,5.7971028326771545
5.342192691029901,5.895063119623028
5.362126245847176,5.99433080741142
5.382059800664452,6.094463862001637
5.4019933554817285,6.195038566630652
5.421926910299003,6.295649988686058
5.44186046511628,6.395912146562996
5.4617940199335555,6.495457944031503
5.48172757475083,6.5939389297164706
5.501661129568107,6.69102492978554
5.5215946843853825,6.7864035932269875
5.541528239202658,6.87977988137131
5.561461794019934,6.970875526632622
5.5813953488372094,7.059428479798535
5.601328903654485,7.145192360508685
5.621262458471762,7.227935921732874
5.641196013289036,7.3074425359803685
5.661129568106313,7.383509708532154
5.681063122923589,7.455948621083936
5.700996677740864,7.524583707727108
5.72093023255814,7.589252264094826
5.740863787375416,7.649804089691784
5.760797342192691,7.706101162849689
5.780730897009967,7.7580173473574945
5.800664451827243,7.805438129566148
5.820598006644518,7.8482603846294525
5.840531561461795,7.886392170490407
5.8604651162790695,7.919752548234808
5.880398671096346,7.948271427495584
5.900332225913622,7.9718894356894605
5.920265780730897,7.990557809992131
5.940199335548173,8.004238311102817
5.960132890365449,8.012903158006672
5.980066445182724,8.016534983111889
6.0,8.015126807312084
6.0199335548172765,8.00868203470349
6.039867109634551,7.9972144668670255
6.059800664451828,7.980748336806636
6.0797342192691035,7.959318362816732
6.099667774086379,7.932969822729257
6.119601328903655,7.901758649166068
6.139534883720931,7.865751546589909
6.159468438538206,7.825026131105736
6.179401993355482,7.779671094108854
6.1993355481727574,7.7297863910013955
6.219269102990033,7.675483456297746
6.23920265780731,7.616885446501564
6.259136212624584,7.554127512151107
6.279069767441861,7.487357100378594
6.299003322259137,7.416734289193479
6.318936877076412,7.3424321544531725
6.338870431893688,7.264637170095494
6.3588039867109645,7.18354964163611
6.378737541528239,7.099384172132532
6.398671096345516,7.012370158725543
6.418604651162791,6.9227523164205085
6.438538205980066,6.8307912238831285
6.458471760797343,6.7367638836043
6.4784053156146175,6.640964285735643
6.498338870431894,6.543703961099354
6.51827242524917,6.445312504226537
6.538205980066445,6.346138041676453
6.558139534883721,6.246547614263667
6.578073089700998,6.146927434148627
6.598006644518272,6.0476829690914995
6.617940199335549,5.949238796713724
6.6378737541528245,5.852038161721786
6.6578073089701,5.756542159324073
6.677740863787376,5.6632284594143885
6.6976744186046515,5.572589479758078
6.717607973421927,5.485129914028172
6.737541528239203,5.40136352407924
6.7574750830564785,5.3218091175371125
6.777408637873754,5.246985653856922
6.797342192691031,5.177406456345275
6.8172757475083055,5.113572555279447
6.837209302325582,5.055965247752815
6.857142857142858,5.005038030725319
6.877076411960133,4.961208139950172
6.897009966777409,4.924848001392056
6.9169435215946855,4.896276963788802
6.93687707641196,4.875753720602163
6.956810631229236,4.863469837164192
6.9767441860465125,4.859544767853151
6.996677740863787,4.864022677166511
7.016611295681064,4.876871272324159
7.036544850498339,4.897982724307314
7.056478405315615,4.927176614253797
7.076411960132891,4.9642047098590325
7.096345514950166,5.008757267386563
7.116279069767442,5.060470480327965
7.136212624584719,5.118934660964606
7.156146179401993,5.183702745143642
7.17607973421927,5.254298747382162
7.196013289036546,5.330225853576162
7.21594684385382,5.410973911607741
7.235880398671097,5.496026156238287
7.2558139534883725,5.584865076058689
7.275747508305648,5.676977391700256
7.295681063122924,5.771858163277561
7.3156146179402,5.869014080532744
7.335548172757475,5.967966012290746
7.355481727574752,6.068250904433019
7.3754152823920265,6.169423119862432
7.395348837209303,6.271055312086098
7.415282392026579,6.372738918085384
7.435215946843854,6.474084347729258
7.45514950166113,6.57472093740175
7.475083056478406,6.674296725683708
7.495016611295681,6.772478099478433
7.514950166112956,6.868949350283348
7.5348837209302335,6.963412172585637
7.554817275747508,7.05558512967081
7.574750830564784,7.145203106464466
7.5946843853820605,7.232016764312156
7.614617940199336,7.31579200874345
7.634551495016611,7.396309478157346
7.6544850498338874,7.47336405889773
7.674418604651163,7.5467644302570225
7.694352159468439,7.616332641461713
7.714285714285715,7.681903721572251
7.73421926910299,7.743325322402645
7.754152823920266,7.80045739397282
7.774086378737542,7.8531718916006215
7.794019933554818,7.901352513479498
7.813953488372093,7.944894467440987
7.83388704318937,7.983704265540805
7.853820598006645,8.017699545114075
7.8737541528239205,8.046808915001687
7.893687707641197,8.070971825744207
7.913621262458472,8.090138462661228
7.9335548172757475,8.104269660876437
7.953488372093024,8.113336841504404
7.9734219269103,8.117321968382313
7.9933554817275745,8.116217524902225
8.013289036544851,8.1100265106781
8.033222591362128,8.09876245796081
8.053156146179402,8.082449467896259
8.073089700996679,8.061122266900934
8.093023255813954,8.03482628360725
8.11295681063123,8.003617747004153
8.132890365448505,7.967563806564943
8.152823920265782,7.926742675310077
8.172757475083056,7.8812437968948155
8.192691029900331,7.831168037932954
8.21262458471761,7.7766279068615995
8.232558139534884,7.717747800708087
8.252491694352159,7.65466428112616
8.272425249169435,7.587526381007557
8.292358803986712,7.516495942827305
8.312292358803987,7.441747989619388
8.332225913621263,7.363471129072568
8.352159468438538,7.281867990643314
8.372093023255815,7.19715569475542
8.392026578073091,7.1095663520359995
8.411960132890366,7.019347589054377
8.43189368770764,6.9267630951045005
8.451827242524917,6.83209318210922
8.471760797342194,6.73563534662607
8.491694352159469,6.637704819090245
8.511627906976745,6.538635080735697
8.53156146179402,6.4387783229936755
8.551495016611296,6.338505817514358
8.571428571428573,6.238208157274458
8.591362126245848,6.138295320594998
8.611295681063122,6.039196500492357
8.6312292358804,5.941359632000579
8.651162790697676,5.845250540546254
8.67109634551495,5.751351626038479
8.691029900332227,5.660159991316268
8.710963455149502,5.572184921597909
8.730897009966778,5.48794462556631
8.750830564784053,5.407962160888905
8.77076411960133,5.33276048948961
8.790697674418604,5.262856642575247
8.81063122923588,5.198755023208289
8.830564784053157,5.14093993458646
8.850498338870432,5.089867492565907
8.870431893687707,5.0459571563112595
8.890365448504983,5.009583183728169
8.91029900332226,4.98106637900118
8.930232558139535,4.960666537792547
8.950166112956811,4.948576002120731
8.970099667774086,4.9449147053753375
8.990033222591363,4.949727017049195
9.00996677740864,4.962980591342008
9.029900332225914,4.984567294468108
9.049833887043189,5.014306147258307
9.069767441860467,5.051948089116599
9.089700996677742,5.0971822617607385
9.109634551495017,5.149643437458173
9.129568106312293,5.2089201818660555
9.14950166112957,5.274563345214011
9.169435215946844,5.34609451149005
9.189368770764121,5.423014094341077
9.209302325581396,5.5048088402898605
9.22923588039867,5.590958574992844
9.249169435215949,5.680942098932677
9.269102990033224,5.774242199950735
9.289036544850498,5.870349798642114
9.308970099667773,5.9687672782041306
9.328903654485051,6.069011073689798
9.348837209302326,6.1706136085223084
9.368770764119601,6.273124670728377
9.388704318936878,6.376112319827974
9.408637873754152,6.479163409649222
9.428571428571429,6.581883804163855
9.448504983388705,6.683898354038038
9.46843853820598,6.784850691897523
9.488372093023255,6.884402894944636
9.508305647840533,6.982235054930433
9.528239202657808,7.078044787784508
9.548172757475083,7.17154670851935
9.56810631229236,7.26247189134532
9.588039867109636,7.350567330195442
9.60797342192691,7.435595410974028
9.627906976744187,7.5173334037043995
9.647840531561462,7.595572980253386
9.667774086378738,7.670119761351282
9.687707641196015,7.740792895114945
9.70764119601329,7.807424668136735
9.727574750830565,7.869860149353666
9.747508305647841,7.927956866300675
9.767441860465118,7.981584512929305
9.787375415282392,8.030624687899497
9.807308970099669,8.074970662093564
9.827242524916944,8.114527174032114
9.84717607973422,8.149210251870333
9.867109634551497,8.178947060704063
9.887043189368772,8.203675774003692
9.906976744186046,8.223345468112226
9.926910299003321,8.237916038882723
9.9468438538206,8.247358139683929
9.966777408637874,8.251653140167939
9.986710963455149,8.250793105365346
10.006644518272426,8.24478079484958
10.026578073089702,8.233629681891598
10.046511627906977,8.217363992705518
10.066445182724253,8.196018766064439
10.086378737541528,8.169639933742602
10.106312292358805,8.13828442241026
10.126245847176081,8.102020277772393
10.146179401993356,8.060926811894651
10.16611295681063,8.01509477479748
10.186046511627907,7.964626551514925
10.205980066445184,7.909636385901323
10.225913621262459,7.8502506325154595
10.245847176079735,7.786608037905973
10.26578073089701,7.718860052546245
10.285714285714286,7.64717117450037
10.305647840531563,7.571719325618496
10.325581395348838,7.492696260625026
10.345514950166113,7.410308008838619
10.36544850498339,7.324775347396363
10.385382059800666,7.236334303690054
10.40531561461794,7.145236683187363
10.425249169435217,7.051750616825548
10.445182724252492,6.956161119638519
10.465116279069768,6.8587706491086085
10.485049833887045,6.759899647817653
10.50498338870432,6.659887050205148
10.524916943521594,6.559090727534948
10.544850498338871,6.457887838467526
10.564784053156147,6.356675044928716
10.584717607973422,6.255868544341855
10.604651162790697,6.155903859962131
10.624584717607974,6.057235321414734
10.64451827242525,5.960335158225648
10.664451827242525,5.865692121073942
10.684385382059801,5.773809539958009
10.704318936877076,5.6852027270810535
10.724252491694353,5.6003956369697745
10.74418604651163,5.519916709286317
10.764119601328904,5.444293843083348
10.784053156146179,5.374048486586604
10.803986710963457,5.309688874772552
10.823920265780732,5.2517025073712755
10.843853820598007,5.200548029766632
10.863787375415283,5.15664675348022
10.88372093023256,5.120374123992561
10.903654485049834,5.09205150219052
10.923588039867111,5.0719386616810676
10.943521594684386,5.060227408610473
