Frequency (Hz),Amplitude
0.0,0.5170117560410725
0.01978021978021978,0.5171861597210174
0.03956043956043956,0.5177082272850332
0.05934065934065934,0.5185745433319162
0.07912087912087912,0.5197794651436493
0.0989010989010989,0.5213151954931335
0.11868131868131868,0.5231718814355535
0.13846153846153844,0.5253377361608925
0.15824175824175823,0.5277991804380321
0.17802197802197803,0.530540999814616
0.1978021978021978,0.5335465135565781
0.21758241758241756,0.536797751311418
0.23736263736263735,0.5402756336392477
0.2571428571428572,0.5439601528497033
0.2769230769230769,0.5478305509780085
0.2967032967032967,0.5518654921959485
0.31648351648351647,0.556043227450759
0.3362637362637363,0.560341749627299
0.35604395604395606,0.5647389380126704
0.3758241758241758,0.5692126912884122
0.3956043956043956,0.5737410486714678
0.4153846153846154,0.5783022991632164
0.4351648351648351,0.5828750791441298
0.45494505494505494,0.5874384587702199
0.4747252747252747,0.5919720177907248
0.4945054945054945,0.5964559115199305
0.5142857142857143,0.6008709277660692
0.5340659340659341,0.6051985355545063
0.5538461538461538,0.6094209264869219
0.5736263736263736,0.613521049560638
0.5934065934065934,0.6174826402372753
0.6131868131868132,0.6212902445034264
0.6329670329670329,0.6249292386119938
0.6527472527472528,0.6283858451343592
0.6725274725274726,0.6316471458940202
0.6923076923076923,0.6347010922929923
0.7120879120879121,0.6375365134855523
0.7318681318681318,0.6401431227997071
0.7516483516483516,0.6425115227568349
0.7714285714285715,0.6446332089939261
0.7912087912087912,0.6465005733510211
0.810989010989011,0.6481069063486067
0.8307692307692308,0.6494463992463333
0.8505494505494506,0.6505141458437274
0.8703296703296702,0.6513061441572087
0.8901098901098901,0.6518192980831127
0.9098901098901099,0.6520514191350558
0.9296703296703297,0.6520012283239532
0.9494505494505494,0.6516683582307358
0.9692307692307692,0.6510533553043487
0.989010989010989,0.6501576824006925
1.0087912087912088,0.6489837215610669
1.0285714285714287,0.6475347770115153
1.0483516483516484,0.6458150783452289
1.0681318681318681,0.6438297838306789
1.087912087912088,0.641584983765151
1.1076923076923075,0.639087703768625
1.1274725274725275,0.6363459078843239
1.1472527472527472,0.6333685013198026
1.1670329670329669,0.6301653326258118
1.1868131868131868,0.6267471950680025
1.2065934065934065,0.6231258268992385
1.2263736263736265,0.6193139101867976
1.2461538461538462,0.6153250677890258
1.2659340659340659,0.6111738580103385
1.2857142857142858,0.6068757663912747
1.3054945054945055,0.6024471940132694
1.3252747252747252,0.597905441616046
1.3450549450549452,0.5932686887417769
1.3648351648351649,0.5885559670361157
1.3846153846153846,0.5837871267561757
1.4043956043956045,0.5789827954633987
1.4241758241758242,0.5741643278217713
1.443956043956044,0.5693537453848319
1.4637362637362636,0.5645736652480705
1.4835164835164834,0.559847216475176
1.5032967032967033,0.5551979432878914
1.523076923076923,0.550649694150327
1.542857142857143,0.546226496089995
1.5626373626373626,0.541952413887925
1.5824175824175823,0.5378513941449574
1.6021978021978023,0.533947094692852
1.621978021978022,0.5302627003625272
1.6417582417582417,0.5268207267367864
1.6615384615384616,0.523642814181212
1.6813186813186813,0.5207495151356603
1.7010989010989013,0.518160078322712
1.720879120879121,0.5158922341432666
1.7406593406593405,0.5139619860339067
1.7604395604395604,0.5123834129058766
1.7802197802197801,0.511168487925462
1.7999999999999998,0.5103269187946103
1.8197802197802198,0.5098660143285206
1.8395604395604395,0.5097905815018815
1.8593406593406594,0.5101028562687406
1.879120879120879,0.5108024703943868
1.8989010989010988,0.5118864553329331
1.9186813186813187,0.5133492829159465
1.9384615384615385,0.5151829413665787
1.9582417582417584,0.5173770439995099
1.978021978021978,0.5199189669790945
1.9978021978021978,0.5227940117391531
2.0175824175824175,0.5259855871511319
2.0373626373626372,0.5294754062736531
2.0571428571428574,0.5332436925146938
2.076923076923077,0.537269390261792
2.096703296703297,0.5415303754439573
2.1164835164835165,0.5460036620340762
2.1362637362637362,0.5506656011334832
2.1560439560439564,0.555492069952748
2.175824175824176,0.5604586486738027
2.195604395604396,0.5655407838153946
2.215384615384615,0.5707139373005198
2.2351648351648348,0.5759537209271813
2.254945054945055,0.5812360163627843
2.2747252747252746,0.5865370811173453
2.2945054945054943,0.5918336412048274
2.314285714285714,0.5971029713822993
2.3340659340659338,0.6023229639722929
2.353846153846154,0.6074721873356322
2.3736263736263736,0.6125299350790654
2.3934065934065933,0.6174762670655973
2.413186813186813,0.6222920432530542
2.4329670329670328,0.6269589513261971
2.452747252747253,0.6314595290163302
2.4725274725274726,0.6357771819245288
2.4923076923076923,0.6398961975846373
2.512087912087912,0.6438017564233136
2.5318681318681318,0.6474799401983952
2.5516483516483515,0.6509177384256538
2.5714285714285716,0.6541030532382774
2.5912087912087913,0.6570247030638287
2.610989010989011,0.659672425449983
2.6307692307692307,0.6620368793230568
2.6505494505494505,0.664109646921742
2.6703296703296706,0.6658832356126682
2.6901098901098903,0.6673510797631194
2.70989010989011,0.6685075428197816
2.7296703296703297,0.6693479197196539
2.7494505494505495,0.6698684397400936
2.769230769230769,0.6700662698782716
2.7890109890109893,0.6699395188365562
2.808791208791209,0.6694872416777081
2.8285714285714287,0.668709445202761
2.8483516483516484,0.6676070940943202
2.8681318681318677,0.6661821178574089
2.887912087912088,0.6644374185800114
2.9076923076923076,0.6623768795233337
2.9274725274725273,0.6600053745391079
2.947252747252747,0.6573287782953419
2.9670329670329667,0.6543539772736572
2.986813186813187,0.6510888814782716
3.0065934065934066,0.6475424367694551
3.0263736263736263,0.6437246377003925
3.046153846153846,0.6396465406957825
3.0659340659340657,0.6353202773610162
3.085714285714286,0.6307590676519123
3.1054945054945056,0.6259772325645507
3.1252747252747253,0.6209902059219057
3.145054945054945,0.6158145447369565
3.1648351648351647,0.6104679375201011
3.184615384615385,0.6049692097704505
3.2043956043956046,0.5993383257465691
3.2241758241758243,0.5935963854520245
3.243956043956044,0.5877656155972337
3.2637362637362637,0.5818693531140658
3.2835164835164834,0.5759320196094997
3.3032967032967036,0.5699790849556055
3.3230769230769233,0.5640370180385311
3.342857142857143,0.5581332225400003
3.3626373626373627,0.5522959555225471
3.3824175824175824,0.5465542265536741
3.4021978021978025,0.5409376751616383
3.4219780219780223,0.5354764245936255
3.441758241758242,0.5302009101763937
3.4615384615384617,0.5251416810846641
3.481318681318681,0.5203291750293922
3.501098901098901,0.5157934662946211
3.520879120879121,0.5115639886779468
3.5406593406593405,0.5076692362008322
3.5604395604395602,0.5041364459029203
3.58021978021978,0.5009912685449025
3.5999999999999996,0.49825743451390914
3.61978021978022,0.49595642353202085
3.6395604395604395,0.4941071477753608
3.659340659340659,0.49272565858631867
3.679120879120879,0.49182488699084076
3.6989010989010986,0.4914144276408507
3.718681318681319,0.4915003745693242
3.7384615384615385,0.4920852153132172
3.758241758241758,0.4931677876385749
3.7780219780219784,0.4947433004575339
3.7978021978021976,0.4968034177639864
3.8175824175824173,0.4993364017530823
3.8373626373626375,0.5023273089356051
3.8571428571428568,0.5057582311792228
3.876923076923077,0.5096085723185112
3.896703296703296,0.513855350318914
3.916483516483517,0.5184735149418739
3.936263736263736,0.5234362713657496
3.956043956043956,0.5287154011617958
3.9758241758241755,0.5342815732747251
3.9956043956043956,0.5401046390803762
4.015384615384615,0.5461539070667569
4.035164835164835,0.552398394106711
4.054945054945055,0.5588070515861615
4.0747252747252745,0.5653489657708154
4.094505494505494,0.5719935327132669
4.114285714285715,0.5787106087153332
4.134065934065934,0.5854706378787976
4.153846153846154,0.5922447586218648
4.173626373626373,0.5990048912336552
4.193406593406594,0.6057238086145527
4.213186813186813,0.612375192331855
4.232967032967033,0.6189336760340816
4.252747252747253,0.6253748781347214
4.2725274725274724,0.6316754255145858
4.292307692307692,0.6378129698161836
4.312087912087913,0.6437661977241392
4.331868131868132,0.6495148364499342
4.351648351648352,0.6550396554735808
4.371428571428571,0.6603224654417097
4.391208791208792,0.6653461149831819
4.410989010989011,0.6700944860804497
4.43076923076923,0.6745524885271864
4.450549450549451,0.6787060539100709
4.4703296703296695,0.6825421294731491
4.49010989010989,0.6860486721564664
4.50989010989011,0.6892146430454044
4.52967032967033,0.6920300024211858
4.549450549450549,0.6944857055666683
4.569230769230769,0.6965736994516811
4.589010989010989,0.6982869203999222
4.608791208791209,0.6996192928219506
4.628571428571428,0.7005657290863528
4.648351648351649,0.7011221305926313
4.6681318681318675,0.7012853901042554
4.687912087912088,0.7010533953975673
4.707692307692308,0.7004250342820293
4.7274725274725276,0.6994002010483488
4.747252747252747,0.6979798044034244
4.767032967032967,0.6961657769542793
4.786813186813187,0.6939610863060427
4.806593406593407,0.691369747842125
4.826373626373626,0.688396839256479
4.846153846153847,0.6850485169080939
4.8659340659340655,0.6813320340653938
4.885714285714286,0.6772557611027962
4.905494505494506,0.672829207700857
4.9252747252747255,0.6680630470853087
4.945054945054945,0.6629691423158579
4.964835164835165,0.6575605746016003
4.984615384615385,0.6518516735734152
5.004395604395604,0.645858049382413
5.024175824175824,0.6395966264129358
5.043956043956045,0.633085678296282
5.0637362637362635,0.6263448637814767
5.083516483516483,0.6193952628580411
5.103296703296703,0.6122594123272448
5.123076923076923,0.6049613397773715
5.142857142857143,0.5975265946304605
5.162637362637362,0.5899822745881476
5.182417582417583,0.5823570454107606
5.2021978021978015,0.574681151516599
5.221978021978022,0.5669864143929537
5.241758241758242,0.5593062152774323
5.2615384615384615,0.5516754580178699
5.281318681318681,0.5441305074827776
5.301098901098901,0.536709098415997
5.320879120879121,0.5294502092704896
5.340659340659341,0.5223938953942919
5.36043956043956,0.5155810760699796
5.380219780219781,0.5090532704331912
5.3999999999999995,0.5028522783244261
5.41978021978022,0.4970198037601589
5.43956043956044,0.4915970210129185
5.4593406593406595,0.4866240862810963
5.479120879120879,0.48213960154329455
5.498901098901099,0.4781800412624157
5.518681318681319,0.47477915684909006
5.538461538461538,0.47196737781707454
5.558241758241758,0.46977123188905917
5.578021978021979,0.46821280843268387
5.5978021978021975,0.46730929007037175
5.617582417582418,0.4670725757975178
5.637362637362637,0.46750901536945705
5.6571428571428575,0.4686192692585885
5.676923076923077,0.4703983015953202
5.696703296703297,0.4728355058683833
5.716483516483517,0.47591495556977076
5.736263736263735,0.47961576521551114
5.756043956043956,0.48391254190715166
5.775824175824176,0.48877590423848827
5.795604395604395,0.49417304404039747
5.815384615384615,0.5000683070686736
5.835164835164835,0.5064237709425683
5.854945054945055,0.5131998019765291
5.874725274725275,0.5203555765160663
5.894505494505494,0.5278495565307924
5.914285714285715,0.5356399131583868
5.934065934065933,0.5436848953701678
5.953846153846154,0.5519431437910476
5.973626373626374,0.5603739519005453
5.993406593406593,0.568937478389421
6.013186813186813,0.577594915417021
6.032967032967033,0.5863086180066015
6.052747252747253,0.5950421999325317
6.072527472527473,0.6037606012966682
6.092307692307692,0.6124301326494072
6.112087912087913,0.6210185000573888
6.131868131868131,0.6294948150118852
6.151648351648352,0.6378295925514605
6.171428571428572,0.6459947404683911
6.191208791208791,0.6539635420001968
6.210989010989011,0.6617106339844961
6.230769230769231,0.6692119820829775
6.2505494505494505,0.6764448543589234
6.270329670329671,0.6833877942192519
6.29010989010989,0.690020593504171
6.309890109890111,0.6963242663188716
6.329670329670329,0.7022810240490112
6.349450549450549,0.7078742518784218
6.36923076923077,0.7130884870309786
6.3890109890109885,0.7179093988825194
6.408791208791209,0.7223237710318694
6.428571428571428,0.7263194853769989
6.4483516483516485,0.7298855082122435
6.468131868131868,0.7330118783419989
6.487912087912088,0.7356896971940422
6.507692307692308,0.7379111209098124
6.527472527472527,0.7396693543884972
6.547252747252747,0.7409586472658355
6.567032967032967,0.7417742918156971
6.5868131868131865,0.7421126227730742
6.606593406593407,0.7419710190896915
6.626373626373626,0.741347907648441
6.6461538461538465,0.7402427689791778
6.665934065934065,0.7386561450367278
6.685714285714286,0.7365896491213346
6.705494505494506,0.7340459780422138
6.725274725274725,0.7310289266467268
6.745054945054945,0.7275434048595568
6.764835164835165,0.7235954573994644
6.7846153846153845,0.7191922863635906
6.804395604395605,0.7143422768917788
6.824175824175824,0.7090550261444232
6.8439560439560445,0.7033413758460488
6.863736263736263,0.697213448662172
6.883516483516484,0.6906846886864726
6.903296703296704,0.6837699063172492
6.923076923076923,0.6764853277925886
6.942857142857143,0.6688486496290973
6.962637362637362,0.6608790981634265
6.9824175824175825,0.6525974943232602
7.002197802197802,0.644026323644751
7.021978021978022,0.6351898113981949
7.041758241758242,0.6261140024674476
7.061538461538461,0.6168268453375853
7.081318681318681,0.607358279160153
7.101098901098901,0.5977403223652066
7.1208791208791204,0.5880071606520086
7.140659340659341,0.5781952313911242
7.16043956043956,0.5683433004895292
7.1802197802197805,0.5584925265896414
7.199999999999999,0.5486865060889176
7.21978021978022,0.5389712908933221
7.23956043956044,0.5293953690996612
7.259340659340659,0.5200095970280851
7.279120879120879,0.5108670693429219
7.298901098901099,0.5020229126294963
7.318681318681318,0.49353398703981916
7.338461538461539,0.48545848087097965
7.358241758241758,0.47785538464771193
7.3780219780219785,0.4707838349149589
7.397802197802197,0.4643023239102287
7.417582417582418,0.4584677797922182
7.437362637362638,0.45333453303164184
7.457142857142857,0.4489531973204358
7.476923076923077,0.4453695067516411
7.496703296703297,0.4426231633341818
7.516483516483516,0.4407467580310897
7.536263736263736,0.43976483232959884
7.556043956043957,0.43969314423420897
7.575824175824176,0.44053819186550064
7.595604395604395,0.4422970302301372
7.615384615384615,0.4449573942431244
7.635164835164835,0.4484981168107094
7.654945054945055,0.452889808179932
7.674725274725275,0.4580957449133999
7.694505494505494,0.4640729058201575
7.7142857142857135,0.47077308867187545
7.734065934065935,0.4781440449413357
7.753846153846154,0.48613057852131925
7.7736263736263735,0.49467556633566584
7.793406593406592,0.503720871862949
7.813186813186814,0.5132081351427532
7.832967032967034,0.5230794336512727
7.852747252747252,0.533277816908572
7.872527472527472,0.5437477236775715
7.892307692307693,0.5544352943303021
7.912087912087912,0.5652885927753475
7.931868131868132,0.5762577527132621
7.951648351648351,0.5872950623562524
7.971428571428572,0.5983550004922812
7.991208791208791,0.6093942351928437
8.010989010989011,0.6203715947754512
8.03076923076923,0.631248018983743
8.05054945054945,0.6419864968294711
8.07032967032967,0.6525519961975842
8.09010989010989,0.6629113891655628
8.10989010989011,0.6730333760271788
8.129670329670331,0.6828884102264021
8.149450549450549,0.6924486257768773
8.169230769230769,0.7016877682473173
8.189010989010988,0.7105811300083802
8.20879120879121,0.719105490144815
8.22857142857143,0.7272390592185835
8.248351648351647,0.7349614289098951
8.268131868131867,0.7422535264505447
8.287912087912087,0.7490975736881068
8.307692307692308,0.7554770505706113
8.327472527472528,0.7613766628142145
8.347252747252746,0.7667823135045084
8.367032967032966,0.7716810783824251
8.386813186813187,0.7760611845743272
8.406593406593407,0.7799119925406384
8.426373626373627,0.7832239810371224
8.446153846153845,0.7859887349050971
8.465934065934066,0.7881989355318451
8.485714285714286,0.7898483538489066
8.505494505494505,0.7909318457636032
8.525274725274725,0.7914453499475974
8.545054945054945,0.7913858879362807
8.564835164835165,0.7907515665231044
8.584615384615384,0.7895415824648266
8.604395604395604,0.7877562295466897
8.624175824175826,0.7853969080913099
8.643956043956043,0.7824661370314495
8.663736263736263,0.7789675687057834
8.683516483516483,0.7749060065781481
8.703296703296704,0.77028742612507
8.723076923076924,0.7651189991841648
8.742857142857142,0.7594091221071674
8.762637362637362,0.7531674481167325
8.782417582417583,0.7464049243250596
8.802197802197803,0.7391338339357314
8.821978021978023,0.7313678442161781
8.84175824175824,0.7231220608975509
8.86153846153846,0.714413089728529
8.881318681318682,0.7052591059782772
8.901098901098901,0.6956799327468727
8.920879120879121,0.685697128994173
8.940659340659339,0.6753340882318236
8.96043956043956,0.6646161488266206
8.98021978021978,0.6535707168217625
9.0,0.6422274020737998
9.01978021978022,0.6306181682989651
9.03956043956044,0.6187774972854412
9.05934065934066,0.6067425670088026
9.079120879120879,0.594553442623837
9.098901098901099,0.5822532782200929
9.11868131868132,0.5698885257269383
9.138461538461538,0.557509145331396
9.158241758241758,0.5451688091131003
9.178021978021977,0.5329250861989048
9.197802197802199,0.5208395935162974
9.217582417582419,0.5089780911715663
9.237362637362637,0.497410495715439
9.257142857142856,0.48621077841104665
9.276923076923078,0.47545670971894816
9.296703296703297,0.4652294065948393
9.316483516483517,0.4556126373654047
9.336263736263735,0.4466918418670412
9.356043956043957,0.4385528344299943
9.375824175824176,0.431280176235096
9.395604395604396,0.4249552327430857
9.415384615384616,0.4196539706501072
9.435164835164835,0.41544459375250453
9.454945054945055,0.4123851615882089
9.474725274725275,0.41052136944977474
9.494505494505495,0.40988468321220617
9.514285714285714,0.41049100946795053
9.534065934065934,0.4123400382501206
9.553846153846154,0.4154153271747943
9.573626373626373,0.41968511421156185
9.593406593406593,0.4251037674487598
9.613186813186815,0.4316137192257508
9.632967032967032,0.43914769867034364
9.652747252747252,0.44763107331946267
9.672527472527472,0.45698413248569153
9.692307692307693,0.4671241833966561
9.712087912087913,0.4779673758719775
9.731868131868131,0.48943021400746634
9.75164835164835,0.5014307485678731
9.771428571428572,0.5138894691966633
9.791208791208792,0.5267299311988173
9.810989010989012,0.5398791590680363
9.83076923076923,0.5532678702402036
9.850549450549451,0.5668305598737077
9.87032967032967,0.580505482557024
9.89010989010989,0.5942345610392229
9.90989010989011,0.6079632462402026
9.92967032967033,0.6216403474365024
9.94945054945055,0.6352178468832187
9.96923076923077,0.6486507092949583
9.989010989010989,0.6618966935399953
10.008791208791209,0.6749161715160158
10.028571428571428,0.6876719573678678
10.048351648351648,0.7001291488703919
10.068131868131868,0.7122549818346018
10.08791208791209,0.7240186977182268
10.107692307692307,0.7353914241627294
10.127472527472527,0.7463460678817417
10.147252747252747,0.7568572191471079
10.167032967032966,0.7669010670247735
10.186813186813188,0.7764553244775876
10.206593406593406,0.7854991624581452
10.226373626373626,0.7940131521467867
10.246153846153845,0.8019792145391292
10.265934065934067,0.8093805766461254
10.285714285714286,0.81620173363303
10.305494505494504,0.8224284162886958
10.325274725274724,0.8280475632807446
10.345054945054946,0.8330472977142944
10.364835164835165,0.8374169075713588
10.384615384615385,0.8411468296644201
10.404395604395603,0.8442286367907856
10.424175824175824,0.8466550278249946
10.443956043956044,0.8484198205341316
10.463736263736264,0.8495179469469694
10.483516483516484,0.8499454511518488
10.503296703296703,0.8496994894416521
10.523076923076923,0.8487783327668165
10.542857142857143,0.8471813715008615
10.562637362637362,0.8449091225665325
10.582417582417584,0.8419632390170386
