Time (s),Filtered Signal
0.0,0.008030057658353042
0.033370535714285714,-0.2623033563213171
0.06674107142857143,-0.41471118485139896
0.10011160714285713,-0.3801692716036934
0.13348214285714285,-0.1645316824829915
0.16685267857142858,0.1587658305773939
0.20022321428571427,0.48501379395056105
0.23359375,0.7252493357698837
0.2669642857142857,0.8413283573020662
0.30033482142857143,0.8534236660097073
0.33370535714285715,0.8189010739699749
0.36707589285714287,0.7958681811861952
0.40044642857142854,0.8113335408469945
0.43381696428571426,0.8497623778729123
0.4671875,0.8657287650509146
0.5005580357142857,0.8113820790877924
0.5339285714285714,0.6626690930971371
0.5672991071428571,0.4308207323461359
0.6006696428571429,0.15517432344553334
0.6340401785714286,-0.11610160638124013
0.6674107142857143,-0.34535469788124085
0.70078125,-0.5148881381835518
0.7341517857142857,-0.62392673649664
0.7675223214285715,-0.6782888527183858
0.8008928571428571,-0.6813635342807188
0.8342633928571428,-0.6326041609171027
0.8676339285714285,-0.533790723188639
0.9010044642857142,-0.3978888531000831
0.934375,-0.2536351798794929
0.9677455357142857,-0.1415080025791739
1.0011160714285714,-0.10153158719937672
1.0344866071428571,-0.15763957841695395
1.0678571428571428,-0.30521188859137494
1.1012276785714286,-0.507532560557705
1.1345982142857143,-0.7039371760997594
1.16796875,-0.828261981392922
1.2013392857142857,-0.8319422619080025
1.2347098214285714,-0.7031954502092083
1.2680803571428572,-0.4738518985404115
1.3014508928571429,-0.20945870663937255
1.3348214285714286,0.014790955846185986
1.3681919642857143,0.14305345259135202
1.4015625,0.16059854760336922
1.4349330357142858,0.0988901650065036
1.4683035714285715,0.021725474716357232
1.5016741071428572,-0.0015916259164372832
1.535044642857143,0.07535905141247871
1.5684151785714286,0.2578578767035943
1.6017857142857141,0.5089413651251973
1.6351562499999999,0.7650928403838168
1.6685267857142856,0.9614964207504357
1.7018973214285713,1.0560101833569127
1.735267857142857,1.0420454826259915
1.7686383928571427,0.9457675637408508
1.8020089285714285,0.8102019071448058
1.8353794642857142,0.6746097010097382
1.86875,0.5590257601924606
1.9021205357142856,0.46041410901502106
1.9354910714285714,0.3604828336149186
1.968861607142857,0.23940783602418997
2.002232142857143,0.08761900839953517
2.0356026785714287,-0.0898441715501212
2.0689732142857142,-0.27700039196659204
2.10234375,-0.4549325238736823
2.1357142857142857,-0.6090484126578234
2.169084821428571,-0.73205561200792
2.202455357142857,-0.8220138852790105
2.2358258928571426,-0.877423655754012
2.2691964285714286,-0.8927177469129604
2.302566964285714,-0.8574217016583447
2.3359375,-0.76049411333425
2.3693080357142855,-0.5983621809907608
2.4026785714285714,-0.38237220857443016
2.436049107142857,-0.14071187397885213
2.469419642857143,0.08774633440219597
2.5027901785714284,0.2658887538722466
2.5361607142857143,0.37156654169551623
2.56953125,0.40520099350347416
2.6029017857142858,0.38801545283566224
2.6362723214285713,0.3516822600746708
2.669642857142857,0.32422693476112296
2.7030133928571427,0.31853315977284485
2.7363839285714286,0.3281927831007031
2.769754464285714,0.33182417253778157
2.803125,0.3032906516819764
2.8364955357142856,0.22319588705114574
2.8698660714285715,0.08725166332163918
2.903236607142857,-0.09096709392702756
2.936607142857143,-0.2830005226788524
2.9699776785714285,-0.4526538932228752
3.0033482142857144,-0.5651555741520049
3.03671875,-0.5962539485159277
3.070089285714286,-0.5393445357979739
3.1034598214285714,-0.4087407430444189
3.1368303571428573,-0.23751869890966265
3.170200892857143,-0.06954027863291765
3.2035714285714283,0.0527548603462805
3.2369419642857142,0.10124712825048877
3.2703124999999997,0.07137117850996998
3.3036830357142857,-0.015769674605224347
3.337053571428571,-0.11955176409722766
3.370424107142857,-0.19255358520818652
3.4037946428571426,-0.19581819746968337
3.4371651785714286,-0.11153676971310611
3.470535714285714,0.05135763112627936
3.50390625,0.2608929440892501
3.5372767857142855,0.47383976613924395
3.5706473214285714,0.6510239009562863
3.604017857142857,0.7699220882160367
3.637388392857143,0.829308219738568
3.6707589285714284,0.844278171798021
3.7041294642857143,0.83449376379094
3.7375,0.8116977686431187
3.7708705357142858,0.7728147374247969
3.8042410714285713,0.7021235243653555
3.837611607142857,0.5814305771691691
3.8709821428571427,0.40302719468583825
3.9043526785714286,0.178453710000955
3.937723214285714,-0.062258557223447926
3.97109375,-0.28159553887911115
4.004464285714286,-0.45100550879489354
4.0378348214285715,-0.5643746455134175
4.0712053571428575,-0.6407925564428052
4.1045758928571425,-0.7140022358249806
4.1379464285714285,-0.8131235334531549
4.171316964285714,-0.9445417182497806
4.2046875,-1.0849884379711228
4.238058035714285,-1.1902825573266187
4.271428571428571,-1.2157483260309259
4.304799107142857,-1.1377152170543106
4.338169642857142,-0.9646609927770167
4.371540178571428,-0.7322007330471999
4.404910714285714,-0.48514499944120204
4.43828125,-0.2570338754382883
4.471651785714285,-0.05864220744091751
4.505022321428571,0.11874935280614976
4.538392857142857,0.2886218315197167
4.571763392857143,0.45331726059038063
4.605133928571428,0.5978397266896036
4.638504464285714,0.6979436258979841
4.671875,0.7376946463405893
4.705245535714286,0.7249340770826986
4.738616071428571,0.6933281961919655
4.771986607142857,0.6872234122358816
4.805357142857143,0.7361859402094093
4.838727678571429,0.8335288506328431
4.872098214285714,0.9324974127396859
4.90546875,0.9648234128343446
4.938839285714286,0.8737925773222693
4.972209821428572,0.6449746054175484
5.005580357142857,0.31783361570625945
5.038950892857143,-0.02897913586284446
5.072321428571429,-0.31184208337136937
5.105691964285715,-0.47849462353779193
5.1390625,-0.527951126604891
5.172433035714286,-0.5044243098006399
5.2058035714285715,-0.46962881753687863
5.2391741071428575,-0.4689600311166571
5.2725446428571425,-0.5093945210676379
5.3059151785714285,-0.5597133315458771
5.339285714285714,-0.5712776016189384
5.3726562499999995,-0.5070271304952518
5.406026785714285,-0.36305175099284964
5.439397321428571,-0.17211067930168586
5.472767857142857,0.011532489335873482
5.506138392857142,0.13722666349477733
5.539508928571428,0.18017604256783168
5.572879464285714,0.15058869055736296
5.60625,0.08670095567429047
5.639620535714285,0.03629926138481728
5.672991071428571,0.035762570399340554
5.706361607142857,0.09539132267074246
5.739732142857143,0.1960332128657109
5.773102678571428,0.29719376357818433
5.806473214285714,0.35295725591769944
5.83984375,0.3299754334536619
5.873214285714286,0.2214548359805879
5.906584821428571,0.05221448127380606
5.939955357142857,-0.12767858873303475
5.973325892857143,-0.25966926781336447
6.006696428571429,-0.29886712706829865
6.040066964285714,-0.23347589437213703
6.0734375,-0.09290624061823366
6.106808035714286,0.06061747115738438
6.140178571428572,0.15539108895196435
6.173549107142857,0.13960096383833956
6.206919642857143,0.0038224778960583242
6.240290178571429,-0.21412368898971781
6.273660714285715,-0.4447949238767793
6.30703125,-0.6161309086220579
6.340401785714286,-0.682105630809207
6.3737723214285715,-0.6376837888335941
6.407142857142857,-0.5140118352326974
6.4405133928571425,-0.35795939929819603
6.4738839285714285,-0.20772249935943526
6.507254464285714,-0.07728766631820197
6.5406249999999995,0.04311354041460413
6.573995535714285,0.17248810437374568
6.607366071428571,0.319913662572699
6.640736607142857,0.4722174917491356
6.674107142857142,0.5959160323692643
6.707477678571428,0.6529547024106052
6.740848214285714,0.6222112527349644
6.77421875,0.5151776747911584
6.807589285714285,0.3764605407977493
6.840959821428571,0.26685121588249483
6.874330357142857,0.23558239819258275
6.907700892857143,0.2948226084132775
6.941071428571428,0.40994406030569264
6.974441964285714,0.5125477358250204
7.0078125,0.532064727487394
7.041183035714286,0.4313668632055258
7.074553571428571,0.22811952105309388
7.107924107142857,-0.010404135269858329
7.141294642857143,-0.19793264248399084
7.174665178571429,-0.270309677917976
7.208035714285714,-0.21596845581959032
7.24140625,-0.08003791957154614
7.274776785714286,0.05937293355969645
7.308147321428572,0.12925666710861208
7.341517857142857,0.09380040618267761
7.374888392857143,-0.03507946057058785
7.408258928571429,-0.2112915836626034
7.441629464285715,-0.3815690029659932
7.475,-0.5095925505308234
7.508370535714286,-0.5853104705515499
7.5417410714285715,-0.6182722501531468
7.575111607142857,-0.6236099935209207
7.6084821428571425,-0.612151004003206
7.6418526785714285,-0.5909488539293962
7.675223214285714,-0.5714130192873774
7.7085937499999995,-0.5755451469925302
7.741964285714285,-0.6310737000695255
7.775334821428571,-0.7536035665635175
7.808705357142857,-0.9239468856936387
7.842075892857142,-1.0752954704320656
7.875446428571428,-1.1031428662283376
7.908816964285714,-0.9006128024374719
7.9421875,-0.40783961752855324
7.975558035714285,0.3462261105273617
8.008928571428571,1.231499853846415
8.042299107142856,2.044831526439107
8.075669642857143,2.5717978724527977
8.109040178571428,2.6599142596197556
8.142410714285715,2.274802471553614
8.17578125,1.5169037134362178
8.209151785714285,0.5915564829703878
8.242522321428572,-0.2570055800057621
8.275892857142857,-0.823935382632661
8.309263392857142,-1.0064487138475413
8.342633928571429,-0.8291860319315734
8.376004464285714,-0.42451778125103234
8.409375,0.023293389951410864
8.442745535714286,0.34792768011759495
8.47611607142857,0.45795862358407863
8.509486607142858,0.35986483585884416
8.542857142857143,0.14034711816091783
8.576227678571428,-0.08185911597933891
8.609598214285715,-0.21217866494470014
8.64296875,-0.21966663346490703
8.676339285714285,-0.14375334708204895
8.709709821428572,-0.06778351225382835
8.743080357142857,-0.07389966041238118
8.776450892857143,-0.20144227466197595
8.809821428571428,-0.4279677550006263
8.843191964285714,-0.6801335170634392
8.8765625,-0.867213270245978
8.909933035714285,-0.9200969115817791
8.94330357142857,-0.8177927061204125
8.976674107142857,-0.591212318619509
9.010044642857142,-0.3055807385362042
9.04341517857143,-0.03208101216006149
9.076785714285714,0.1776725683324476
9.11015625,0.3042731513689907
9.143526785714286,0.3574567459233861
9.176897321428571,0.361689148460924
9.210267857142856,0.33895541482728614
9.243638392857143,0.2973508877172985
9.277008928571428,0.2304712330483709
9.310379464285715,0.1270682206876923
9.34375,-0.014676659785377591
9.377120535714285,-0.17639033566329362
9.410491071428572,-0.31900811091974685
9.443861607142857,-0.3944548897848574
9.477232142857142,-0.36521761309558815
9.510602678571429,-0.2228941853253484
9.543973214285714,0.003719384257879708
9.57734375,0.25615590858387866
9.610714285714286,0.4672317341121164
9.64408482142857,0.586445587500147
9.677455357142858,0.5981960400331714
9.710825892857143,0.5243180808148373
9.744196428571428,0.4099578917632443
9.777566964285715,0.2999919873236649
9.8109375,0.21786723246621326
9.844308035714285,0.15740812870690182
9.877678571428572,0.09138433371863296
9.911049107142857,-0.008107609572553565
9.944419642857143,-0.1485844838839929
9.977790178571428,-0.3069894281977084
10.011160714285714,-0.4363367271174435
10.04453125,-0.4863961231229473
10.077901785714285,-0.4281925204822795
10.11127232142857,-0.2698761517931979
10.144642857142857,-0.05579778461810727
10.178013392857142,0.15076716273273322
10.21138392857143,0.2925273319724792
10.244754464285714,0.3386423333765549
10.278125,0.2919514950370321
10.311495535714286,0.18182231826820364
10.344866071428571,0.04875460346293748
10.378236607142856,-0.07035639219834518
10.411607142857143,-0.1501008949061532
10.444977678571428,-0.177060267155311
10.478348214285715,-0.14705487462572667
10.51171875,-0.06402630626750196
10.545089285714285,0.05762757749749816
10.578459821428572,0.1898258897257462
10.611830357142857,0.29170562528326
10.645200892857142,0.31837115100986263
10.678571428571429,0.23675156579062298
10.711941964285714,0.04275218948721848
10.745312499999999,-0.22879786102480804
10.778683035714286,-0.5083627077731673
10.81205357142857,-0.7115380354268216
10.845424107142858,-0.768743545097505
10.878794642857143,-0.653349214739425
10.912165178571428,-0.395687530887936
10.945535714285715,-0.07506193105895889
10.97890625,0.20901515231400286
11.012276785714285,0.3753324642533824
11.045647321428572,0.3926046032456374
11.079017857142857,0.2895920013683904
11.112388392857143,0.13857960551703427
11.145758928571428,0.019781311400969833
11.179129464285714,-0.01626666843278567
11.2125,0.029865739096416186
11.245870535714285,0.11132078486801285
11.27924107142857,0.1628283479812475
11.312611607142857,0.13696083116793195
11.345982142857142,0.03025300363312837
11.37935267857143,-0.11380586307639427
11.412723214285714,-0.22614218372849768
11.44609375,-0.24706215488339411
11.479464285714286,-0.15749519279646243
11.512834821428571,0.009044515564756944
11.546205357142856,0.18026288476795155
11.579575892857143,0.278878149627474
11.612946428571428,0.2607128677154658
11.646316964285715,0.13853680176993163
11.6796875,-0.020945460875601684
11.713058035714285,-0.1270808231462857
11.746428571428572,-0.1089631282182113
11.779799107142857,0.04806911200293627
11.813169642857142,0.29161497302502026
11.846540178571429,0.5236091296294575
11.879910714285714,0.6445994210405926
11.913281249999999,0.5997673831067101
11.946651785714286,0.40406096000934344
11.98002232142857,0.13374819069759014
12.013392857142858,-0.11163005607574637
12.046763392857143,-0.2578448010715673
12.080133928571428,-0.29035705983668325
12.113504464285715,-0.25674094668343544
12.146875,-0.23585407618070206
12.180245535714285,-0.29002852396279555
12.213616071428572,-0.42598840854874354
12.246986607142857,-0.5861949321348109
12.280357142857143,-0.6765340872122407
12.313727678571428,-0.6167515741275313
12.347098214285714,-0.3872132372436361
12.38046875,-0.04660239700554492
12.413839285714285,0.2901098750806382
12.44720982142857,0.5033335395674977
12.480580357142857,0.5243820765614502
12.513950892857142,0.36685772403113914
12.54732142857143,0.11836679697507575
12.580691964285714,-0.10255392799320444
12.6140625,-0.2019476318998336
12.647433035714286,-0.15064666053406026
12.680803571428571,0.009398241706882663
12.714174107142856,0.1929622368268379
12.747544642857143,0.31655800011356416
12.780915178571428,0.3363774210457881
12.814285714285713,0.2609020702551056
12.84765625,0.13496271881181357
12.881026785714285,0.007477032490672772
12.914397321428572,-0.09725862833817803
12.947767857142857,-0.18849130819116278
12.981138392857142,-0.29419562493670104
13.014508928571429,-0.43250207433616533
13.047879464285714,-0.5874257997731479
13.081249999999999,-0.7049143162732838
13.114620535714286,-0.7141464802819347
13.14799107142857,-0.564703017213884
13.181361607142858,-0.26033962121792287
13.214732142857143,0.12985770938253174
13.248102678571428,0.49176921633598425
13.281473214285715,0.7111577311020106
13.31484375,0.7233594368096079
13.348214285714285,0.5442388980088636
13.381584821428572,0.26664549663525794
13.414955357142857,0.022243340835605085
13.448325892857143,-0.0752177554014367
13.481696428571428,0.02000232817105428
13.515066964285714,0.2650336038349208
13.5484375,0.5472522582269379
13.581808035714285,0.7348465747089653
13.61517857142857,0.7368060504392042
13.648549107142857,0.545252725902412
13.681919642857142,0.2402985923348589
13.71529017857143,-0.04593348247026846
13.748660714285714,-0.19078171212158626
13.78203125,-0.1400768087168657
13.815401785714286,0.06334364047611148
13.848772321428571,0.29637120317717497
13.882142857142856,0.41109806508801994
13.915513392857143,0.30352507205633894
13.948883928571428,-0.036951391097024215
13.982254464285713,-0.5206921109289583
14.015625,-0.996324516997523
14.048995535714285,-1.3155436195613457
14.082366071428572,-1.3934039281267594
14.115736607142857,-1.237180836088499
14.149107142857142,-0.9334979860807799
14.182477678571429,-0.6035091589256348
14.215848214285714,-0.34934004716326095
14.249218749999999,-0.21609230826933806
14.282589285714286,-0.18358369811707423
14.31595982142857,-0.18691461312529864
14.349330357142858,-0.15254678929754945
14.382700892857143,-0.03205877299260198
14.416071428571428,0.18015181255288126
14.449441964285715,0.4495706771078751
14.4828125,0.7195777684215389
14.516183035714285,0.934406040722471
14.549553571428572,1.0570281027698787
14.582924107142857,1.0764074410676243
14.616294642857143,1.0041818689212372
14.649665178571428,0.8650435015564636
14.683035714285714,0.6865338902881964
14.71640625,0.492679579606976
14.749776785714285,0.30280600352498394
14.78314732142857,0.1335862329566287
14.816517857142857,0.0006427485127323525
14.849888392857142,-0.08317258583816259
14.88325892857143,-0.11283507010558136
14.916629464285714,-0.09651606446548688
14.95,-0.057113513862143736
14.983370535714286,-0.027435527485174332
15.016741071428571,-0.039957381042991416
15.050111607142856,-0.11519111521720551
15.083482142857143,-0.25373049114054125
15.116852678571428,-0.4355089982772175
15.150223214285713,-0.6266308240368855
15.18359375,-0.790846159606493
15.216964285714285,-0.9007678522872762
15.250334821428572,-0.9441163886485043
15.283705357142857,-0.922672662273252
15.317075892857142,-0.8452903988030472
15.350446428571429,-0.7195171413282168
15.383816964285714,-0.5472204541220589
15.417187499999999,-0.32728617728876763
15.450558035714286,-0.06400017003828622
15.48392857142857,0.2242655264786661
15.517299107142858,0.5024003110258888
15.550669642857143,0.7254121219449975
15.584040178571428,0.8531547204224352
15.617410714285715,0.8667844299920426
15.65078125,0.7792570644570679
15.684151785714285,0.6341999045254902
15.717522321428572,0.49205082409491585
15.750892857142857,0.4075956058901831
15.784263392857143,0.4070947487171903
15.817633928571428,0.47456291831886915
15.851004464285714,0.5544650511837453
15.884375,0.5721427845295346
15.917745535714285,0.4654057712670234
15.95111607142857,0.214384432983231
15.984486607142857,-0.1442718290796463
16.017857142857142,-0.5268224251108412
16.05122767857143,-0.8327882489011655
16.084598214285712,-0.9834695921317933
16.11796875,-0.9517961016945518
16.151339285714286,-0.7706960819133857
16.18470982142857,-0.5170236188203055
16.218080357142856,-0.278772287017824
16.251450892857143,-0.12000120865376959
16.28482142857143,-0.05809417124937764
16.318191964285713,-0.06209457625731998
16.3515625,-0.07168261663403191
16.384933035714287,-0.02777803659270683
16.41830357142857,0.09874697325862099
16.451674107142857,0.29248255185512645
16.485044642857144,0.49897153437143243
16.518415178571427,0.6476851529176135
16.551785714285714,0.682597359465654
16.58515625,0.5872625319395182
16.618526785714284,0.39344711347622163
16.65189732142857,0.16915689904124134
16.685267857142858,-0.00923341818397533
16.71863839285714,-0.08881728497424769
16.752008928571428,-0.06188749645367145
16.785379464285715,0.03215531747819832
16.81875,0.1253353109909346
16.852120535714285,0.1512462892155646
16.88549107142857,0.072942634244082
16.91886160714286,-0.10350006092332713
16.95223214285714,-0.33445702831921664
16.98560267857143,-0.5590099804049753
17.018973214285715,-0.7236123660882484
17.05234375,-0.8000323709750424
17.085714285714285,-0.7897783984007729
17.119084821428572,-0.7151133657890082
17.152455357142856,-0.6028887064104348
17.185825892857142,-0.4701238065702335
17.21919642857143,-0.3185538276120128
17.252566964285712,-0.14026450610077928
17.2859375,0.06946254537362591
17.319308035714286,0.2999027681087655
17.35267857142857,0.5208905160321864
17.386049107142856,0.6904422412995685
17.419419642857143,0.7710956437193813
17.45279017857143,0.7470632115126483
17.486160714285713,0.6333206030072023
17.51953125,0.4714748789451121
17.552901785714287,0.313854880038946
17.58627232142857,0.2032698406756307
17.619642857142857,0.15801478828614543
17.653013392857144,0.1687397108863017
17.686383928571427,0.20741175302775916
17.719754464285714,0.2424747067669548
17.753125,0.2519293926446863
