Time (s),Filtered Signal
0.0,0.0004106535815120328
0.033370165745856356,0.25415953145876446
0.06674033149171271,0.39145584063837785
0.10011049723756907,0.3431767115678558
0.13348066298342542,0.11388924101122379
0.16685082872928178,-0.22279991754108106
0.20022099447513814,-0.5572930664302884
0.2335911602209945,-0.7899369121675037
0.26696132596685085,-0.8692021915333477
0.30033149171270723,-0.8060372523974821
0.33370165745856356,-0.6601932611108171
0.3670718232044199,-0.5075000903382914
0.4004419889502763,-0.40505930050660977
0.43381215469613266,-0.370477814331003
0.467182320441989,-0.3826727766456751
0.5005524861878453,-0.4004432739731126
0.5339226519337017,-0.38694305342467233
0.5672928176795581,-0.3271361403929187
0.6006629834254145,-0.2309538511969357
0.6340331491712707,-0.12338605163980616
0.6674033149171271,-0.029220205522061875
0.7007734806629835,0.038619462871233266
0.7341436464088398,0.0820309895240439
0.7675138121546962,0.11274764581344825
0.8008839779005525,0.1442297460723311
0.8342541436464089,0.18551421183730307
0.8676243093922653,0.2393070193674055
0.9009944751381216,0.3033176406180313
0.934364640883978,0.3723381635587045
0.9677348066298344,0.43937082487416573
1.0011049723756906,0.49596198840725775
1.0344751381215471,0.5330625095243525
1.0678453038674034,0.5433222745712006
1.1012154696132597,0.5242261334412153
1.1345856353591162,0.4802085155693051
1.1679558011049724,0.42196320801276493
1.201325966850829,0.3626936101891344
1.2346961325966852,0.313006069344965
1.2680662983425415,0.2770994128761051
1.301436464088398,0.25209068245067073
1.3348066298342542,0.23031402678544363
1.3681767955801105,0.2027401663718204
1.401546961325967,0.1615134582853081
1.4349171270718233,0.1009348023386303
1.4682872928176796,0.01776947759271443
1.501657458563536,-0.087839456177573
1.5350276243093923,-0.21063178760719115
1.5683977900552488,-0.33897634759044243
1.601767955801105,-0.4559737832173011
1.6351381215469614,-0.5436874914766942
1.6685082872928179,-0.5891722280443814
1.7018784530386741,-0.5893791594294039
1.7352486187845306,-0.5521689098580342
1.768618784530387,-0.4926079302344608
1.8019889502762432,-0.4262966158989935
1.8353591160220997,-0.36310704754071543
1.868729281767956,-0.3044218538116279
1.9020994475138122,-0.24496462052909876
1.9354696132596687,-0.17780323654771804
1.968839779005525,-0.09954425539664516
2.0022099447513813,-0.012942914783640104
2.0355801104972375,0.07413360651364559
2.0689502762430942,0.15234788544035238
2.1023204419889505,0.21482309872494124
2.135690607734807,0.259201334747133
2.169060773480663,0.2869740480041317
2.2024309392265193,0.30083684729803617
2.235801104972376,0.30185091607696346
2.2691712707182323,0.28817673246640063
2.3025414364640886,0.2561734838894725
2.335911602209945,0.2032691972870843
2.369281767955801,0.13092270890002589
2.402651933701658,0.045802543709862704
2.436022099447514,-0.04183323116882644
2.4693922651933704,-0.12203349704580956
2.5027624309392267,-0.18936648121915597
2.536132596685083,-0.24495307891056328
2.5695027624309392,-0.2945976866487807
2.602872928176796,-0.343158584946544
2.636243093922652,-0.38750064280290075
2.6696132596685085,-0.41186991574298937
2.7029834254143648,-0.3893725815775304
2.736353591160221,-0.2910145746610279
2.7697237569060777,-0.10000981123689347
2.803093922651934,0.17458368506890706
2.8364640883977903,0.4922319780813889
2.8698342541436466,0.7882598370004436
2.903204419889503,0.9933610521708583
2.936574585635359,1.0579658839928738
2.969944751381216,0.9705667419361862
3.003314917127072,0.7611054947752829
3.0366850828729284,0.48767332579303774
3.0700552486187846,0.21329104647875669
3.103425414364641,-0.01563860369593073
3.1367955801104976,-0.1795162260815601
3.170165745856354,-0.2820246141980457
3.20353591160221,-0.338441052343777
3.2369060773480665,-0.3646279156229629
3.2702762430939227,-0.37260661474014006
3.3036464088397794,-0.3722831880481882
3.3370165745856357,-0.37418747404381014
3.370386740331492,-0.38835220117948005
3.4037569060773483,-0.4189394670374894
3.4371270718232045,-0.45890783859542145
3.4704972375690613,-0.4899596692828776
3.5038674033149175,-0.4894703612787522
3.537237569060774,-0.44098751089991645
3.57060773480663,-0.34226345303374944
3.6039779005524863,-0.2065567713494464
3.6373480662983426,-0.0574546934672536
3.6707182320441993,0.07890849853250884
3.7040883977900556,0.18015698851947853
3.737458563535912,0.23110106678420875
3.770828729281768,0.22562645229250045
3.8041988950276244,0.16872999489913756
3.837569060773481,0.0783314703078991
3.8709392265193374,-0.01571767564691403
3.9043093922651937,-0.077973014557891
3.93767955801105,-0.0788420742493382
3.9710497237569062,-0.007111872011658679
4.0044198895027625,0.12257848239811103
4.037790055248619,0.27219440190115285
4.071160220994475,0.3932580584263452
4.104530386740332,0.44564764994043865
4.1379005524861885,0.4142020464070034
4.171270718232044,0.31541110580573445
4.204640883977901,0.19060687651624353
4.238011049723757,0.0882156339296121
4.271381215469614,0.042879126663859755
4.30475138121547,0.060974712037017514
4.338121546961326,0.11922864984758201
4.371491712707183,0.1769178676846365
4.404861878453039,0.19556859104909885
4.438232044198895,0.15644178554549998
4.471602209944752,0.06741603411565789
4.504972375690608,-0.04347304917727327
4.538342541436465,-0.14362090621055715
4.5717127071823205,-0.21189598339550586
4.605082872928177,-0.24689437469348066
4.638453038674034,-0.2640300694544135
4.67182320441989,-0.2843745522662136
4.7051933701657465,-0.3222128222448941
4.738563535911602,-0.3780148127559805
4.771933701657459,-0.4395652716049287
4.805303867403316,-0.48908023685533736
4.8386740331491715,-0.511244340924086
4.872044198895028,-0.4976535359455107
4.905414364640884,-0.4463281360830539
4.938784530386741,-0.3584466244187426
4.972154696132597,-0.2359635999022019
5.005524861878453,-0.082486855169453
5.03889502762431,0.09323840325153816
5.072265193370166,0.27444737736760055
5.105635359116023,0.43749729599835485
5.1390055248618784,0.558060895994622
5.172375690607735,0.6199537346523005
5.205745856353592,0.6219957440437641
5.239116022099448,0.5788997845284937
5.272486187845304,0.5152670137743912
5.30585635359116,0.4555138257167975
5.339226519337017,0.4147507031607562
5.372596685082874,0.39502677278951737
5.4059668508287295,0.38832689521560004
5.439337016574586,0.38399250292259324
5.472707182320442,0.37590510010840955
5.506077348066299,0.36509523350160106
5.5394475138121555,0.35622273717778885
5.572817679558011,0.3500689204815986
5.606187845303868,0.3367368275006534
5.639558011049724,0.29424642393373923
5.672928176795581,0.19460917223575863
5.706298342541437,0.015604470211782004
5.739668508287293,-0.2467045225049585
5.77303867403315,-0.5706247475107216
5.806408839779006,-0.9107799797080234
5.839779005524862,-1.209688543583428
5.873149171270718,-1.415125242806547
5.906519337016575,-1.4966238965450556
5.939889502762432,-1.4543559132872177
5.9732596685082875,-1.3164723500332973
6.006629834254144,-1.1258884950344892
6.04,-0.9223698642720078
6.073370165745857,-0.7281761906488701
6.1067403314917135,-0.5438295765858882
6.140110497237569,-0.3552764646263469
6.173480662983426,-0.1475284070663254
6.206850828729282,0.08363417444509331
6.240220994475139,0.3288857470364188
6.273591160220995,0.5727700113404008
6.306961325966851,0.8058525356919025
6.340331491712708,1.0326011733292175
6.373701657458564,1.2680563720992313
6.40707182320442,1.5231940054854027
6.440441988950277,1.7865826173733284
6.473812154696133,2.013773213852098
6.50718232044199,2.133167614740524
6.5405524861878455,2.068976449235574
6.573922651933702,1.772588074378893
6.607292817679559,1.2482948482043958
6.640662983425415,0.5608878199859122
6.674033149171271,-0.17952903456041067
6.707403314917127,-0.8499832124267059
6.740773480662984,-1.351339379959562
6.774143646408841,-1.634895589376457
6.8075138121546965,-1.7094178689066977
6.840883977900553,-1.627661037896139
6.874254143646409,-1.4596039378278205
6.907624309392266,-1.2642493614780377
6.9409944751381225,-1.0714138780478912
6.974364640883978,-0.8799356310762559
7.007734806629835,-0.6712634423259559
7.041104972375691,-0.43052072560855925
7.074475138121548,-0.16386243612878268
7.107845303867403,0.09707630889419923
7.14121546961326,0.3062922567163505
7.174585635359117,0.4246577503191339
7.207955801104973,0.4403167884842355
7.241325966850829,0.3772301063588899
7.274696132596685,0.28660170094966825
7.308066298342542,0.2246198218615269
7.341436464088399,0.22716323120749096
7.3748066298342545,0.2940434520059147
7.408176795580111,0.3907967311470673
7.441546961325967,0.467178279509701
7.474917127071824,0.48288954217104285
7.5082872928176805,0.42728532890707016
7.541657458563536,0.32299181137758043
7.575027624309393,0.21189992844503547
7.608397790055249,0.13133479448042829
7.641767955801106,0.09335585927599496
7.675138121546962,0.07838767829051146
7.708508287292818,0.0466618350685524
7.741878453038675,-0.03863745182214011
7.775248618784531,-0.18896773486052829
7.808618784530387,-0.3808484707995767
7.841988950276244,-0.5643040025723441
7.8753591160221,-0.6848966851033655
7.908729281767957,-0.7078752332732835
7.9420994475138125,-0.6323002423810132
7.975469613259669,-0.48879811356806196
8.008839779005525,-0.3232975182004448
8.042209944751383,-0.17583665863827017
8.075580110497238,-0.06495517544720338
8.108950276243094,0.01580744187992837
8.14232044198895,0.08942811898679395
8.175690607734808,0.18060086981689014
8.209060773480664,0.3021750804228216
8.24243093922652,0.4484012558608599
8.275801104972377,0.5965601047668662
8.309171270718233,0.7150001692689902
8.342541436464089,0.7739816825805024
8.375911602209946,0.7558907318699751
8.409281767955802,0.662225892529163
8.442651933701658,0.515381571641128
8.476022099447514,0.35378548471345195
8.509392265193371,0.22024230547495866
8.542762430939227,0.14588687201674191
8.576132596685083,0.13518888481351796
8.60950276243094,0.15907112503713314
8.642872928176796,0.16159013725716742
8.676243093922652,0.08052040637147788
8.709613259668508,-0.12454413861443228
8.742983425414366,-0.44805060619177395
8.776353591160222,-0.8302534608021644
8.809723756906077,-1.1715348118396145
8.843093922651935,-1.3664364438643632
8.87646408839779,-1.3448317328201664
8.909834254143647,-1.1025331220455685
8.943204419889504,-0.7064782894256488
8.97657458563536,-0.2702342759949854
9.009944751381216,0.09056718421178389
9.043314917127072,0.30304286067929115
9.07668508287293,0.36153969705413513
9.110055248618785,0.32095008090472277
9.143425414364641,0.2634768654778086
9.176795580110499,0.2563750043302954
9.210165745856354,0.32164274714006813
9.24353591160221,0.43113849101067686
9.276906077348068,0.5268397474756499
9.310276243093924,0.5536719596031814
9.34364640883978,0.4876393350180361
9.377016574585635,0.3462643864443906
9.410386740331493,0.17825245891074476
9.443756906077349,0.039338530674904726
9.477127071823205,-0.03315621974057282
9.510497237569062,-0.03524451922393155
9.543867403314918,0.005301080401381944
9.577237569060774,0.045097439113511925
9.610607734806631,0.047540309145905
9.643977900552487,0.0007570208141587109
9.677348066298343,-0.07704796368917363
9.710718232044199,-0.14694596455902095
9.744088397790057,-0.16856773312079265
9.777458563535912,-0.12005346433841667
9.810828729281768,-0.009352029100739562
9.844198895027626,0.12809213959357216
9.877569060773482,0.24369075051825326
9.910939226519337,0.2951145099964096
9.944309392265193,0.2620586122383812
9.97767955801105,0.15219080377627558
10.011049723756907,-0.0039007307245472506
10.044419889502763,-0.16522174375278414
10.07779005524862,-0.2945159985215872
10.111160220994476,-0.36881342946762224
10.144530386740332,-0.3836117970576227
10.17790055248619,-0.35066341439155924
10.211270718232045,-0.29128851302355413
10.244640883977901,-0.2279992048194482
10.278011049723757,-0.177176945272419
10.311381215469615,-0.14486550695038475
10.34475138121547,-0.12662286168117778
10.378121546961326,-0.11105169926011704
10.411491712707184,-0.08545996807710708
10.44486187845304,-0.04150331414858649
10.478232044198895,0.021138870602429357
10.511602209944753,0.09414698456075288
10.544972375690609,0.16302114379833313
10.578342541436465,0.21173212793821516
10.61171270718232,0.2280810329187301
10.645082872928178,0.2079903558499426
10.678453038674034,0.15708872099625149
10.71182320441989,0.08876960783288153
10.745193370165747,0.019380126484710575
10.778563535911603,-0.03726257738656037
10.811933701657459,-0.07319936710670165
10.845303867403315,-0.085669775402892
10.878674033149172,-0.07304720225359505
10.912044198895028,-0.03049993085635028
10.945414364640884,0.05055406029815321
10.978784530386742,0.17690764765920852
11.012154696132598,0.3436401211721675
11.045524861878453,0.5255275300146373
11.078895027624311,0.6767706595911269
11.112265193370167,0.7429187705528806
11.145635359116023,0.68233510836707
11.179005524861878,0.4879838120935709
11.212375690607736,0.1977994490852562
11.245745856353592,-0.11426643183965726
11.279116022099448,-0.3653809580982507
11.312486187845305,-0.4981134269925453
11.345856353591161,-0.505566672887194
11.379226519337017,-0.4339892393093959
11.412596685082875,-0.3599843418238615
11.44596685082873,-0.35243691423951584
11.479337016574586,-0.43782710142159714
11.512707182320442,-0.5866466864553486
11.5460773480663,-0.7281864226854157
11.579447513812156,-0.7863634176362337
11.612817679558011,-0.7183302382703926
11.646187845303869,-0.5362445813036641
11.679558011049725,-0.30143423969248506
11.71292817679558,-0.09440228354783071
11.746298342541436,0.023875747184537655
11.779668508287294,0.04016148697311361
11.81303867403315,-0.0066041636283898555
11.846408839779006,-0.04588325730142442
11.879779005524863,-0.010538924686789053
11.91314917127072,0.1305544967472883
11.946519337016575,0.3572707358819607
11.979889502762433,0.606890786149357
12.013259668508288,0.8022070991588568
12.046629834254144,0.885993900911625
12.08,0.8461540475995302
12.113370165745858,0.7202013051681575
12.146740331491714,0.5770104316698876
12.18011049723757,0.4839351538345573
12.213480662983427,0.4741232826416716
12.246850828729283,0.5291938441418352
12.280220994475139,0.5859765910101754
12.313591160220996,0.5652489107188259
12.346961325966852,0.41000864056296454
12.380331491712708,0.11575023117503673
12.413701657458564,-0.2617283472356114
12.447071823204421,-0.6253473890656315
12.480441988950277,-0.8745444507512111
12.513812154696133,-0.9451682492565898
12.54718232044199,-0.8340800066094409
12.580552486187846,-0.5983581790538701
12.613922651933702,-0.3304835321010695
12.64729281767956,-0.12113155907292582
12.680662983425416,-0.025815356905537448
12.714033149171271,-0.048976809458337836
12.747403314917127,-0.15073912154518515
12.780773480662985,-0.27126614026471385
12.81414364640884,-0.36010674942935555
12.847513812154697,-0.3964370242364928
12.880883977900554,-0.3914042057548801
12.91425414364641,-0.37323714062843205
12.947624309392266,-0.3646380199321261
12.980994475138122,-0.365607883902833
13.01436464088398,-0.3513872423172662
13.047734806629835,-0.28656857044719114
13.081104972375691,-0.14740690765692013
13.114475138121549,0.06020783249492596
13.147845303867404,0.2974046280787843
13.18121546961326,0.5061726441291562
13.214585635359118,0.633898837796136
13.247955801104974,0.6564507316846039
13.28132596685083,0.5882550395119178
13.314696132596685,0.4743119278862587
13.348066298342543,0.36811366571272996
13.381436464088399,0.3064335124526078
13.414806629834255,0.2934360391435803
13.448176795580112,0.3018517361010574
13.481546961325968,0.2904266833603678
13.514917127071824,0.2286766177873985
13.548287292817681,0.1161125614161159
13.581657458563537,-0.014460959786732461
13.615027624309393,-0.11216368297572174
13.648397790055249,-0.1347554797432277
13.681767955801106,-0.07324487953731446
13.715138121546962,0.039045347681229164
13.748508287292818,0.1390006460234642
13.781878453038676,0.1627556532905184
13.815248618784532,0.07719297123980451
13.848618784530387,-0.10203652552470852
13.881988950276245,-0.31543428094626574
13.9153591160221,-0.48546555905882494
13.948729281767957,-0.550708047585056
13.982099447513813,-0.4917763013510534
14.01546961325967,-0.3369636623046617
14.048839779005526,-0.14607652505836383
14.082209944751382,0.018138660742765624
14.11558011049724,0.1160413790373874
14.148950276243095,0.1423045002942755
14.182320441988951,0.11893467719053773
14.215690607734807,0.07673704462534452
14.249060773480664,0.03720445394007081
14.28243093922652,0.004886561389554565
14.315801104972376,-0.027160412010103732
14.349171270718234,-0.0644246600966154
14.38254143646409,-0.10016455500344329
14.415911602209945,-0.11445200597561403
14.449281767955803,-0.08419516725469503
14.482651933701659,0.001563030906723365
14.516022099447515,0.13011411586361538
14.54939226519337,0.26456060890849625
14.582762430939228,0.35583667150977955
14.616132596685084,0.36232641071895794
14.64950276243094,0.2681396452447812
14.682872928176797,0.09148873640023289
14.716243093922653,-0.12090077159271798
14.749613259668509,-0.31103881249489046
14.782983425414367,-0.4310702342301866
14.816353591160222,-0.45968498110898914
14.849723756906078,-0.4069569290512976
14.883093922651934,-0.30641768591931146
14.916464088397792,-0.19878131768442536
14.949834254143648,-0.1149685618394313
14.983204419889503,-0.06559260724259638
15.016574585635361,-0.04042275945945578
15.049944751381217,-0.016624668559308487
15.083314917127073,0.02885636139219388
15.116685082872928,0.10825095221941572
15.150055248618786,0.21725668366404716
15.183425414364642,0.3360797619834306
15.216795580110498,0.4362087038821188
15.250165745856355,0.4902553271062888
15.283535911602211,0.4814368610453131
15.316906077348067,0.40938248656842474
15.350276243093925,0.29006239968322717
15.38364640883978,0.14978793668586843
15.417016574585636,0.01582096148207875
15.450386740331492,-0.09215488617769209
15.48375690607735,-0.1658719797933659
15.517127071823205,-0.20643550795197943
15.550497237569061,-0.21856407104446043
15.583867403314919,-0.20520347671232056
15.617237569060775,-0.16589517695529382
15.65060773480663,-0.09956330933962204
15.683977900552488,-0.009543135688295842
15.717348066298344,0.09257355480912145
15.7507182320442,0.1868814804469197
15.784088397790056,0.24941438239794966
15.817458563535913,0.2591807322136637
15.85082872928177,0.20538295735807374
15.884198895027625,0.0922807560617797
15.917569060773483,-0.060066718151245306
15.950939226519338,-0.2199002913886355
15.984309392265194,-0.3521874309993052
16.01767955801105,-0.42933476288778166
16.051049723756908,-0.44061164590306134
16.084419889502765,-0.39611003564059083
16.11779005524862,-0.322442137681237
16.151160220994477,-0.2508193573469771
16.18453038674033,-0.20221991633246658
16.21790055248619,-0.1766811449643651
16.251270718232046,-0.15259621385414218
16.2846408839779,-0.0974075683575404
16.318011049723758,0.01458803311791609
16.351381215469615,0.18553624019513193
16.38475138121547,0.3867264186273867
16.418121546961327,0.5650954107102804
16.451491712707185,0.6617996435035798
16.48486187845304,0.6355234343073249
16.518232044198896,0.4806356509208783
16.551602209944754,0.23203151321007726
16.584972375690608,-0.046055949214611376
16.618342541436466,-0.2830687346220216
16.651712707182323,-0.4274598142144349
16.685082872928177,-0.46371498281634843
16.718453038674035,-0.4140797344479137
16.751823204419892,-0.3247884149133482
16.785193370165747,-0.24335960118526287
16.818563535911604,-0.19724921449283797
16.851933701657458,-0.18329216305145093
16.885303867403316,-0.172387731236432
16.918674033149173,-0.12696023435465972
16.952044198895027,-0.022830556230793494
16.985414364640885,0.13507829044718203
17.018784530386743,0.31110630584397425
17.052154696132597,0.4526333539440326
17.085524861878454,0.5131415514229466
17.118895027624312,0.47372099043034493
17.152265193370166,0.35265886818869174
17.185635359116024,0.19832537315528634
17.21900552486188,0.06854763556034942
17.252375690607735,0.006102222336814758
17.285745856353593,0.021651563397525195
17.31911602209945,0.0916012494324155
