Frequency (Hz),Amplitude
0.0,3.7450617355594544
0.019867549668874173,3.7441320445101214
0.039735099337748346,3.741345218311599
0.059602649006622516,3.736708000382934
0.07947019867549669,3.7302316383205754
0.09933774834437085,3.7219318967315513
0.11920529801324503,3.7118290751685885
0.13907284768211922,3.6999480311276085
0.15894039735099338,3.686318208045004
0.17880794701986755,3.670973668199193
0.1986754966887417,3.6539531303762414
0.2185430463576159,3.635300012099687
0.23841059602649006,3.6150624761459773
0.2582781456953642,3.593293480966831
0.27814569536423844,3.570050834512555
0.2980132450331126,3.545397250791923
0.31788079470198677,3.5194004083093944
0.33774834437086093,3.4921330092828664
0.3576158940397351,3.4636728382594137
0.3774834437086093,3.434102818405215
0.3973509933774834,3.403511063343818
0.4172185430463576,3.371990921947057
0.4370860927152318,3.3396410129406404
0.45695364238410596,3.3065652455685637
0.4768211920529801,3.2728728218655503
0.49668874172185434,3.238678215318547
0.5165562913907285,3.2041011198648968
0.5364238410596026,3.169266362292478
0.5562913907284769,3.1343037702008942
0.5761589403973509,3.099347986790002
0.5960264900662252,3.064538222913985
0.6158940397350993,3.030017936143479
0.6357615894039735,2.995934426100158
0.6556291390728477,2.962438335171481
0.6754966887417219,2.929683043997543
0.695364238410596,2.8978239519793045
0.7152317880794702,2.86701763462459
0.7350993377483444,2.837420871953123
0.7549668874172186,2.8091895455299607
0.7748344370860927,2.7824774060465156
0.7947019867549668,2.757434718711526
0.8145695364238411,2.7342067999483035
0.8344370860927152,2.7129324658036165
0.8543046357615894,2.693742419715772
0.8741721854304636,2.6767576143971468
0.8940397350993378,2.6620876289874533
0.9139072847682119,2.6498291076926392
0.9337748344370861,2.6400643092046283
0.9536423841059603,2.63285981674231
0.9735099337748344,2.628265456173555
0.9933774834437087,2.6263134642206927
1.0132450331125828,2.6270179403661
1.033112582781457,2.6303746052157173
1.0529801324503312,2.6363608754873202
1.0728476821192052,2.644936252410077
1.0927152317880795,2.6560430071935146
1.1125827814569538,2.6696071353573436
1.1324503311258278,2.685539541965206
1.1523178807947019,2.7037374127864915
1.1721854304635762,2.7240857224289035
1.1920529801324504,2.74645882954076
1.2119205298013245,2.7707221110011857
1.2317880794701985,2.7967335911179343
1.2516556291390728,2.8243455276312317
1.271523178807947,2.8534059231329185
1.2913907284768211,2.8837599377426715
1.3112582781456954,2.9152511860108095
1.3311258278145695,2.947722907632075
1.3509933774834437,2.981019007377417
1.370860927152318,3.014984964520535
1.390728476821192,3.0494686158998974
1.410596026490066,3.084320819640649
1.4304635761589404,3.1193960085488834
1.4503311258278146,3.1545526434009323
1.4701986754966887,3.1896535769170664
1.4900662251655628,3.22456633926724
1.5099337748344372,3.25916335563335
1.5298013245033113,3.2933221057602
1.5496688741721854,3.326925234660325
1.5695364238410596,3.359860622773267
1.5894039735099337,3.3920214229768
1.609271523178808,3.4233060709505265
1.6291390728476822,3.4536182745323054
1.6490066225165563,3.4828669869055635
1.6688741721854303,3.5109663677226015
1.6887417218543048,3.537835735612247
1.7086092715231789,3.5633995149389794
1.728476821192053,3.587587179174712
1.7483443708609272,3.610333192808028
1.7682119205298013,3.631576953344006
1.7880794701986755,3.6512627346340714
1.8079470198675496,3.669339632513959
1.8278145695364238,3.6857615135112805
1.847682119205298,3.700486967208002
1.8675496688741722,3.7134792627000484
1.8874172185430464,3.7247063094827086
1.9072847682119205,3.734140623001212
1.9271523178807946,3.7417592950365397
1.9470198675496688,3.747543969044526
1.9668874172185429,3.7514808205274126
1.9867549668874174,3.7535605424892773
2.0066225165562916,3.753778336006887
2.0264900662251657,3.752133905934045
2.0463576158940397,3.7486314617475016
2.066225165562914,3.7432797235350157
2.086092715231788,3.7360919331177045
2.1059602649006623,3.727085870289781
2.1258278145695364,3.716283874144554
2.1456953642384105,3.7037128694361825
2.165562913907285,3.689404397898984
2.185430463576159,3.673394654407138
2.205298013245033,3.6557245278057526
2.2251655629139075,3.63643964617529
2.2450331125827816,3.615590426201991
2.2649006622516556,3.593232126213686
2.2847682119205297,3.5694249022976776
2.3046357615894038,3.5442338667411364
2.324503311258278,3.517729147818658
2.3443708609271523,3.4899859496902574
2.364238410596027,3.4610846108601274
2.384105960264901,3.4311106592751135
2.403973509933775,3.4001548617063677
2.423841059602649,3.3683132645517344
2.443708609271523,3.335687222616506
2.463576158940397,3.3023834117734157
2.4834437086092715,3.2685138206705258
2.5033112582781456,3.234195715853646
2.52317880794702,3.1995515738094933
2.543046357615894,3.1647089725386133
2.562913907284768,3.1298004343622114
2.5827814569536423,3.0949632108001417
2.6026490066225163,3.06033899958628
2.622516556291391,3.0260735832892576
2.642384105960265,2.9923163786748836
2.662251655629139,2.9592198859935372
2.6821192052980134,2.9269390279275393
2.7019867549668874,2.8956303691252523
2.7218543046357615,2.8654512092138704
2.741721854304636,2.836558545040873
2.76158940397351,2.8091079017289005
2.781456953642384,2.7832520369693743
2.801324503311258,2.7591395287741642
2.821192052980132,2.7369132634963593
2.8410596026490067,2.7167088480447092
2.8609271523178808,2.698652977447722
2.8807947019867552,2.6828617957516725
2.9006622516556293,2.6694392940543397
2.9205298013245033,2.658475793640256
2.9403973509933774,2.650046564088183
2.9602649006622515,2.6442106253829016
2.9801324503311255,2.6410097792000977
3.0,2.6404679076343767
3.0198675496688745,2.642590568004317
3.0397350993377485,2.647364900592049
3.0596026490066226,2.6547598531052854
3.0794701986754967,2.664726712288873
3.0993377483443707,2.677199920498251
3.119205298013245,2.692098144124585
3.1390728476821192,2.709325552276864
3.1589403973509933,2.728773258547073
3.1788079470198674,2.750320876169678
3.198675496688742,2.7738381372992813
3.218543046357616,2.7991865300893357
3.23841059602649,2.8262209122128246
3.2582781456953644,2.854791065791621
3.2781456953642385,2.884743165760853
3.2980132450331126,2.9159211409149544
3.3178807947019866,2.9481679137920866
3.3377483443708607,2.9813265118068193
3.3576158940397347,3.0152410474164717
3.3774834437086096,3.0497575694971606
3.3973509933774837,3.084724791497568
3.4172185430463577,3.119994704388249
3.437086092715232,3.155423084033226
3.456953642384106,3.1908699035055212
3.47682119205298,3.2261996611856576
3.4966887417218544,3.261281635351659
3.5165562913907285,3.295990075513212
3.5364238410596025,3.3302043400628896
3.556291390728477,3.363808989001558
3.576158940397351,3.396693839610175
3.596026490066225,3.4287539920393617
3.615894039735099,3.459889830908018
3.6357615894039736,3.4900070081698042
3.6556291390728477,3.5190164117372404
3.6754966887417218,3.546834123656534
3.695364238410596,3.5733813710062514
3.7152317880794703,3.598584472147376
3.7350993377483444,3.6223747804802477
3.754966887417219,3.6446886274582035
3.774834437086093,3.6654672662640313
3.794701986754967,3.6846568172665877
3.814569536423841,3.702208216135042
3.834437086092715,3.7180771652906457
3.854304635761589,3.7322240892156793
3.8741721854304636,3.744614094009919
3.8940397350993377,3.755216931482969
3.9139072847682117,3.764006967990766
3.9337748344370858,3.770963158163397
3.9536423841059607,3.7760690236254284
3.9735099337748347,3.7793126367760346
3.993377483443709,3.7806866096720815
4.013245033112583,3.780188088040245
4.033112582781457,3.777818750432076
4.052980132450331,3.77358481252687
4.072847682119205,3.7674970365788405
4.0927152317880795,3.7595707459960233
4.112582781456953,3.749825845026407
4.132450331125828,3.7382868435093664
4.152317880794702,3.7249828866269232
4.172185430463576,3.7099477895552315
4.19205298013245,3.6932200768709853
4.211920529801325,3.674843026506463
4.231788079470199,3.6548647179671963
4.251655629139073,3.6333380844243135
4.271523178807947,3.610320968164924
4.291390728476821,3.58587617872368
4.311258278145695,3.560071552821956
4.33112582781457,3.5329800150013604
4.3509933774834435,3.5046796375504643
4.370860927152318,3.4752536979802473
4.390728476821192,3.4447907318995017
4.410596026490066,3.41338457866931
4.43046357615894,3.381134416672001
4.450331125827815,3.3481447844100436
4.470198675496689,3.3145255829547464
4.490066225165563,3.2803920544961085
4.509933774834438,3.2458647309121265
4.529801324503311,3.2110693453955608
4.549668874172186,3.176136699272612
4.569536423841059,3.1412024752598575
4.589403973509934,3.1064069875833935
4.6092715231788075,3.0718948586956487
4.629139072847682,3.0378146118555676
4.649006622516556,3.0043181686898355
4.66887417218543,2.971560241145277
4.688741721854305,2.9396976081071586
4.708609271523179,2.908888268528732
4.728476821192054,2.8792904653221254
4.748344370860927,2.8510615776020565
4.768211920529802,2.824356883209654
4.788079470198675,2.799328198765102
4.80794701986755,2.776122410702383
4.827814569536423,2.754879917613368
4.847682119205298,2.735733011433568
4.867549668874172,2.7188042320761805
4.887417218543046,2.704204736498245
4.9072847682119205,2.692032728235772
4.927152317880794,2.6823719965431687
4.947019867549669,2.6752906148657734
4.966887417218543,2.670839846071678
4.986754966887418,2.6690532965182707
5.006622516556291,2.6699463527678082
5.026490066225166,2.67351592403971
5.04635761589404,2.679740501018477
5.066225165562914,2.688580528353247
5.086092715231788,2.6999790751147112
5.105960264900662,2.713862775617354
5.125827814569536,2.730143003224738
5.14569536423841,2.7487172326459337
5.1655629139072845,2.7694705421218275
5.185430463576159,2.7922772058038676
5.205298013245033,2.8170023282868715
5.225165562913908,2.8435034772060455
5.245033112582782,2.8716322754541292
5.264900662251656,2.901235921281867
5.28476821192053,2.932158611706904
5.304635761589404,2.964242851747527
5.324503311258278,2.9973306386076097
5.344370860927152,3.0312645157816234
5.364238410596027,3.0658884969587232
5.3841059602649,3.1010488635214313
5.403973509933775,3.1365948423777885
5.4238410596026485,3.172379172914902
5.443708609271523,3.2082585731308804
5.463576158940397,3.244094115622198
5.483443708609272,3.2797515242086788
5.503311258278146,3.315101401693972
5.52317880794702,3.3500193986985587
5.543046357615895,3.3843863327592048
5.562913907284768,3.4180882660417877
5.582781456953643,3.4510165491232794
5.602649006622516,3.4830678374085724
5.622516556291391,3.5141440858914037
5.642384105960264,3.5441525271666983
5.662251655629139,3.5730056368672525
5.682119205298013,3.600621090037324
5.701986754966887,3.626921711370714
5.7218543046357615,3.651835421729956
5.741721854304636,3.67529518292187
5.7615894039735105,3.6972389423278194
5.781456953642384,3.7176095786685583
5.801324503311259,3.7363548499171406
5.821192052980132,3.7534273441527235
5.841059602649007,3.7687844339672796
5.860927152317881,3.782388234890957
5.880794701986755,3.794205568184503
5.900662251655629,3.804207928254987
5.920529801324503,3.8123714548790266
5.940397350993377,3.8186769103632243
5.960264900662251,3.8231096617304177
5.980132450331126,3.825659667990601
6.0,3.8263214725337265
6.0198675496688745,3.8250942006662036
6.039735099337749,3.8219815623016546
6.059602649006623,3.8169918598068313
6.079470198675497,3.810138000994171
6.099337748344371,3.8014375172412427
6.119205298013245,3.790912586701726
6.139072847682119,3.7785900625511584
6.158940397350993,3.764501506180997
6.178807947019867,3.7486832252132687
6.198675496688741,3.7311763161538667
6.218543046357616,3.7120267114305796
6.23841059602649,3.6912852304696258
6.258278145695365,3.669007634347692
6.2781456953642385,3.645254683409842
6.298013245033113,3.6200921970634483
6.317880794701987,3.593591114737629
6.337748344370861,3.565827556731706
6.357615894039735,3.5368828833578414
6.377483443708609,3.5068437504066012
6.397350993377484,3.4758021585233245
6.417218543046357,3.443855493572195
6.437086092715232,3.411106554480685
6.456953642384105,3.377663564396712
6.47682119205298,3.343640160256032
6.496688741721854,3.309155355055575
6.516556291390729,3.2743334662698462
6.5364238410596025,3.2393040029551843
6.556291390728477,3.204201503191411
6.5761589403973515,3.169165312656136
6.596026490066225,3.134339294374054
6.6158940397351,3.099871459108144
6.635761589403973,3.0659135055551294
6.655629139072848,3.0326202595859693
6.675496688741721,3.000149002357129
6.695364238410596,2.968658678343704
6.715231788079469,2.938308976341642
6.735099337748344,2.909259279368303
6.754966887417219,2.8816674832390436
6.774834437086093,2.855688688437221
6.794701986754967,2.8314737756700112
6.814569536423841,2.8091678820562103
6.8344370860927155,2.788908801948771
6.854304635761589,2.7708253435544092
6.874172185430464,2.7550356792618245
6.894039735099337,2.741645733331171
6.913907284768212,2.7307476547005667
6.933774834437086,2.722418424538004
6.95364238410596,2.716718647335363
6.973509933774834,2.7136915705304823
6.993377483443709,2.7133623708430408
7.013245033112583,2.715737736009693
7.033112582781457,2.7208057589858528
7.052980132450331,2.7285361487722652
7.072847682119205,2.7388807488032163
7.0927152317880795,2.75177434131653
7.112582781456954,2.7671357052440904
7.132450331125828,2.7848688866551017
7.152317880794702,2.8048646351203557
7.172185430463576,2.827001956716591
7.19205298013245,2.8511497346320596
7.211920529801324,2.87716837110974
7.231788079470198,2.9049114092426374
7.251655629139073,2.934227099302786
7.271523178807947,2.9649598812204236
7.291390728476822,2.9969517619639023
7.311258278145695,3.030043573436308
7.33112582781457,3.0640761027505183
7.3509933774834435,3.098891092144524
7.370860927152318,3.1343321102377155
7.390728476821192,3.17024529978541
7.410596026490066,3.206480009611692
7.430463576158941,3.242889320084092
7.450331125827814,3.2793304724616905
7.470198675496689,3.315665212830218
7.490066225165562,3.3517600612658875
7.509933774834438,3.387486516460836
7.52980132450331,3.422721205402153
7.549668874172186,3.4573459869099166
7.569536423841059,3.491248016975882
7.589403973509934,3.5243197829577646
7.6092715231788075,3.556459112812229
7.629139072847682,3.587569164720871
7.649006622516557,3.617558401694124
7.66887417218543,3.6463405550389707
7.6887417218543055,3.673834579951229
7.708609271523178,3.69996460594219
7.728476821192054,3.7246598843302174
7.748344370860927,3.747854734615657
7.768211920529802,3.769488491206438
7.788079470198675,3.789505451666435
7.80794701986755,3.807854827412035
7.827814569536423,3.82449069757891
7.847682119205298,3.839371966615253
7.8675496688741715,3.852462326023039
7.887417218543046,3.8637302205625845
7.907284768211921,3.873148819151196
7.927152317880795,3.880695990622027
7.9470198675496695,3.8863542844596046
7.966887417218543,3.89011091659173
7.986754966887418,3.891957760290427
8.006622516556291,3.8918913422145667
8.026490066225167,3.8899128436126786
8.046357615894038,3.8860281066922306
8.066225165562914,3.880247646151395
8.086092715231787,3.8725866658574737
8.105960264900663,3.8630650806412667
8.125827814569536,3.8517075431571937
8.14569536423841,3.8385434757313055
8.165562913907285,3.8236071070825206
8.185430463576159,3.8069375137524926
8.205298013245034,3.7885786660143865
8.225165562913906,3.7685794779461745
8.245033112582782,3.746993861246897
8.264900662251655,3.7238807822394273
8.28476821192053,3.6993043213367676
8.304635761589404,3.673333734044409
8.324503311258278,3.6460435123242587
8.344370860927151,3.6175134448490023
8.364238410596027,3.587828674323823
8.3841059602649,3.5570797496390463
8.403973509933774,3.525362670136442
8.42384105960265,3.4927789187199756
8.443708609271523,3.4594354799144282
8.463576158940398,3.425444838274678
8.483443708609272,3.3909249517766256
8.503311258278146,3.3559991939888114
8.52317880794702,3.3207962579485897
8.543046357615895,3.285450013774655
8.562913907284768,3.2500993111773093
8.582781456953642,3.2148877172324264
8.602649006622515,3.179963179131113
8.62251655629139,3.1454776011921286
8.642384105960264,3.111586325328971
8.66225165562914,3.0784475045171455
8.682119205298013,3.0462213597374053
8.701986754966887,3.015069312508195
8.721854304635762,2.9851529875887928
8.741721854304636,2.9566330838275743
8.76158940397351,2.9296681155009825
8.781456953642383,2.9044130318188763
8.801324503311259,2.881017728454724
8.821192052980132,2.85962547177594
8.841059602649008,2.8403712635624165
8.86092715231788,2.8233801809532175
8.880794701986755,2.8087657325971733
8.90066225165563,2.7966282768901216
8.920529801324504,2.787053551150506
8.940397350993377,2.780111361084442
8.960264900662251,2.77585447754848
8.980132450331126,2.774317782292957
9.0,2.7755176962001897
9.019867549668875,2.7794519129569406
9.039735099337747,2.786099448823351
9.059602649006623,2.7954210060820674
9.079470198675496,2.8073596348690066
9.099337748344372,2.8218416663724444
9.119205298013245,2.8387778806744075
9.139072847682119,2.8580648654000385
9.158940397350994,2.879586517157804
9.178807947019868,2.903215636519526
9.198675496688743,2.928815568767928
9.218543046357615,2.9562418463854994
9.23841059602649,2.985343794705391
9.258278145695364,3.0159660686750667
9.27814569536424,3.04795009570511
9.298013245033111,3.0811354065700884
9.317880794701987,3.115360842888331
9.33774834437086,3.1504656355419867
9.357615894039736,3.1862903533366977
9.37748344370861,3.222677725171976
9.397350993377483,3.259473342009823
9.417218543046358,3.2965262470608896
9.437086092715232,3.3336894239613697
9.456953642384107,3.370820193415816
9.47682119205298,3.4077805289603083
9.496688741721854,3.444437302281073
9.516556291390728,3.4806624680166287
9.536423841059603,3.5163331972717105
9.556291390728477,3.5513319682565827
9.57615894039735,3.5855466215980005
9.596026490066224,3.6188703869932195
9.6158940397351,3.6512018870306813
9.635761589403973,3.682445123202723
9.655629139072847,3.7125094484000254
9.675496688741722,3.7413095295139573
9.695364238410596,3.768765303181423
9.715231788079471,3.7948019271889137
9.735099337748345,3.8193497296026564
9.754966887417218,3.84234415730651
9.774834437086092,3.8637257253022317
9.794701986754967,3.883439967851889
9.814569536423841,3.9014373923138956
9.834437086092716,3.9176734363360213
9.854304635761588,3.932108428915209
9.874172185430464,3.944707555711203
9.894039735099337,3.9554408289023595
9.913907284768213,3.9642830617953813
9.933774834437086,3.9712138483414208
9.95364238410596,3.9762175476652035
9.973509933774835,3.9792832736807777
9.993377483443709,3.9804048898415147
10.013245033112582,3.979581009053555
10.033112582781456,3.9768149987668093
10.052980132450331,3.9721149912447387
10.072847682119205,3.9654938990013493
10.09271523178808,3.9569694353785163
10.112582781456952,3.9465641402176077
10.132450331125828,3.9343054105535953
10.152317880794701,3.920225536225079
10.172185430463577,3.9043617402477966
10.192052980132452,3.8867562237381583
10.211920529801324,3.867456215095509
10.2317880794702,3.8465140230516237
10.251655629139073,3.8239870930706776
10.271523178807948,3.799938066427492
10.29139072847682,3.774434841100701
10.311258278145695,3.7475506333861714
10.331125827814569,3.7193640388573925
10.350993377483444,3.6899590909688222
10.370860927152318,3.6594253152079688
10.390728476821192,3.6278577762479136
10.410596026490065,3.595357115027831
10.43046357615894,3.5620295720928414
10.450331125827816,3.5279869928539447
10.470198675496688,3.4933468096874485
10.490066225165563,3.458231994988406
10.509933774834437,3.422770978437933
10.529801324503312,3.3870975208629384
10.549668874172186,3.351350536192629
10.56953642384106,3.3156738521940823
10.589403973509933,3.280215899962235
10.609271523178808,3.2451293216238666
10.629139072847682,3.2105704854858588
10.649006622516556,3.176698898025019
10.66887417218543,3.14367650280308
10.688741721854305,3.1116668577243263
10.70860927152318,3.080834184159466
10.728476821192054,3.05134228444453
10.748344370860927,3.023353328197801
10.7682119205298,2.9970265127937643
