Time (s),Filtered Signal
0.0,0.039383776495342325
0.033370165745856356,0.1139911561019898
0.06674033149171271,0.13652899246595343
0.10011049723756907,0.07353091751601745
0.13348066298342542,-0.07845759444130057
0.16685082872928178,-0.29209375433158546
0.20022099447513814,-0.5193739907562345
0.2335911602209945,-0.7085520142322861
0.26696132596685085,-0.8211608907910992
0.30033149171270723,-0.8426990243358621
0.33370165745856356,-0.7834908885209887
0.3670718232044199,-0.6705625036953274
0.4004419889502763,-0.5350576584500074
0.43381215469613266,-0.40106995198048645
0.467182320441989,-0.28029229684232965
0.5005524861878453,-0.17353839692301098
0.5339226519337017,-0.07679004223517619
0.5672928176795581,0.012344994733824817
0.6006629834254145,0.09132797111656789
0.6340331491712707,0.1537988560337039
0.6674033149171271,0.19372722519246563
0.7007734806629835,0.20970579282296936
0.7341436464088398,0.20677018530568578
0.7675138121546962,0.19484789803812483
0.8008839779005525,0.1849505445740308
0.8342541436464089,0.1853254680139007
0.8676243093922653,0.19943014281108062
0.9009944751381216,0.22617730788079007
0.934364640883978,0.26144804877767164
0.9677348066298344,0.29936005451255404
1.0011049723756906,0.3324875240651814
1.0344751381215471,0.3515537552256306
1.0678453038674034,0.3459944862718593
1.1012154696132597,0.30646354175240004
1.1345856353591162,0.228941054059528
1.1679558011049724,0.1185534776535832
1.201325966850829,-0.009340713016960224
1.2346961325966852,-0.13225823826520858
1.2680662983425415,-0.22726060589994046
1.301436464088398,-0.2785542183558147
1.3348066298342542,-0.2826782334199175
1.3681767955801105,-0.24897210651600746
1.401546961325967,-0.19522377950810696
1.4349171270718233,-0.14057173545879093
1.4682872928176796,-0.09877596722653294
1.501657458563536,-0.0745030474380216
1.5350276243093923,-0.06370799787187295
1.5683977900552488,-0.05739665053775644
1.601767955801105,-0.046810527866450805
1.6351381215469614,-0.027786415180852956
1.6685082872928179,-0.0026394820376003094
1.7018784530386741,0.020971732332876115
1.7352486187845306,0.03357991028509536
1.768618784530387,0.02839176595019145
1.8019889502762432,0.004978053382360835
1.8353591160220997,-0.029271539112227987
1.868729281767956,-0.06059507263754949
1.9020994475138122,-0.07286873364097483
1.9354696132596687,-0.052939763064381404
1.968839779005525,0.004462505546928579
2.0022099447513813,0.09393045255504179
2.0355801104972375,0.19981002683471827
2.0689502762430942,0.300025357063342
2.1023204419889505,0.37236894628822037
2.135690607734807,0.401367038344392
2.169060773480663,0.38332820897931735
2.2024309392265193,0.3274836664743869
2.235801104972376,0.2523778111395184
2.2691712707182323,0.17857188382446837
2.3025414364640886,0.12049613157015966
2.335911602209945,0.08097677487127203
2.369281767955801,0.05102182793815254
2.402651933701658,0.015141248473394452
2.436022099447514,-0.040155622065186275
2.4693922651933704,-0.11869269489182968
2.5027624309392267,-0.21157995895119144
2.536132596685083,-0.3004976849711733
2.5695027624309392,-0.3659997646072132
2.602872928176796,-0.3969697803484957
2.636243093922652,-0.39654732046692975
2.6696132596685085,-0.381289513075284
2.7029834254143648,-0.3735135500303271
2.736353591160221,-0.3902340791836508
2.7697237569060777,-0.4341144470968566
2.803093922651934,-0.49121063985512725
2.8364640883977903,-0.5370939157403106
2.8698342541436466,-0.5486606377797444
2.903204419889503,-0.5157612828037905
2.936574585635359,-0.4464837009497012
2.969944751381216,-0.36288574024141573
3.003314917127072,-0.28885778112878985
3.0366850828729284,-0.23615465221368384
3.0700552486187846,-0.19612168538949915
3.103425414364641,-0.14225090755411365
3.1367955801104976,-0.04338198831411055
3.170165745856354,0.11838787591322364
3.20353591160221,0.3342962714352882
3.2369060773480665,0.5680920787588447
3.2702762430939227,0.7703686754871231
3.3036464088397794,0.9028971463134031
3.3370165745856357,0.9614304254836901
3.370386740331492,0.9839663249784479
3.4037569060773483,1.0366088157109392
3.4371270718232045,1.1796179898551948
3.4704972375690613,1.427545599760739
3.5038674033149175,1.72361416854369
3.537237569060774,1.9452610443184188
3.57060773480663,1.9448513299319943
3.6039779005524863,1.6120982943068647
3.6373480662983426,0.93135528894952
3.6707182320441993,0.005526257761171424
3.7040883977900556,-0.9687069731490978
3.737458563535912,-1.767590775767727
3.770828729281768,-2.221838503321071
3.8041988950276244,-2.2778286968994297
3.837569060773481,-2.0118810181205906
3.8709392265193374,-1.5920865959968886
3.9043093922651937,-1.2054204772905954
3.93767955801105,-0.9824487148662303
3.9710497237569062,-0.951588109483616
4.0044198895027625,-1.0403867064932686
4.037790055248619,-1.1197709712888053
4.071160220994475,-1.0686572829613106
4.104530386740332,-0.8290369557033569
4.1379005524861885,-0.4283140915156657
4.171270718232044,0.03772287803719322
4.204640883977901,0.4498381775785084
4.238011049723757,0.7156320480728976
4.271381215469614,0.8028452085328269
4.30475138121547,0.7435719862123467
4.338121546961326,0.6116285314928323
4.371491712707183,0.4867559662127586
4.404861878453039,0.4229902090747602
4.438232044198895,0.4338083217242982
4.471602209944752,0.4970138292597489
4.504972375690608,0.5730469035291588
4.538342541436465,0.6257843644564505
4.5717127071823205,0.6362372008313361
4.605082872928177,0.6050369455879564
4.638453038674034,0.5457408033885579
4.67182320441989,0.47468432885879924
4.7051933701657465,0.40314065282093275
4.738563535911602,0.3347802432078013
4.771933701657459,0.26793914248392753
4.805303867403316,0.1999201861847599
4.8386740331491715,0.13028141209433508
4.872044198895028,0.061398409278729256
4.905414364640884,-0.00353059233078494
4.938784530386741,-0.06343186485268831
4.972154696132597,-0.12120712483075571
5.005524861878453,-0.18304464723966293
5.03889502762431,-0.25507555840465845
5.072265193370166,-0.3387404341591427
5.105635359116023,-0.427198418585985
5.1390055248618784,-0.5050311286579796
5.172375690607735,-0.5522261113565556
5.205745856353592,-0.5514002234065091
5.239116022099448,-0.4953704377637561
5.272486187845304,-0.39152765628392144
5.30585635359116,-0.2605703483130873
5.339226519337017,-0.12965902281303363
5.372596685082874,-0.022762484396085622
5.4059668508287295,0.04755978815144187
5.439337016574586,0.0833097144459368
5.472707182320442,0.09793163336994135
5.506077348066299,0.1086724282793021
5.5394475138121555,0.12812681107714824
5.572817679558011,0.1587232442611469
5.606187845303868,0.1922221675083311
5.639558011049724,0.21391261469589226
5.672928176795581,0.20931257865924244
5.706298342541437,0.17052738172716314
5.739668508287293,0.09998945522556654
5.77303867403315,0.01054646552978404
5.806408839779006,-0.07787299007061597
5.839779005524862,-0.1439050467422422
5.873149171270718,-0.17113304448271593
5.906519337016575,-0.15344354472054997
5.939889502762432,-0.09764283900292621
5.9732596685082875,-0.022103425188847833
6.006629834254144,0.04866311975856054
6.04,0.09200141512338851
6.073370165745857,0.09478478946002973
6.1067403314917135,0.057618681826167875
6.140110497237569,-0.006258710362720455
6.173480662983426,-0.07681401140634693
6.206850828729282,-0.13498111077933886
6.240220994475139,-0.1687110282438635
6.273591160220995,-0.17479330997664017
6.306961325966851,-0.15638987883977182
6.340331491712708,-0.11857684840494619
6.373701657458564,-0.06503158063991597
6.40707182320442,0.0021522192484078255
6.440441988950277,0.07990118294576062
6.473812154696133,0.16123059844953283
6.50718232044199,0.2346399369102121
6.5405524861878455,0.2869706628640159
6.573922651933702,0.30848136520235575
6.607292817679559,0.2972748799833425
6.640662983425415,0.2603994446655926
6.674033149171271,0.21080336505541114
6.707403314917127,0.1616748301686606
6.740773480662984,0.12111922783527974
6.774143646408841,0.08981883804172382
6.8075138121546965,0.06255235713333532
6.840883977900553,0.03232805508986484
6.874254143646409,-0.005363060410070257
6.907624309392266,-0.05040741350781764
6.9409944751381225,-0.09879822890951237
6.974364640883978,-0.1452654146596846
7.007734806629835,-0.18589416060903782
7.041104972375691,-0.21913376544467034
7.074475138121548,-0.24484739162017635
7.107845303867403,-0.26237871812330166
7.14121546961326,-0.2691863937033165
7.174585635359117,-0.2611368236207526
7.207955801104973,-0.2344281656368975
7.241325966850829,-0.18808039719212474
7.274696132596685,-0.12558068203847386
7.308066298342542,-0.05476460423316411
7.341436464088399,0.014015585126773764
7.3748066298342545,0.07054635791608771
7.408176795580111,0.107121210422539
7.441546961325967,0.1199572015776768
7.474917127071824,0.1096958818531815
7.5082872928176805,0.08141410349705648
7.541657458563536,0.04437379546498818
7.575027624309393,0.011198674817243244
7.608397790055249,-0.004157734982010436
7.641767955801106,0.010037447024600769
7.675138121546962,0.05884593399979536
7.708508287292818,0.13692890286674547
7.741878453038675,0.22755032838705452
7.775248618784531,0.30567995313418844
7.808618784530387,0.3450023314494483
7.841988950276244,0.32680098732984075
7.8753591160221,0.2474353549061004
7.908729281767957,0.12114979419748768
7.9420994475138125,-0.023555718441305523
7.975469613259669,-0.15323544149778406
8.008839779005525,-0.24114958617012966
8.042209944751383,-0.27650730333978346
8.075580110497238,-0.2672064428904224
8.108950276243094,-0.2346862157680582
8.14232044198895,-0.20313695413410252
8.175690607734808,-0.18805791392006183
8.209060773480664,-0.1895303731778876
8.24243093922652,-0.19329017793053418
8.275801104972377,-0.1788718954753779
8.309171270718233,-0.13070020273090718
8.342541436464089,-0.046721663342687875
8.375911602209946,0.05943731845754212
8.409281767955802,0.16355057828661282
8.442651933701658,0.240464875109267
8.476022099447514,0.2738045237339409
8.509392265193371,0.2615074612013201
8.542762430939227,0.21522881404551758
8.576132596685083,0.15450875226383037
8.60950276243094,0.09869988059883736
8.642872928176796,0.06015534938464905
8.676243093922652,0.04112792417316225
8.709613259668508,0.034954501170430106
8.742983425414366,0.030350576611915352
8.776353591160222,0.016700939963480876
8.809723756906077,-0.011715855293930454
8.843093922651935,-0.053859570852117886
8.87646408839779,-0.10267606022790252
8.909834254143647,-0.147832798762626
8.943204419889504,-0.1792973390791852
8.97657458563536,-0.1905230661247496
9.009944751381216,-0.1802757756009583
9.043314917127072,-0.1526250119864768
9.07668508287293,-0.11518731502857459
9.110055248618785,-0.0762392600906851
9.143425414364641,-0.041734271288853306
9.176795580110499,-0.013420130394326019
9.210165745856354,0.011032980582222213
9.24353591160221,0.03580106241155747
9.276906077348068,0.06356400539610906
9.310276243093924,0.09280644090531202
9.34364640883978,0.11739186355552397
9.377016574585635,0.1289554319053317
9.410386740331493,0.1211608093063864
9.443756906077349,0.09378146718372275
9.477127071823205,0.05448176875976157
9.510497237569062,0.017115801040960395
9.543867403314918,-0.003127257695006432
9.577237569060774,0.004020691430727117
9.610607734806631,0.0387665045160723
9.643977900552487,0.08954717985469336
9.677348066298343,0.13592419139748577
9.710718232044199,0.15552303062169198
9.744088397790057,0.13274697148082623
9.777458563535912,0.065968890834005
9.810828729281768,-0.02992204336547155
9.844198895027626,-0.12725586224824637
9.877569060773482,-0.1948504807161547
9.910939226519337,-0.209655058054977
9.944309392265193,-0.16622268492035625
9.97767955801105,-0.07987584383772149
10.011049723756907,0.018287957879437
10.044419889502763,0.0930375297354179
10.07779005524862,0.1187732552692344
10.111160220994476,0.08969087155953935
10.144530386740332,0.021940859617065767
10.17790055248619,-0.05324329461229871
10.211270718232045,-0.10255185568925966
10.244640883977901,-0.10419718167072684
10.278011049723757,-0.05641376240649299
10.311381215469615,0.022455495450858315
10.34475138121547,0.10187612822833243
10.378121546961326,0.15130300565184954
10.411491712707184,0.15142008404562368
10.44486187845304,0.10013175316207969
10.478232044198895,0.011624948292976476
10.511602209944753,-0.09019668658368481
10.544972375690609,-0.1806278559199516
10.578342541436465,-0.24184645274715758
10.61171270718232,-0.26693378228783476
10.645082872928178,-0.25957369856617674
10.678453038674034,-0.23035211947062387
10.71182320441989,-0.1914932911197126
10.745193370165747,-0.15205600981427722
10.778563535911603,-0.11520749054532549
10.811933701657459,-0.07836729939774228
10.845303867403315,-0.03596545768682814
10.878674033149172,0.01643457021859696
10.912044198895028,0.0784860816528183
10.945414364640884,0.14360875100480786
10.978784530386742,0.2005890374042139
11.012154696132598,0.23773263870989692
11.045524861878453,0.24782759016760825
11.078895027624311,0.2316668297408682
11.112265193370167,0.19842528371389628
11.145635359116023,0.16258020703855527
11.179005524861878,0.1386301463586957
11.212375690607736,0.1358259251129175
11.245745856353592,0.15502646431168665
11.279116022099448,0.1887532925385947
11.312486187845305,0.2241250388003788
11.345856353591161,0.24729178704478463
11.379226519337017,0.24766703411704674
11.412596685082875,0.22064576830628427
11.44596685082873,0.1682560079512845
11.479337016574586,0.09791326134253227
11.512707182320442,0.01988874077982477
11.5460773480663,-0.055743349663234784
11.579447513812156,-0.1218992924796674
11.612817679558011,-0.17625388302552572
11.646187845303869,-0.22132987518416086
11.679558011049725,-0.2626543212136621
11.71292817679558,-0.3054574422314813
11.746298342541436,-0.35116966464599225
11.779668508287294,-0.3953174423767893
11.81303867403315,-0.42800464786731957
11.846408839779006,-0.4371015957321823
11.879779005524863,-0.4130326516740741
11.91314917127072,-0.3532256562239201
11.946519337016575,-0.2642439764276117
11.979889502762433,-0.1604374898110538
12.013259668508288,-0.05936991402851573
12.046629834254144,0.024236657911857525
12.08,0.08345034952763199
12.113370165745858,0.12070883597596657
12.146740331491714,0.14527849975332
12.18011049723757,0.16785579766308917
12.213480662983427,0.1950100137040485
12.246850828729283,0.22619333563380686
12.280220994475139,0.2546275190585165
12.313591160220996,0.2713293371255194
12.346961325966852,0.27000611190319235
12.380331491712708,0.2503133666822171
12.413701657458564,0.21800912199832678
12.447071823204421,0.1821763299542913
12.480441988950277,0.1510356019593067
12.513812154696133,0.12835483205999368
12.54718232044199,0.11201299025853911
12.580552486187846,0.09523253405051452
12.613922651933702,0.0698595185630308
12.64729281767956,0.030286976170111165
12.680662983425416,-0.02356037718105655
12.714033149171271,-0.08532828965797815
12.747403314917127,-0.14374422749255922
12.780773480662985,-0.1859769702432097
12.81414364640884,-0.20165515685640165
12.847513812154697,-0.18617045180301586
12.880883977900554,-0.1421829646631917
12.91425414364641,-0.07889859450104092
12.947624309392266,-0.009463402596761202
12.980994475138122,0.05256805216618911
13.01436464088398,0.09651215995793941
13.047734806629835,0.11663858058607937
13.081104972375691,0.11266944497060916
13.114475138121549,0.08893196465598444
13.147845303867404,0.0528079761718498
13.18121546961326,0.013142184319480483
13.214585635359118,-0.021073575052137253
13.247955801104974,-0.04188518960368141
13.28132596685083,-0.04379954854172766
13.314696132596685,-0.025561017998692984
13.348066298342543,0.008241090412670503
13.381436464088399,0.04682246079524918
13.414806629834255,0.0751506662167341
13.448176795580112,0.07833581986802325
13.481546961325968,0.04721529848634271
13.514917127071824,-0.017222059810022523
13.548287292817681,-0.10294097313020276
13.581657458563537,-0.19051253069813995
13.615027624309393,-0.26014496431251377
13.648397790055249,-0.2990281547986979
13.681767955801106,-0.30546480632008155
13.715138121546962,-0.2876796011374551
13.748508287292818,-0.25789071720269074
13.781878453038676,-0.2247726455818366
13.815248618784532,-0.1883828431179632
13.848618784530387,-0.14036879116715398
13.881988950276245,-0.06946440292613605
13.9153591160221,0.03055184165101986
13.948729281767957,0.15461113917137895
13.982099447513813,0.28516627856820215
14.01546961325967,0.3968862240392904
14.048839779005526,0.46520310109361357
14.082209944751382,0.4749580544350445
14.11558011049724,0.4255649064900457
14.148950276243095,0.33087398342037305
14.182320441988951,0.21421563466112478
14.215690607734807,0.10084339939187593
14.249060773480664,0.010617996940310043
14.28243093922652,-0.04668249645045258
14.315801104972376,-0.07219529550826453
14.349171270718234,-0.0751276837334092
14.38254143646409,-0.06767410020545855
14.415911602209945,-0.059879080729228026
14.449281767955803,-0.05656621281226637
14.482651933701659,-0.05750708994331753
14.516022099447515,-0.06045646631392886
14.54939226519337,-0.06517357403283047
14.582762430939228,-0.07586431052390068
14.616132596685084,-0.1001311313703504
14.64950276243094,-0.14438605701945162
14.682872928176797,-0.2079090982526776
14.716243093922653,-0.27905851465390097
14.749613259668509,-0.3365869100454338
14.782983425414367,-0.35658509543471906
14.816353591160222,-0.3224278632433635
14.849723756906078,-0.23301890922202517
14.883093922651934,-0.10498388010889705
14.916464088397792,0.032740658241380456
14.949834254143648,0.14967757465382356
14.983204419889503,0.22500226677265692
15.016574585635361,0.2541261571362421
15.049944751381217,0.24812154617704557
15.083314917127073,0.22703290537294446
15.116685082872928,0.2108394487364485
15.150055248618786,0.21234618008340872
15.183425414364642,0.23458681946278798
15.216795580110498,0.27261442972278643
15.250165745856355,0.3174280694730438
15.283535911602211,0.3593080516982912
15.316906077348067,0.3890226825674158
15.350276243093925,0.39728758923051866
15.38364640883978,0.374237704179683
15.417016574585636,0.31066914856707645
15.450386740331492,0.20146585970647457
15.48375690607735,0.049804169658487676
15.517127071823205,-0.13041351481936778
15.550497237569061,-0.3161114743961915
15.583867403314919,-0.48100674657285214
15.617237569060775,-0.6040315254157766
15.65060773480663,-0.6765545556199256
15.683977900552488,-0.7047524122805747
15.717348066298344,-0.7053982689176117
15.7507182320442,-0.696383170545376
15.784088397790056,-0.6860540544373211
15.817458563535913,-0.666556879400262
15.85082872928177,-0.6150931487138663
15.884198895027625,-0.5036560770226406
15.917569060773483,-0.3137345637841352
15.950939226519338,-0.049526793650569265
15.984309392265194,0.2569859634684431
16.01767955801105,0.5526769498737455
16.051049723756908,0.7799593134057738
16.084419889502765,0.8969104452746725
16.11779005524862,0.8921692121350131
16.151160220994477,0.7880240883455074
16.18453038674033,0.6304188208173704
16.21790055248619,0.4705045115915291
16.251270718232046,0.3459664133038106
16.2846408839779,0.27000331471994254
16.318011049723758,0.2318814815931879
16.351381215469615,0.20746219756671264
16.38475138121547,0.17368828506769632
16.418121546961327,0.11974816333644878
16.451491712707185,0.049971750618388565
16.48486187845304,-0.021873104823101768
16.518232044198896,-0.08275486817151613
16.551602209944754,-0.1288769885703158
16.584972375690608,-0.16772376870501696
16.618342541436466,-0.21274943819717346
16.651712707182323,-0.273992895264188
16.685082872928177,-0.35012167661072424
16.718453038674035,-0.42653419748027865
16.751823204419892,-0.48076928579238865
16.785193370165747,-0.49250864485727885
16.818563535911604,-0.45306012603283774
16.851933701657458,-0.36957547256440815
16.885303867403316,-0.2620460658468208
16.918674033149173,-0.15475213038201324
16.952044198895027,-0.0664260748043565
16.985414364640885,-0.003730785758565374
17.018784530386743,0.03923420766546903
17.052154696132597,0.07570887483891131
17.085524861878454,0.11826589435619428
17.118895027624312,0.1719778859680791
17.152265193370166,0.23180259832223077
17.185635359116024,0.2849983074364423
17.21900552486188,0.3170084239539062
