Frequency (Hz),Amplitude
0.0,5.299140627059183
0.01993355481727575,5.297889690574608
0.0398671096345515,5.294140084568976
0.059800664451827246,5.287901422317077
0.079734219269103,5.279189735693547
0.09966777408637874,5.2680274897301125
0.11960132890365449,5.2544436028558135
0.13953488372093023,5.238473472667384
0.159468438538206,5.220159007015373
0.17940199335548174,5.199548660115801
0.19933554817275748,5.176697473303347
0.21926910299003324,5.151667119926088
0.23920265780730898,5.124525953739689
0.25913621262458475,5.095349059985324
0.27906976744186046,5.06421830812488
0.29900332225913623,5.031222404954846
0.318936877076412,4.9964569465186095
0.3388704318936877,4.960024466881461
0.3588039867109635,4.922034481416387
0.37873754152823924,4.882603521765798
0.39867109634551495,4.841855159090737
0.4186046511627907,4.799920011590439
0.4385382059800665,4.756935731571202
0.4584717607973422,4.71304696656614
0.47840531561461797,4.668405288163532
0.49833887043189373,4.623169081305066
0.5182724252491695,4.57750338588617
0.5382059800664452,4.531579681562145
0.5581395348837209,4.4855756057770115
0.5780730897009968,4.439674594246712
0.5980066445182725,4.39406543251559
0.6179401993355482,4.348941706856161
0.637873754152824,4.304501142801157
0.6578073089700996,4.260944820104316
0.6777408637873754,4.2184762540489
0.6976744186046512,4.177300334890309
0.717607973421927,4.137622119948552
0.7375415282392027,4.099645476549514
0.7574750830564785,4.063571578697302
0.7774086378737541,4.029597266023477
0.7973421926910299,3.9979132800967276
0.8172757475083057,3.9687024003762525
0.8372093023255814,3.9421375096279383
0.8571428571428572,3.9183796260527037
0.877076411960133,3.8975759461630437
0.8970099667774087,3.8798579479851543
0.9169435215946844,3.865339607848777
0.9368770764119602,3.8541157853017656
0.9568106312292359,3.846260829129354
0.9767441860465116,3.8418274528515717
0.9966777408637875,3.8408459204545533
1.0166112956810631,3.8433235728061867
1.036544850498339,3.8492447128093032
1.0564784053156147,3.8585708536768957
1.0764119601328903,3.871241320733213
1.0963455149501662,3.8871741838485465
1.1162790697674418,3.9062674859209356
1.1362126245847177,3.9284007234706935
1.1561461794019936,3.953436528907657
1.176079734219269,3.9812225005828275
1.196013289036545,4.011593126282538
1.2159468438538206,4.04437174806029
1.2358803986710964,4.079372520751182
1.255813953488372,4.116402322591671
1.275747508305648,4.155262583457926
1.2956810631229239,4.195751003759075
1.3156146179401993,4.23766314446995
1.3355481727574752,4.280793875764809
1.3554817275747508,4.324938677936265
1.3754152823920267,4.3698947935811265
1.3953488372093024,4.415462234337509
1.4152823920265782,4.461444648771057
1.435215946843854,4.50765006039986
1.4551495016611296,4.553891486419753
1.4750830564784054,4.5999874485682986
1.495016611295681,4.645762387875536
1.514950166112957,4.691046994918762
1.5348837209302328,4.735678466740301
1.5548172757475083,4.7795007009024815
1.5747508305647842,4.822364436324057
1.5946843853820598,4.864127349636715
1.6146179401993357,4.904654114868166
1.6345514950166113,4.943816433340945
1.6544850498338872,4.981493039798177
1.6744186046511629,5.017569689949522
1.6943521594684385,5.051939133881038
1.7142857142857144,5.084501079098163
1.73421926910299,5.1151621463719135
1.754152823920266,5.143835821032326
1.7740863787375416,5.170442401896917
1.7940199335548175,5.194908949629604
1.8139534883720931,5.2171692359914825
1.8338870431893688,5.237163695163169
1.8538205980066447,5.25483937808246
1.8737541528239203,5.270149910545591
1.893687707641196,5.283055455659112
1.9136212624584719,5.293522681098137
1.9335548172757475,5.301524731519534
1.9534883720930232,5.30704120639254
1.9734219269102993,5.310058143438913
1.993355481727575,5.310568007817879
2.0132890365448506,5.3085696871431605
2.0332225913621262,5.3040684923780015
2.0531561461794023,5.2970761646159685
2.073089700996678,5.287610887717363
2.0930232558139537,5.275697306730782
2.1129568106312293,5.261366551983183
2.132890365448505,5.24465626866722
2.1528239202657806,5.225610651687753
2.1727574750830567,5.20428048544697
2.1926910299003324,5.1807231881457065
2.212624584717608,5.155002860052926
2.2325581395348837,5.127190335040648
2.25249169435216,5.097363234494492
2.2724252491694354,5.065606022482461
2.292358803986711,5.032010060793191
2.312292358803987,4.9966736621316645
2.332225913621263,4.959702139380007
2.352159468438538,4.921207848387355
2.3720930232558137,4.881310221239496
2.39202657807309,4.840135786373145
2.4119601328903655,4.7978181712368055
2.431893687707641,4.7544980824613985
2.4518272425249172,4.710323257693129
2.471760797342193,4.665448382366206
2.4916943521594686,4.620034963771798
2.511627906976744,4.574251153835739
2.5315614617940203,4.528271511086948
2.551495016611296,4.482276691430927
2.5714285714285716,4.436453056600303
2.5913621262458477,4.390992188618792
2.611295681063123,4.346090298381453
2.6312292358803986,4.301947516635701
2.6511627906976742,4.258767056368299
2.6710963455149503,4.2167542369950795
2.691029900332226,4.176115362939307
2.7109634551495017,4.137056452284118
2.7308970099667778,4.099781815271557
2.7508305647840534,4.064492487521361
2.770764119601329,4.031384528906252
2.7906976744186047,4.000647205902954
2.810631229235881,3.972461082681999
2.8305647840531565,3.9469960538325046
2.850498338870432,3.9244093589524427
2.870431893687708,3.904843625799545
2.8903654485049834,3.888424993671118
2.910299003322259,3.8752613715598803
2.9302325581395348,3.865440885896518
2.950166112956811,3.8590305699818197
2.9700996677740865,3.8560753414036832
2.990033222591362,3.8565973049722047
3.0099667774086383,3.8605954074241704
3.029900332225914,3.8680454570422
3.0498338870431896,3.8789005072977183
3.0697674418604657,3.893091589658213
3.089700996677741,3.9105287677883296
3.1096345514950166,3.931102474391796
3.129568106312292,3.95468508355207
3.1495016611295683,3.9811326660272646
3.169435215946844,4.010286872648044
3.1893687707641196,4.04197689159266
3.2093023255813957,4.0760214284884695
3.2292358803986714,4.112230663479908
3.249169435215947,4.150408145999189
3.2691029900332227,4.190352595362236
3.289036544850499,4.2318595829264
3.3089700996677744,4.274723078917683
3.32890365448505,4.318736853805333
3.3488372093023258,4.363695730031594
3.3687707641196014,4.409396684862162
3.388704318936877,4.455639809070432
3.4086378737541527,4.5022291291390655
3.428571428571429,4.54897330273876
3.4485049833887045,4.595686198541239
3.46843853820598,4.642187372069139
3.4883720930232562,4.688302449410091
3.508305647840532,4.73386343034874
3.5282392026578075,4.778708921908113
3.548172757475083,4.8226843125353325
3.5681063122923593,4.865641896293246
3.588039867109635,4.907440955490813
3.60797342192691,4.947947809247919
3.6279069767441863,4.987035834578322
3.647840531561462,5.024585465712578
3.6677740863787376,5.060484176584151
3.6877076411960132,5.094626450676745
3.7076411960132893,5.12691374178121
3.727574750830565,5.157254428636267
3.7475083056478407,5.185563765925889
3.7674418604651168,5.211763833672751
3.787375415282392,5.235783486696004
3.807308970099668,5.257558305486981
3.8272425249169437,5.277030549591843
3.8471760797342194,5.294149114369489
3.867109634551495,5.308869491810782
3.887043189368771,5.321153735955567
3.9069767441860463,5.330970433322026
3.9269102990033224,5.338294678664496
3.9468438538205985,5.3431080562958275
3.9667774086378738,5.345398627146172
3.98671096345515,5.345160921676771
4.0066445182724255,5.342395938722543
4.026578073089701,5.337111150297918
4.046511627906977,5.329320512362508
4.0664451827242525,5.319044481505352
4.086378737541528,5.30631003746409
4.106312292358805,5.291150711346726
4.1262458471760795,5.273606619364758
4.146179401993356,5.253724501813806
4.166112956810632,5.231557766948387
4.186046511627907,5.207166539286126
4.205980066445183,5.180617711740139
4.225913621262459,5.151985000810342
4.245847176079734,5.121349003860693
4.26578073089701,5.088797257263966
4.2857142857142865,5.054424293901483
4.305647840531561,5.018331698157704
4.325581395348838,4.980628156140361
4.345514950166113,4.9414294983813125
4.365448504983389,4.90085873172547
4.385382059800665,4.859046056490729
4.40531561461794,4.816128864279261
4.425249169435216,4.772251711041109
4.445182724252492,4.727566259139118
4.465116279069767,4.682231181253257
4.485049833887043,4.636412018009715
4.50498338870432,4.590280980255787
4.524916943521594,4.544016685966655
4.544850498338871,4.4978038209186595
4.5647840531561465,4.451832711567346
4.584717607973422,4.406298798114784
4.604651162790698,4.361401995643801
4.624584717607974,4.317345931557162
4.644518272425249,4.274337048517483
4.664451827242526,4.232583563773301
4.6843853820598005,4.19229427830499
4.704318936877076,4.153677232735195
4.724252491694353,4.1169382114857225
4.7441860465116275,4.082279102227137
4.764119601328904,4.049896124174814
4.78405315614618,4.019977946048919
4.803986710963455,3.992703722229208
4.823920265780731,3.9682410833738246
4.8438538205980075,3.9467441250008246
4.863787375415282,3.9283514436423204
4.883720930232559,3.9131842745375898
4.9036544850498345,3.9013447868385422
4.92358803986711,3.8929145914795042
4.943521594684386,3.887953512929144
4.963455149501661,3.886498668963663
4.983388704318937,3.888563892639098
5.003322259136213,3.8941395183450687
5.023255813953488,3.903192539990867
5.043189368770764,3.915667134974227
5.063122923588041,3.9314855336435266
5.083056478405315,3.950549201463782
5.102990033222592,3.972740290854149
5.122923588039868,3.9979233122571647
5.142857142857143,4.02594696971783
5.162790697674419,4.056646105092167
5.182724252491695,4.08984369670967
5.20265780730897,4.125352862420313
5.222591362126246,4.162978822880843
5.242524916943522,4.202520788041916
5.262458471760797,4.243773737475406
5.282392026578074,4.286530072887752
5.3023255813953485,4.330581128464913
5.322259136212625,4.37571853126951
5.342192691029901,4.42173540956286
5.362126245847176,4.468427451559523
5.382059800664452,4.5155938207330895
5.4019933554817285,4.563037936435858
5.421926910299003,4.610568130372461
5.44186046511628,4.657998190502156
5.4617940199335555,4.705147804370129
5.48172757475083,4.751842913814782
5.501661129568107,4.797915992586637
5.5215946843853825,4.843206257750138
5.541528239202658,4.887559824912668
5.561461794019934,4.930829816405854
5.5813953488372094,4.972876430590977
5.601328903654485,5.013566979513881
5.621262458471762,5.052775901225556
5.641196013289036,5.090384752233419
5.661129568106313,5.126282184766373
5.681063122923589,5.160363912831202
5.700996677740864,5.192532670409431
5.72093023255814,5.222698164591905
5.740863787375416,5.250777025968007
5.760797342192691,5.276692758173353
5.780730897009967,5.300375688147907
5.800664451827243,5.321762918358714
5.820598006644518,5.340798281992539
5.840531561461795,5.35743230191707
5.8604651162790695,5.371622154038868
5.880398671096346,5.38333163554737
5.900332225913622,5.3925311384214565
5.920265780730897,5.39919762848394
5.940199335548173,5.403314630216036
5.960132890365449,5.404872217484125
5.980066445182724,5.403867010282218
6.0,5.400302177551064
6.0199335548172765,5.394187446097189
6.039867109634551,5.385539115597851
6.059800664451828,5.374380079639016
6.0797342192691035,5.360739852689386
6.099667774086379,5.344654602861365
6.119601328903655,5.326167190246036
6.139534883720931,5.305327210530335
6.159468438538206,5.282191043506655
6.179401993355482,5.256821905963483
6.1993355481727574,5.229289908296165
6.219269102990033,5.199672113993811
6.23920265780731,5.168052600935993
6.259136212624584,5.134522523165987
6.279069767441861,5.099180171487957
6.299003322259137,5.062131030858832
6.318936877076412,5.0234878321034016
6.338870431893688,4.983370594968673
6.3588039867109645,4.941906658944409
6.378737541528239,4.899230697608133
6.398671096345516,4.855484711502907
6.418604651162791,4.810817993728053
6.438538205980066,4.7653870615235006
6.458471760797343,4.719355546172072
6.4784053156146175,4.672894032553811
6.498338870431894,4.6261798386962
6.51827242524917,4.579396724720062
6.538205980066445,4.532734519746251
6.558139534883721,4.486388654680635
6.578073089700998,4.440559588432099
6.598006644518272,4.395452115153664
6.617940199335549,4.351274540658607
6.6378737541528245,4.30823771738971
6.6578073089701,4.266553929347677
6.677740863787376,4.226435621339715
6.6976744186046515,4.188093970887101
6.717607973421927,4.151737306176313
6.737541528239203,4.117569379525632
6.7574750830564785,4.0857875128448855
6.777408637873754,4.056580639254545
6.797342192691031,4.030127273040458
6.8172757475083055,4.006593447969724
6.837209302325582,3.9861306710966624
6.857142857142858,3.968873944897709
6.877076411960133,3.9549399142401356
6.897009966777409,3.944425195730524
6.9169435215946855,3.9374049449765405
6.93687707641196,3.93393171202639
6.956810631229236,3.934034626803138
6.9767441860465125,3.937718945110831
6.996677740863787,3.944965972427831
7.016611295681064,3.9557333681234774
7.036544850498339,3.9699558179746512
7.056478405315615,3.9875460489772303
7.076411960132891,4.008396148402426
7.096345514950166,4.032379139596367
7.116279069767442,4.05935076064636
7.136212624584719,4.089151388918031
7.156146179401993,4.121608054490738
7.17607973421927,4.156536488323295
7.196013289036546,4.1937431560315295
7.21594684385382,4.233027234819711
7.235880398671097,4.274182498725695
7.2558139534883725,4.31699908530715
7.275747508305648,4.361265124695067
7.295681063122924,4.406768219170558
7.3156146179402,4.453296767805839
7.335548172757475,4.500641136091435
7.355481727574752,4.548594674792835
7.3754152823920265,4.596954595563963
7.395348837209303,4.645522713172354
7.415282392026579,4.694106065677579
7.435215946843854,4.74251742468483
7.45514950166113,4.790575708006385
7.475083056478406,4.838106306836492
7.495016611295681,4.884941338998103
7.514950166112956,4.930919839054488
7.5348837209302335,4.975887895179884
7.554817275747508,5.0196987417171295
7.574750830564784,5.062212815369626
7.5946843853820605,5.10329778201617
7.614617940199336,5.142828540227681
7.634551495016611,5.180687206720871
7.6544850498338874,5.216763088215253
7.674418604651163,5.250952643470835
7.694352159468439,5.283159438674081
7.714285714285715,5.313294098806645
7.73421926910299,5.341274257170339
7.754152823920266,5.367024504847062
7.774086378737542,5.390476341537162
7.794019933554818,5.411568128938251
7.813953488372093,5.430245047591626
7.83388704318937,5.4464590579294345
7.853820598006645,5.460168866096888
7.8737541528239205,5.471339894994517
7.893687707641197,5.479944260881161
7.913621262458472,5.485960755794541
7.9335548172757475,5.489374835978689
7.953488372093024,5.490178616452702
7.9734219269103,5.488370871809723
7.9933554817275745,5.48395704329535
8.013289036544851,5.476949252178076
8.033222591362128,5.4673663193872875
8.053156146179402,5.455233791354438
8.073089700996679,5.44058397194635
8.093023255813954,5.4234559603235795
8.11295681063123,5.403895694487333
8.132890365448505,5.381956000192157
8.152823920265782,5.357696644793824
8.172757475083056,5.3311843954686
8.192691029900331,5.302493081075402
8.21262458471761,5.271703656731648
8.232558139534884,5.238904269929948
8.252491694352159,5.204190326730472
8.272425249169435,5.167664556215305
8.292358803986712,5.129437070980133
8.312292358803987,5.089625420957897
8.332225913621263,5.048354637312584
8.352159468438538,5.005757262503908
8.372093023255815,4.961973361902278
8.392026578073091,4.917150511527405
8.411960132890366,4.871443755597848
8.43189368770764,4.825015526621804
8.451827242524917,4.778035519749296
8.471760797342194,4.730680512069799
8.491694352159469,4.683134116516512
8.511627906976745,4.635586459082728
8.53156146179402,4.588233767237707
8.551495016611296,4.541277856837273
8.571428571428573,4.494925504565688
8.591362126245848,4.449387693144243
8.611295681063122,4.404878717337247
8.6312292358804,4.361615140322465
8.651162790697676,4.319814592412351
8.67109634551495,4.279694407537193
8.691029900332227,4.241470097416375
8.710963455149502,4.2053536689736895
8.730897009966778,4.171551797236641
8.750830564784053,4.140263873530045
8.77076411960133,4.111679956938701
8.790697674418604,4.085978665348335
8.81063122923588,4.063325050332335
8.830564784053157,4.043868507091903
8.850498338870432,4.027740775893972
8.870431893687707,4.015054094320215
8.890365448504983,4.005899559584814
8.91029900332226,4.000345756829211
8.930232558139535,3.998437702552506
8.950166112956811,4.000196142389427
8.970099667774086,4.005617229825411
8.990033222591363,4.0146725979452285
9.00996677740864,4.027309820959551
9.029900332225914,4.043453247150322
9.049833887043189,4.06300517110022
9.069767441860467,4.085847301552254
9.089700996677742,4.111842472666544
9.109634551495017,4.140836541180488
9.129568106312293,4.1726604100951485
9.14950166112957,4.207132120774227
9.169435215946844,4.244058959289288
9.189368770764121,4.2832395288641205
9.209302325581396,4.324465747682107
9.22923588039867,4.3675247394538514
9.249169435215949,4.412200592397975
9.269102990033224,4.458275970175444
9.289036544850498,4.505533565473735
9.308970099667773,4.5537573931283895
9.328903654485051,4.602733924779017
9.348837209302326,4.652253071064076
9.368770764119601,4.702109020317989
9.388704318936878,4.752100944747208
9.408637873754152,4.802033586260892
9.428571428571429,4.851717734659571
9.448504983388705,4.900970610883106
9.46843853820598,4.949616167618995
9.488372093023255,4.997485318889117
9.508305647840533,5.044416109365688
9.528239202657808,5.09025383319469
9.548172757475083,5.1348511110900095
9.56810631229236,5.178067933450616
9.588039867109636,5.219771676279542
9.60797342192691,5.259837095770397
9.627906976744187,5.2981463065877215
9.647840531561462,5.3345887481092635
9.667774086378738,5.369061142223132
9.687707641196015,5.40146744567916
9.70764119601329,5.431718799477728
9.727574750830565,5.459733477335594
9.747508305647841,5.485436834889734
9.767441860465118,5.508761260981253
9.787375415282392,5.529646132094091
9.807308970099669,5.548037770801989
9.827242524916944,5.563889408895144
9.84717607973422,5.577161155709608
9.867109634551497,5.587819972062847
9.887043189368772,5.595839650102342
9.906976744186046,5.601200799297437
9.926910299003321,5.603890838742365
9.9468438538206,5.603903995888574
9.966777408637874,5.601241311781885
9.986710963455149,5.595910652842791
10.006644518272426,5.587926729192502
10.026578073089702,5.577311119490391
10.046511627906977,5.5640923022064035
10.066445182724253,5.548305693202997
10.086378737541528,5.529993689439892
10.106312292358805,5.509205718539088
10.126245847176081,5.4859982938524565
10.146179401993356,5.46043507455525
10.16611295681063,5.432586930141403
10.186046511627907,5.402532008514588
10.205980066445184,5.370355806647269
10.225913621262459,5.336151242511206
10.245847176079735,5.300018726660555
10.26578073089701,5.262066231465762
10.285714285714286,5.222409355544671
10.305647840531563,5.181171380410749
10.325581395348838,5.138483315749662
10.345514950166113,5.0944839290403845
10.36544850498339,5.0493197544524575
10.385382059800666,5.003145075078268
10.40531561461794,4.9561218716033695
10.425249169435217,4.908419729492145
10.445182724252492,4.860215695691151
10.465116279069768,4.8116940747609105
10.485049833887045,4.763046153284824
10.50498338870432,4.714469840433286
10.524916943521594,4.666169211762272
10.544850498338871,4.6183539427989375
10.564784053156147,4.571238618831229
10.584717607973422,4.525041907711478
10.604651162790697,4.479985583555482
10.624584717607974,4.436293391121884
10.64451827242525,4.39418974353779
10.664451827242525,4.353898250013311
10.684385382059801,4.315640075332407
10.704318936877076,4.279632139215982
10.724252491694353,4.246085171027021
10.74418604651163,4.21520164350213
10.764119601328904,4.187173617892895
10.784053156146179,4.162180541585084
10.803986710963457,4.140387047316216
10.823920265780732,4.121940809828869
10.843853820598007,4.106970520452559
10.863787375415283,4.095584042030356
10.88372093023256,4.087866805273731
10.903654485049834,4.083880502747263
10.923588039867111,4.083662128263829
