Time (s),Filtered Signal
0.0,-0.008904207622490192
0.03337028824833703,-0.0913947099752585
0.06674057649667406,-0.16334596448883454
0.10011086474501109,-0.22617336852156075
0.13348115299334812,-0.29632155763169393
0.16685144124168516,-0.397405483314617
0.20022172949002218,-0.5450579156732774
0.2335920177383592,-0.7331299489436974
0.26696230598669624,-0.9295247703477608
0.3003325942350333,-1.084902466685317
0.3337028824833703,-1.15073980920553
0.3670731707317073,-1.098454012012064
0.40044345898004435,-0.9308845800101233
0.4338137472283814,-0.6813092405530418
0.4671840354767184,-0.40108225460365265
0.5005543237250555,-0.14184787519875316
0.5339246119733925,0.06009801148921507
0.5672949002217295,0.19165932658282508
0.6006651884700666,0.2614264477020399
0.6340354767184035,0.291235958342599
0.6674057649667406,0.30545194556806393
0.7007760532150776,0.3224167426316102
0.7341463414634146,0.3505289445104997
0.7675166297117517,0.3889410584099721
0.8008869179600887,0.43113223185218996
0.8342572062084257,0.469108636603679
0.8676274944567628,0.4964789641994022
0.9009977827050998,0.5095873047757575
0.9343680709534368,0.5068341285965504
0.9677383592017739,0.48708632359290105
1.001108647450111,0.44850127102468906
1.0344789356984478,0.3888953993706093
1.067849223946785,0.30783275696555995
1.101219512195122,0.20926343969321023
1.134589800443459,0.10269028251377448
1.167960088691796,0.0012992534668488799
1.2013303769401331,-0.08275001552990638
1.23470066518847,-0.1436378941704717
1.268070953436807,-0.184668460247274
1.3014412416851442,-0.21642500171035223
1.3348115299334813,-0.2507155737350763
1.3681818181818182,-0.2932661342034221
1.4015521064301553,-0.33913654673430066
1.4349223946784924,-0.37365115382917996
1.4682926829268292,-0.3788267187454353
1.5016629711751663,-0.3423325562098674
1.5350332594235034,-0.2645061591915911
1.5684035476718403,-0.15971098021886437
1.6017738359201774,-0.0510377945161594
1.6351441241685145,0.0393096443006053
1.6685144124168514,0.09931925152417774
1.7018847006651885,0.13151103782904408
1.7352549889135256,0.14999666190460717
1.7686252771618625,0.17157167105026722
1.8019955654101996,0.20529460318400472
1.8353658536585367,0.2460212646814594
1.8687361419068735,0.27559484873012335
1.9021064301552106,0.27157498407240455
1.9354767184035477,0.21937676396916425
1.9688470066518848,0.12159643375673379
2.002217294900222,-0.0006123676834420486
2.035587583148559,-0.11534973336087392
2.0689578713968957,-0.19345445113509174
2.102328159645233,-0.2210924203298504
2.13569844789357,-0.2052152030770898
2.1690687361419068,-0.16923839974308078
2.202439024390244,-0.14120114098341713
2.235809312638581,-0.1403170733495258
2.269179600886918,-0.168383974216933
2.302549889135255,-0.20985602835884062
2.335920177383592,-0.2400299076402302
2.369290465631929,-0.2370185689942041
2.4026607538802662,-0.19177295395675592
2.436031042128603,-0.11182697439004036
2.46940133037694,-0.017719609469428976
2.5027716186252773,0.06559833719003505
2.536141906873614,0.11825255788729662
2.569512195121951,0.13203762668172567
2.6028824833702884,0.11218602691135499
2.6362527716186253,0.07453096302735301
2.6696230598669626,0.03968632557887239
2.7029933481152995,0.026283907596393978
2.7363636363636363,0.045109023221547355
2.7697339246119737,0.09559918194284382
2.8031042128603105,0.16570884541139588
2.8364745011086474,0.23541558741030025
2.8698447893569847,0.2830751428776433
2.9032150776053216,0.29271275679091585
2.9365853658536585,0.25970679045480877
2.969955654101996,0.19262519131430791
3.0033259423503327,0.11026842562011094
3.0366962305986696,0.03482574542407107
3.070066518847007,-0.01629683153670463
3.1034368070953438,-0.03674296491398092
3.1368070953436806,-0.03303018115617034
3.170177383592018,-0.02122105339128147
3.203547671840355,-0.01986856114779831
3.2369179600886917,-0.04213916236899231
3.270288248337029,-0.09021639065464404
3.303658536585366,-0.1540351131455064
3.337028824833703,-0.2146594570165466
3.37039911308204,-0.2509473480032772
3.403769401330377,-0.24711394986125443
3.437139689578714,-0.19863598409099772
3.470509977827051,-0.11454173220349338
3.503880266075388,-0.01525659673872526
3.537250554323725,0.07347668421112474
3.5706208425720622,0.12881936497079147
3.603991130820399,0.13856575660750423
3.637361419068736,0.10564277247009946
3.6707317073170733,0.047498795568343334
3.70410199556541,-0.009788943930348095
3.737472283813747,-0.04083770559291995
3.7708425720620844,-0.03036495434871781
3.8042128603104213,0.020919725572418467
3.8375831485587586,0.09631703335338686
3.8709534368070955,0.16916593874084643
3.9043237250554323,0.2126338327548672
3.9376940133037697,0.20945116950284481
3.9710643015521065,0.15775651525479012
4.004434589800444,0.07083419168798498
4.037804878048781,-0.028860329558772872
4.071175166297118,-0.11855680000773046
4.1045454545454545,-0.18299557231225397
4.137915742793791,-0.2181043929797555
4.171286031042128,-0.22961165644687095
4.204656319290466,-0.2280846748385925
4.238026607538803,-0.22326023043822288
4.27139689578714,-0.22032773339010622
4.304767184035477,-0.21935971573916568
4.3381374722838135,-0.21728512203979228
4.371507760532151,-0.21064243833872648
4.404878048780488,-0.19735764483433885
4.438248337028825,-0.17680737342264352
4.471618625277162,-0.1487287839637505
4.504988913525499,-0.11227065626661785
4.538359201773836,-0.06618572908482927
4.571729490022173,-0.010089309851290763
4.60509977827051,0.05432854805507107
4.638470066518847,0.12341059207954644
4.671840354767184,0.19328199123396925
4.705210643015521,0.26212735262017695
4.738580931263858,0.33107152237126414
4.771951219512196,0.4023538952264649
4.8053215077605325,0.4753220769121664
4.838691796008869,0.5426507632502736
4.872062084257206,0.5897227272126132
4.905432372505543,0.598678328377932
4.93880266075388,0.5559245848147155
4.972172949002218,0.4595088052985638
5.005543237250555,0.32225903728202976
5.0389135254988915,0.16846224251285488
5.072283813747228,0.025148612692615428
5.105654101995565,-0.08806754282743634
5.139024390243902,-0.16581074287311096
5.17239467849224,-0.21732042245328798
5.205764966740577,-0.26046259605860117
5.239135254988914,-0.3124322220193911
5.2725055432372505,-0.3814838760346912
5.305875831485587,-0.4631805201508659
5.339246119733925,-0.542331411188546
5.372616407982262,-0.5992458279185008
5.405986696230599,-0.6173020561521613
5.439356984478936,-0.5886801307889242
5.472727272727273,-0.5162878321575413
5.5060975609756095,-0.4117539585954638
5.539467849223947,-0.29101121372282757
5.572838137472284,-0.16974600412763605
5.606208425720621,-0.060590502974979144
5.639578713968958,0.027353729985615586
5.672949002217295,0.08754487381637494
5.706319290465632,0.11531628631711244
5.7396895787139695,0.10891478475128384
5.773059866962306,0.07234308683044174
5.806430155210643,0.018404630018038045
5.83980044345898,-0.030628229987965844
5.873170731707317,-0.046801883097790806
5.906541019955654,-0.004809675090168156
5.939911308203992,0.10767853709170619
5.9732815964523285,0.28208032969801633
6.006651884700665,0.4876292001143923
6.040022172949002,0.6786465545925722
6.073392461197339,0.8085125184451468
6.106762749445676,0.8452079668779816
6.140133037694014,0.7821513064884971
6.173503325942351,0.6397389723142407
6.2068736141906875,0.4568357653170944
6.240243902439024,0.2757166108777397
6.273614190687361,0.12670052537563697
6.306984478935698,0.018721572778106477
6.340354767184036,-0.060610732285798226
6.373725055432373,-0.13605045582632408
6.40709534368071,-0.23116032276644394
6.4404656319290465,-0.35613043838336494
6.473835920177383,-0.5019241117445425
6.507206208425721,-0.6426905962983555
6.540576496674058,-0.7449149191173701
6.573946784922395,-0.7793755670393142
6.607317073170732,-0.7314149986912699
6.640687361419069,-0.6061362395586206
6.674057649667406,-0.42719109664167876
6.707427937915743,-0.22998348930305385
6.74079822616408,-0.05171890629269278
6.774168514412417,0.07857281157674552
6.807538802660754,0.14717326664916522
6.840909090909091,0.1580964674903693
6.874279379157428,0.13030340630710163
6.9076496674057655,0.09065864881798655
6.941019955654102,0.06480944625808616
6.974390243902439,0.06890903120049624
7.007760532150776,0.10501422433775778
7.041130820399113,0.1618449574151822
7.07450110864745,0.22062405537825885
7.107871396895788,0.2636803143557615
7.1412416851441245,0.28233463505218903
7.174611973392461,0.28083965164150454
7.207982261640798,0.2746526405294773
7.241352549889135,0.2834262784951212
7.274722838137472,0.3210655298032536
7.30809312638581,0.38649152304026
7.341463414634147,0.4590348897542614
7.3748337028824835,0.5013979892685713
7.40820399113082,0.4707995667486661
7.441574279379157,0.3356462480849852
7.474944567627494,0.0919536098831043
7.508314855875832,-0.22768093076149803
7.541685144124169,-0.5581855161005737
7.575055432372506,-0.8201570812672089
7.6084257206208425,-0.9467358568605877
7.641796008869179,-0.9088913979313397
7.675166297117517,-0.7279150016806752
7.708536585365854,-0.46843808683295285
7.741906873614191,-0.21375178411212825
7.775277161862528,-0.03363288638346116
7.808647450110865,0.04120696582727799
7.842017738359202,0.026917939011858804
7.875388026607539,-0.02605794458500723
7.908758314855876,-0.05895400404948168
7.942128603104213,-0.03138913864068131
7.97549889135255,0.06302551584859856
8.008869179600888,0.19775287477357248
8.042239467849225,0.3285633288879434
8.075609756097561,0.41457173433995936
8.108980044345898,0.43535577890879024
8.142350332594235,0.39738587838439554
8.175720620842572,0.32827249335819664
8.209090909090909,0.2624671473553601
8.242461197339246,0.22516788074093838
8.275831485587583,0.22143197347098473
8.30920177383592,0.2350129248964628
8.342572062084257,0.23716522915591082
8.375942350332595,0.20124151298189255
8.409312638580932,0.11627255121846679
8.442682926829269,-0.006768787804106596
8.476053215077606,-0.13878272098524091
8.509423503325943,-0.24440133754713433
8.54279379157428,-0.2962665077593923
8.576164079822616,-0.28544436777680493
8.609534368070953,-0.22398992588434016
8.64290465631929,-0.13942783922623347
8.676274944567627,-0.06416078312052705
8.709645232815964,-0.02425904857148356
8.743015521064303,-0.0315841982771699
8.77638580931264,-0.08145707929146982
8.809756097560976,-0.15597244219137246
8.843126385809313,-0.2312288592298118
8.87649667405765,-0.28560611409989006
8.909866962305987,-0.30610002965325145
8.943237250554324,-0.29070767496231054
8.97660753880266,-0.2465770697589217
9.009977827050998,-0.1853106827721362
9.043348115299334,-0.11767378954672447
9.076718403547671,-0.0497531005654197
9.110088691796008,0.018295697202958733
9.143458980044347,0.0907781632409378
9.176829268292684,0.1729000816333453
9.21019955654102,0.2663174090581961
9.243569844789358,0.36547208374876794
9.276940133037694,0.45653218278463487
9.310310421286031,0.5201147699400754
9.343680709534368,0.5374210822677837
9.377050997782705,0.4975790463428386
9.410421286031042,0.4029761203278318
9.443791574279379,0.26995508408820157
9.477161862527716,0.12423090379361641
9.510532150776053,-0.007313599235008258
9.543902439024391,-0.1053636955704788
9.577272727272728,-0.1643059947764653
9.610643015521065,-0.19367711634711843
9.644013303769402,-0.21435728103988852
9.677383592017739,-0.2504583315279782
9.710753880266076,-0.3192318718313303
9.744124168514412,-0.42237915461824604
9.77749445676275,-0.5423845031307298
9.810864745011086,-0.6462903708885702
9.844235033259423,-0.6965665182511437
9.87760532150776,-0.6653265029781308
9.910975609756099,-0.545888671443405
9.944345898004435,-0.35617580632265244
9.977716186252772,-0.13194557976645108
10.01108647450111,0.08722994120303448
10.044456762749446,0.2726103941657981
10.077827050997783,0.41459995999059257
10.11119733924612,0.5211025054275097
10.144567627494457,0.6074921779434599
10.177937915742794,0.6839876235067045
10.21130820399113,0.7472272068107002
10.244678492239467,0.7802719292174022
10.278048780487804,0.7606808844066794
10.311419068736143,0.6722256677311247
10.34478935698448,0.514275622171303
10.378159645232817,0.3044366579146491
10.411529933481154,0.07357116500740939
10.44490022172949,-0.14412247478346024
10.478270509977827,-0.3214654115027646
10.511640798226164,-0.4450486910999024
10.545011086474501,-0.5163845367047462
10.578381374722838,-0.5478001857132393
10.611751662971175,-0.5550900882114358
10.645121951219512,-0.5497409366138949
10.67849223946785,-0.5336389615184822
10.711862527716187,-0.4985518842581013
10.745232815964524,-0.431107893888089
10.778603104212861,-0.3215777799235488
10.811973392461198,-0.17247999373111755
10.845343680709535,-0.002383303018678224
10.878713968957872,0.15782743290904774
10.912084257206208,0.27522389307343925
10.945454545454545,0.3271399401783089
10.978824833702882,0.3098084228932227
11.012195121951219,0.23942553549792958
11.045565410199556,0.1454323674457689
11.078935698447895,0.059329433857770994
11.112305986696231,0.003975968483156602
11.145676274944568,-0.01244035342063644
11.179046563192905,0.0039706699496953315
11.212416851441242,0.03849547146519288
11.245787139689579,0.07574687662666904
11.279157427937916,0.10620086821344096
11.312527716186253,0.12864159933917424
11.34589800443459,0.14778679143969117
11.379268292682926,0.1686253920962615
11.412638580931263,0.1906503234527227
11.4460088691796,0.205416698544239
11.479379157427939,0.19936250125576047
11.512749445676276,0.16103539155130644
11.546119733924613,0.08904383354946109
11.57949002217295,-0.004151831707872381
11.612860310421286,-0.09593563976908767
11.646230598669623,-0.1640472138633728
11.67960088691796,-0.1988062913862375
11.712971175166297,-0.20987167602985504
11.746341463414634,-0.2224304339202808
11.77971175166297,-0.26332085517418663
11.813082039911308,-0.3437146308484368
11.846452328159646,-0.4478891781516481
11.879822616407983,-0.5352247433340103
11.91319290465632,-0.555879009589158
11.946563192904657,-0.4732629685325848
11.979933481152994,-0.28257221605313065
12.01330376940133,-0.01635050092357353
12.046674057649668,0.26564952750261106
12.080044345898004,0.49764639137748806
12.113414634146341,0.6306919351929232
12.146784922394678,0.647918792410734
12.180155210643015,0.5670875669071624
12.213525498891352,0.4311095479227451
12.24689578713969,0.2916403474521566
12.280266075388028,0.1923014618796169
12.313636363636364,0.15677528030701773
12.347006651884701,0.18430721245586162
12.380376940133038,0.25250655620735446
12.413747228381375,0.32556943757659224
12.447117516629712,0.3652160351428826
12.480487804878049,0.34146805451574525
12.513858093126386,0.24069209068141925
12.547228381374723,0.06907405120307693
12.58059866962306,-0.1491522977829016
12.613968957871396,-0.3780267928377158
12.647339246119735,-0.578845968755
12.680709534368072,-0.7193112546140014
12.714079822616409,-0.7804977111649298
12.747450110864746,-0.7600663857517262
12.780820399113082,-0.6712027465087348
12.81419068736142,-0.5378351089506006
12.847560975609756,-0.3876022996068551
12.880931263858093,-0.2446321123299058
12.91430155210643,-0.12423463445204823
12.947671840354767,-0.03096166888071144
12.981042128603104,0.039720522192179
13.014412416851442,0.0971887795909059
13.04778270509978,0.1507077236479955
13.081152993348116,0.2056113032554869
13.114523281596453,0.261729083240838
13.14789356984479,0.3141433165354584
13.181263858093127,0.3555792543871258
13.214634146341464,0.37942789062535787
13.2480044345898,0.38245142978792485
13.281374722838137,0.36636886279217734
13.314745011086474,0.3376941948464128
13.348115299334811,0.3055876264930638
13.381485587583148,0.2782301175136698
13.414855875831487,0.25911839328521274
13.448226164079824,0.24510451063110508
13.48159645232816,0.22744569576953597
13.514966740576497,0.19565566124785497
13.548337028824834,0.14234431358472324
13.581707317073171,0.0665416171276617
13.615077605321508,-0.026212474756514635
13.648447893569845,-0.12684191761448083
13.681818181818182,-0.22675123324845586
13.715188470066519,-0.3202396290243843
13.748558758314855,-0.40373714086202755
13.781929046563192,-0.472474751824119
13.815299334811531,-0.5171968355280273
13.848669623059868,-0.5240215808259168
13.882039911308205,-0.4790058016933881
13.915410199556542,-0.3760163160124074
13.948780487804878,-0.22381299180773398
13.982150776053215,-0.04764851641844413
14.015521064301552,0.11698935660357863
14.048891352549889,0.23661261690675675
14.082261640798226,0.29233639604185463
14.115631929046563,0.28648772939358536
14.1490022172949,0.2398047592911454
14.182372505543238,0.18083392158411402
14.215742793791575,0.13322281698596566
14.249113082039912,0.10733428470498507
14.282483370288249,0.0996835940813056
14.315853658536586,0.09909071699079038
14.349223946784923,0.09499402674613422
14.38259423503326,0.08296990725568411
14.415964523281596,0.06498885045625602
14.449334811529933,0.045470451297983584
14.48270509977827,0.026579812727488588
14.516075388026607,0.006197126362165754
14.549445676274944,-0.02014345215095681
14.582815964523283,-0.054864452632482734
14.61618625277162,-0.09475889241755223
14.649556541019956,-0.13102292517193834
14.682926829268293,-0.15335304569175837
14.71629711751663,-0.15576504973295593
14.749667405764967,-0.1404613076941804
14.783037694013304,-0.11716438341146021
14.81640798226164,-0.09816791407914145
14.849778270509978,-0.09203013426127425
14.883148558758315,-0.09956251447400702
14.916518847006651,-0.11412828707504588
14.949889135254988,-0.12547903484683998
14.983259423503327,-0.12436066192253778
15.016629711751664,-0.10518179306290928
15.05,-0.06590219612945955
15.083370288248338,-0.006463258785901724
15.116740576496674,0.0720481214270568
15.150110864745011,0.16627565393502997
15.183481152993348,0.26825146414122575
15.216851441241685,0.3640309906831206
15.250221729490022,0.43534597427389404
15.283592017738359,0.4646151989164279
15.316962305986696,0.44151089080613903
15.350332594235034,0.3680609148683018
15.383702882483371,0.2597135706324457
15.417073170731708,0.14160846609241878
15.450443458980045,0.04141453212341568
15.483813747228382,-0.018622891915163784
15.517184035476719,-0.027860709186457402
15.550554323725056,0.00980368061403281
15.583924611973393,0.0764365421670399
15.61729490022173,0.14351328135368
15.650665188470066,0.17775463956943346
15.684035476718403,0.1488793717657131
15.71740576496674,0.03837606790738238
15.750776053215079,-0.15262174123715494
15.784146341463416,-0.3992431017535545
15.817516629711752,-0.6553972357330392
15.85088691796009,-0.8640414630235749
15.884257206208426,-0.9733215249295537
15.917627494456763,-0.9535698406866205
15.9509977827051,-0.8085410549625041
15.984368070953437,-0.5754750739433432
16.017738359201775,-0.3126972780728184
16.05110864745011,-0.07896993985446249
16.08447893569845,0.08698043579133448
16.117849223946784,0.17787300845799517
16.151219512195123,0.21528313377426606
16.184589800443458,0.2347110652437488
16.217960088691797,0.2658640810755447
16.251330376940132,0.3178523034337227
16.28470066518847,0.3762976337961767
16.31807095343681,0.4132255527959917
16.351441241685144,0.40418937505762975
16.384811529933483,0.34359516217787844
16.418181818181818,0.25033922831396493
16.451552106430157,0.16094553460810476
16.48492239467849,0.11371102465733955
16.51829268292683,0.13168794658225608
16.551662971175165,0.21257050886706053
16.585033259423504,0.3298339889674309
16.61840354767184,0.44392404060555946
16.651773835920178,0.5177752740775889
16.685144124168513,0.5295322846296865
16.71851441241685,0.47741276548995176
16.75188470066519,0.37584528530080086
16.785254988913525,0.24610722931677942
16.818625277161864,0.10673418795774751
16.8519955654102,-0.031772670007093044
16.885365853658538,-0.16624270343309905
16.918736141906873,-0.29570994130681705
16.95210643015521,-0.41553051051630147
16.985476718403547,-0.514487103351521
17.018847006651885,-0.5768853865737441
17.05221729490022,-0.5890106280259916
17.08558758314856,-0.5469402380573071
17.118957871396898,-0.4616146750572536
17.152328159645233,-0.3578408638900619
17.18569844789357,-0.2664374309138364
17.219068736141907,-0.21209643975402478
17.252439024390245,-0.20217457840037087
