Time (s),Filtered Signal
0.0,-0.00809948854777944
0.03337028824833703,-0.5403816236416414
0.06674057649667406,-0.9459221598153057
0.10011086474501109,-1.1509590127139784
0.13348115299334812,-1.160042745372256
0.16685144124168516,-1.0416465604675578
0.20022172949002218,-0.8840365733160411
0.2335920177383592,-0.7470955130385508
0.26696230598669624,-0.6364243500493288
0.3003325942350333,-0.5118434964258999
0.3337028824833703,-0.3222308463073749
0.3670731707317073,-0.04439301748461042
0.40044345898004435,0.2968051798774895
0.4338137472283814,0.6372364253738406
0.4671840354767184,0.9040801872078303
0.5005543237250555,1.0493943445679719
0.5339246119733925,1.0681916709106287
0.5672949002217295,0.9932444537050817
0.6006651884700666,0.8725501873522116
0.6340354767184035,0.7438156960074226
0.6674057649667406,0.6194957805519178
0.7007760532150776,0.4879453829751351
0.7341463414634146,0.3269250900509821
0.7675166297117517,0.12037969581185018
0.8008869179600887,-0.13004966697677015
0.8342572062084257,-0.4027390758855816
0.8676274944567628,-0.6618586682717084
0.9009977827050998,-0.8671478187167941
0.9343680709534368,-0.9836469679083392
0.9677383592017739,-0.9891438010528418
1.001108647450111,-0.8788526271158604
1.0344789356984478,-0.6674006900077706
1.067849223946785,-0.3876893359164003
1.101219512195122,-0.08576819521473568
1.134589800443459,0.18841564848604275
1.167960088691796,0.3926283194326417
1.2013303769401331,0.5026478281283517
1.23470066518847,0.5172062655573111
1.268070953436807,0.4553953624378043
1.3014412416851442,0.3476879734930118
1.3348115299334813,0.224693511942083
1.3681818181818182,0.10862616368201962
1.4015521064301553,0.010702595512122456
1.4349223946784924,-0.06566716725279742
1.4682926829268292,-0.11905111681618848
1.5016629711751663,-0.14574065573521336
1.5350332594235034,-0.1399686815062309
1.5684035476718403,-0.09872124228445361
1.6017738359201774,-0.02853985123506894
1.6351441241685145,0.04972192816102847
1.6685144124168514,0.1018904725720268
1.7018847006651885,0.08899234015693284
1.7352549889135256,-0.017932534220279787
1.7686252771618625,-0.22133568869626136
1.8019955654101996,-0.4861457972729321
1.8353658536585367,-0.741475077913193
1.8687361419068735,-0.8985538970939362
1.9021064301552106,-0.8812471240583171
1.9354767184035477,-0.6579049626232037
1.9688470066518848,-0.25983612197480527
2.002217294900222,0.22428242903330367
2.035587583148559,0.677989521147003
2.0689578713968957,0.9984244504131619
2.102328159645233,1.1308767479594637
2.13569844789357,1.0812544533727149
2.1690687361419068,0.9027391266239775
2.202439024390244,0.6659089737867055
2.235809312638581,0.42876461540298944
2.269179600886918,0.22082602505736135
2.302549889135255,0.04593134417364373
2.335920177383592,-0.10232861356645928
2.369290465631929,-0.22438442287252494
2.4026607538802662,-0.30787319347541686
2.436031042128603,-0.33339179973388583
2.46940133037694,-0.2882057849770975
2.5027716186252773,-0.17910100465452092
2.536141906873614,-0.036590852009935726
2.569512195121951,0.09239106280743335
2.6028824833702884,0.16039303442115577
2.6362527716186253,0.13717831066874328
2.6696230598669626,0.021950104180336515
2.7029933481152995,-0.15490837510145952
2.7363636363636363,-0.3415497269326006
2.7697339246119737,-0.48260422640047035
2.8031042128603105,-0.5389532335758952
2.8364745011086474,-0.5018127969508704
2.8698447893569847,-0.39519904771586833
2.9032150776053216,-0.26509773037744666
2.9365853658536585,-0.15929552118976736
2.969955654101996,-0.10645426030232238
3.0033259423503327,-0.10408303190892697
3.0366962305986696,-0.12142532091154706
3.070066518847007,-0.11622166140893847
3.1034368070953438,-0.05727717803180178
3.1368070953436806,0.058423677989639974
3.170177383592018,0.20271984868518883
3.203547671840355,0.32889949527356704
3.2369179600886917,0.39350492114875224
3.270288248337029,0.3763524440701831
3.303658536585366,0.289019926134041
3.337028824833703,0.16819132768340841
3.37039911308204,0.05793122496421093
3.403769401330377,-0.009816125113563159
3.437139689578714,-0.02696129482868796
3.470509977827051,-0.008238117774267351
3.503880266075388,0.020861878322798066
3.537250554323725,0.04005610352570617
3.5706208425720622,0.04554261815241995
3.603991130820399,0.050927157456614566
3.637361419068736,0.077772594592327
3.6707317073170733,0.14108142895846612
3.70410199556541,0.23746121750567498
3.737472283813747,0.3422058839295438
3.7708425720620844,0.4169946000839573
3.8042128603104213,0.42472397762254716
3.8375831485587586,0.3446932913489476
3.8709534368070955,0.18142848773045278
3.9043237250554323,-0.03639521533638293
3.9376940133037697,-0.26591590773137075
3.9710643015521065,-0.4642100113483654
4.004434589800444,-0.6006203841392479
4.037804878048781,-0.6628602826167422
4.071175166297118,-0.6557373900971536
4.1045454545454545,-0.5946213411041629
4.137915742793791,-0.49753741499029014
4.171286031042128,-0.3794086817400398
4.204656319290466,-0.2500203180285032
4.238026607538803,-0.11502450452432336
4.27139689578714,0.021972887035152055
4.304767184035477,0.1579385653937672
4.3381374722838135,0.28990469888273285
4.371507760532151,0.414525442486953
4.404878048780488,0.5266677862007175
4.438248337028825,0.6171638725152058
4.471618625277162,0.6713822123974629
4.504988913525499,0.67083452198847
4.538359201773836,0.5988575433092078
4.571729490022173,0.44896596148576556
4.60509977827051,0.23224398839047913
4.638470066518847,-0.020357114835608908
4.671840354767184,-0.2631919762030854
4.705210643015521,-0.4477274482243112
4.738580931263858,-0.5370904337343851
4.771951219512196,-0.5180529268774109
4.8053215077605325,-0.40597276910179586
4.838691796008869,-0.2407897620281337
4.872062084257206,-0.07534926363007259
4.905432372505543,0.04015161835098101
4.93880266075388,0.07273526347575737
4.972172949002218,0.015925533877300255
5.005543237250555,-0.10880517429723051
5.0389135254988915,-0.25869912772237513
5.072283813747228,-0.38263435929493933
5.105654101995565,-0.43686988970158597
5.139024390243902,-0.3993222339578565
5.17239467849224,-0.2780563295788531
5.205764966740577,-0.11065507337915392
5.239135254988914,0.04671839043458886
5.2725055432372505,0.13853829295289932
5.305875831485587,0.13180843539612205
5.339246119733925,0.03247626218509703
5.372616407982262,-0.1116085205704229
5.405986696230599,-0.22521680927659946
5.439356984478936,-0.2346734279519372
5.472727272727273,-0.10059293669499798
5.5060975609756095,0.16024800699546812
5.539467849223947,0.4760166455327099
5.572838137472284,0.7466724940257278
5.606208425720621,0.8868158177817215
5.639578713968958,0.8653300372835631
5.672949002217295,0.7218089557335668
5.706319290465632,0.5493050262345732
5.7396895787139695,0.449052563561092
5.773059866962306,0.47770447089748697
5.806430155210643,0.6132976313919128
5.83980044345898,0.7587951565575557
5.873170731707317,0.7843685889460875
5.906541019955654,0.5899640503919282
5.939911308203992,0.15820718925761015
5.9732815964523285,-0.42911202569097445
6.006651884700665,-1.0206285508625768
6.040022172949002,-1.4579344059314827
6.073392461197339,-1.6412243638871473
6.106762749445676,-1.5665992327351888
6.140133037694014,-1.3180631891664532
6.173503325942351,-1.0201972066492655
6.2068736141906875,-0.776757999510714
6.240243902439024,-0.626166841079727
6.273614190687361,-0.5346108020284933
6.306984478935698,-0.42725367651932455
6.340354767184036,-0.23865451640107235
6.373725055432373,0.04523828725720965
6.40709534368071,0.3752912965841162
6.4404656319290465,0.6626174798576563
6.473835920177383,0.8237258750704487
6.507206208425721,0.8231652563979451
6.540576496674058,0.6916983767987859
6.573946784922395,0.5114695927749695
6.607317073170732,0.3767158714179514
6.640687361419069,0.35035791032916686
6.674057649667406,0.43763091931651726
6.707427937915743,0.5881124225020102
6.74079822616408,0.7228229087397392
6.774168514412417,0.7713166485945605
6.807538802660754,0.7005007421736882
6.840909090909091,0.5230498558683991
6.874279379157428,0.28460027461837284
6.9076496674057655,0.039113390960845464
6.941019955654102,-0.17403887736116555
6.974390243902439,-0.34081106277097667
7.007760532150776,-0.46834823592115915
7.041130820399113,-0.5711599852472246
7.07450110864745,-0.6568346209295104
7.107871396895788,-0.719260109188867
7.1412416851441245,-0.7421242767956762
7.174611973392461,-0.7095258191954475
7.207982261640798,-0.6170047063118561
7.241352549889135,-0.47673530673631725
7.274722838137472,-0.3143088299079747
7.30809312638581,-0.15911191677827766
7.341463414634147,-0.03325302102539088
7.3748337028824835,0.05595981004401842
7.40820399113082,0.11726912555717968
7.441574279379157,0.1706509272249373
7.474944567627494,0.23867573552906168
7.508314855875832,0.33698199367127124
7.541685144124169,0.46662016146396934
7.575055432372506,0.6106041206169324
7.6084257206208425,0.7363691979096767
7.641796008869179,0.8044914595800648
7.675166297117517,0.7817492775807686
7.708536585365854,0.6541693197352321
7.741906873614191,0.4346429163649372
7.775277161862528,0.16122365054273424
7.808647450110865,-0.11396614065315279
7.842017738359202,-0.34105736263553477
7.875388026607539,-0.4874924111250774
7.908758314855876,-0.5461534461055324
7.942128603104213,-0.5342793566546594
7.97549889135255,-0.4848618448320994
8.008869179600888,-0.4347165227077762
8.042239467849225,-0.41353635839187614
8.075609756097561,-0.43652812543421443
8.108980044345898,-0.5011884383345268
8.142350332594235,-0.5876846596623975
8.175720620842572,-0.6624383176209993
8.209090909090909,-0.68507692315349
8.242461197339246,-0.6187836160001711
8.275831485587583,-0.44267038310871587
8.30920177383592,-0.16268182530690564
8.342572062084257,0.1838409708014402
8.375942350332595,0.5339566480000039
8.409312638580932,0.8157733598872801
8.442682926829269,0.9714392275552249
8.476053215077606,0.9779608445487245
8.509423503325943,0.8568149137012488
8.54279379157428,0.66717161767119
8.576164079822616,0.48432880557906105
8.609534368070953,0.37149648797705537
8.64290465631929,0.35618843993413574
8.676274944567627,0.42067944274675184
8.709645232815964,0.5101669417529044
8.743015521064303,0.5551097711789683
8.77638580931264,0.49875600550185767
8.809756097560976,0.3191904726663534
8.843126385809313,0.03773968707425553
8.87649667405765,-0.2889074555392667
8.909866962305987,-0.5891706981089896
8.943237250554324,-0.8012599120663954
8.97660753880266,-0.8925022179121969
9.009977827050998,-0.8665336739488794
9.043348115299334,-0.7570402602539903
9.076718403547671,-0.612327894826427
9.110088691796008,-0.4781350423331477
9.143458980044347,-0.38548567468066364
9.176829268292684,-0.34669905862972744
9.21019955654102,-0.3581763871202635
9.243569844789358,-0.40579668908319766
9.276940133037694,-0.46901124399209604
9.310310421286031,-0.5224294046992609
9.343680709534368,-0.5367709217023914
9.377050997782705,-0.48234054019566097
9.410421286031042,-0.336724692803094
9.443791574279379,-0.09506232475400359
9.477161862527716,0.22188881868924826
9.510532150776053,0.5674187630412543
9.543902439024391,0.8792010531853685
9.577272727272728,1.0982158334078211
9.610643015521065,1.1892244036433968
9.644013303769402,1.1537110188084638
9.677383592017739,1.0286603833437251
9.710753880266076,0.8707382887616014
9.744124168514412,0.7324239856198684
9.77749445676275,0.6407323643249919
9.810864745011086,0.5880702197561569
9.844235033259423,0.5389802594779343
9.87760532150776,0.44905287333446764
9.910975609756099,0.28691176665290086
9.944345898004435,0.04936955856351547
9.977716186252772,-0.2363752852633711
10.01108647450111,-0.5233994278898799
10.044456762749446,-0.7628369289276831
10.077827050997783,-0.9205289946064774
10.11119733924612,-0.9857961842145896
10.144567627494457,-0.9700441117624905
10.177937915742794,-0.8978430219975785
10.21130820399113,-0.7960019191057117
10.244678492239467,-0.6857865377221901
10.278048780487804,-0.5804914155843941
10.311419068736143,-0.48709403327877043
10.34478935698448,-0.4087805362689064
10.378159645232817,-0.3456666192151987
10.411529933481154,-0.2933603917143017
10.44490022172949,-0.2413735942127022
10.478270509977827,-0.17412327415334783
10.511640798226164,-0.07585677981463877
10.545011086474501,0.06181621332646658
10.578381374722838,0.23328898365821915
10.611751662971175,0.4170576307402598
10.645121951219512,0.5805964313623322
10.67849223946785,0.6909992450647734
10.711862527716187,0.7274972232617499
10.745232815964524,0.6905413319521293
10.778603104212861,0.602917012057978
10.811973392461198,0.5013288103091768
10.845343680709535,0.4211384443269238
10.878713968957872,0.38067469871424064
10.912084257206208,0.37269388713226503
10.945454545454545,0.36796502098628586
10.978824833702882,0.3303055937413986
11.012195121951219,0.23635343619040272
11.045565410199556,0.09022377420203302
11.078935698447895,-0.07499099833303532
11.112305986696231,-0.2107112060201863
11.145676274944568,-0.2755779104572035
11.179046563192905,-0.2565279518149586
11.212416851441242,-0.17756119791443303
11.245787139689579,-0.09106023772691016
11.279157427937916,-0.054840938255301674
11.312527716186253,-0.105225678977069
11.34589800443459,-0.23884252913545098
11.379268292682926,-0.4122304964076061
11.412638580931263,-0.5602046340551403
11.4460088691796,-0.6250504889873426
11.479379157427939,-0.5831779141586806
11.512749445676276,-0.4565278276633976
11.546119733924613,-0.30266572586294177
11.57949002217295,-0.18726576790512978
11.612860310421286,-0.15124973570001393
11.646230598669623,-0.1881863490707559
11.67960088691796,-0.24374505111376474
11.712971175166297,-0.23923330798501333
11.746341463414634,-0.10969900314788206
11.77971175166297,0.16073216373650726
11.813082039911308,0.5234861299032803
11.846452328159646,0.8787771836340319
11.879822616407983,1.1129196798844065
11.91319290465632,1.1437574688766865
11.946563192904657,0.954214541778503
11.979933481152994,0.5993095858423486
12.01330376940133,0.1840400804525616
12.046674057649668,-0.1775474493202547
12.080044345898004,-0.4040851030995164
12.113414634146341,-0.4721671430876207
12.146784922394678,-0.41627584143542123
12.180155210643015,-0.30599674653900916
12.213525498891352,-0.21254747971906182
12.24689578713969,-0.17988932117904208
12.280266075388028,-0.21194802844298824
12.313636363636364,-0.2790737449700028
12.347006651884701,-0.3380280078249263
12.380376940133038,-0.35452268846006774
12.413747228381375,-0.3176551902782401
12.447117516629712,-0.24072313563381048
12.480487804878049,-0.14997486878828034
12.513858093126386,-0.06842900841795331
12.547228381374723,-0.0036004778111491287
12.58059866962306,0.05463609249521094
12.613968957871396,0.1252632662041953
12.647339246119735,0.2212974804826926
12.680709534368072,0.33702324302753645
12.714079822616409,0.4446134246074842
12.747450110864746,0.5029951399313302
12.780820399113082,0.4757124894249768
12.81419068736142,0.3497248587427744
12.847560975609756,0.14597834263919698
12.880931263858093,-0.08411711600088884
12.91430155210643,-0.27590322257823396
12.947671840354767,-0.3756019297193339
12.981042128603104,-0.3610690345896039
13.014412416851442,-0.2499843865639827
13.04778270509978,-0.0916762705041417
13.081152993348116,0.0538911690520531
13.114523281596453,0.14054747559965805
13.14789356984479,0.15275013939132198
13.181263858093127,0.10741600050180633
13.214634146341464,0.04055090704610184
13.2480044345898,-0.01411276960161993
13.281374722838137,-0.04329417049461255
13.314745011086474,-0.059581563606158475
13.348115299334811,-0.0911421349333701
13.381485587583148,-0.161262126652158
13.414855875831487,-0.2691741628538554
13.448226164079824,-0.38355362754725464
13.48159645232816,-0.4535988231415982
13.514966740576497,-0.43294595438181516
13.548337028824834,-0.3041009103742491
13.581707317073171,-0.09004722531147388
13.615077605321508,0.15387982845673467
13.648447893569845,0.3642615383994385
13.681818181818182,0.4976685187351764
13.715188470066519,0.5480897827424126
13.748558758314855,0.5449155220616665
13.781929046563192,0.5329081730700801
13.815299334811531,0.5449110891480968
13.848669623059868,0.5816324549537696
13.882039911308205,0.609036074081942
13.915410199556542,0.5747972598456952
13.948780487804878,0.4356378463355877
13.982150776053215,0.18200076397595527
14.015521064301552,-0.15195934426695995
14.048891352549889,-0.49771788824967067
14.082261640798226,-0.7764776527033008
14.115631929046563,-0.9270951315645809
14.1490022172949,-0.9262289096621174
14.182372505543238,-0.7936280070755585
14.215742793791575,-0.582247983746077
14.249113082039912,-0.3585160849419725
14.282483370288249,-0.18058065931679235
14.315853658536586,-0.08170521977366992
14.349223946784923,-0.06326367211540038
14.38259423503326,-0.09841350039280662
14.415964523281596,-0.14440282319066
14.449334811529933,-0.15912762388298995
14.48270509977827,-0.11639656248312656
14.516075388026607,-0.014776379508246038
14.549445676274944,0.12296982983110695
14.582815964523283,0.2594516102361512
14.61618625277162,0.357390810690318
14.649556541019956,0.3936962691505452
14.682926829268293,0.36745410864606126
14.71629711751663,0.29908143682547134
14.749667405764967,0.2215280547986951
14.783037694013304,0.16735119273053353
14.81640798226164,0.15661905354958877
14.849778270509978,0.18982335182594207
14.883148558758315,0.2479608514839423
14.916518847006651,0.29951472216922426
14.949889135254988,0.3118940336604522
14.983259423503327,0.26349121325560415
15.016629711751664,0.15231155949308892
15.05,-0.00174289634709755
15.083370288248338,-0.16175466157304036
15.116740576496674,-0.2843775376931434
15.150110864745011,-0.3329964097389598
15.183481152993348,-0.2896381237425237
15.216851441241685,-0.16205254275879205
15.250221729490022,0.016602586779187474
15.283592017738359,0.19626446486264962
15.316962305986696,0.3249514694401453
15.350332594235034,0.3658226505664609
15.383702882483371,0.3101506985582673
15.417073170731708,0.18058739065644222
15.450443458980045,0.022441747807408444
15.483813747228382,-0.11421593634335177
15.517184035476719,-0.19436275167238073
15.550554323725056,-0.2111617806953269
15.583924611973393,-0.1866692903516124
15.61729490022173,-0.1600793037356957
15.650665188470066,-0.16920809806617657
15.684035476718403,-0.23371139137479302
15.71740576496674,-0.3470728637866649
15.750776053215079,-0.47975878894725965
15.784146341463416,-0.5907956387013958
15.817516629711752,-0.6420480095922297
15.85088691796009,-0.6097142897703306
15.884257206208426,-0.49009174455966364
15.917627494456763,-0.29951003385420727
15.9509977827051,-0.06992778545577982
15.984368070953437,0.15819936783202546
16.017738359201775,0.3446341460252865
16.05110864745011,0.45851495440629414
16.08447893569845,0.48613146222020376
16.117849223946784,0.4348633528379097
16.151219512195123,0.3312540579244319
16.184589800443458,0.21302504001822473
16.217960088691797,0.11735888109570357
16.251330376940132,0.06962027573464959
16.28470066518847,0.0767186499243471
16.31807095343681,0.12740203572030862
16.351441241685144,0.19884161495878525
16.384811529933483,0.2663597174987722
16.418181818181818,0.31219577759311035
16.451552106430157,0.3300603189993165
16.48492239467849,0.3243138307341646
16.51829268292683,0.30492046412222296
16.551662971175165,0.2809239424824911
16.585033259423504,0.2555140804286506
16.61840354767184,0.22476329436050071
16.651773835920178,0.1803111317365777
16.685144124168513,0.11449484134277713
16.71851441241685,0.025441231585544927
16.75188470066519,-0.08021730976226416
16.785254988913525,-0.18827339248303934
16.818625277161864,-0.28133355073212507
16.8519955654102,-0.3451410478153963
16.885365853658538,-0.37444966858558404
16.918736141906873,-0.37593026393541873
16.95210643015521,-0.3663564975388627
16.985476718403547,-0.36595833850869275
17.018847006651885,-0.38892876410099364
17.05221729490022,-0.43479414387637194
17.08558758314856,-0.4847963617774689
17.118957871396898,-0.5060606299495612
17.152328159645233,-0.4633670253157683
17.18569844789357,-0.3348371303331786
17.219068736141907,-0.12530285776881517
17.252439024390245,0.1290723595310539
17.28580931263858,0.36863448122231557
17.31917960088692,0.5293320670189734
