Time (s),Filtered Signal
0.0,0.0022657578978137723
0.03337028824833703,0.22313805588991403
0.06674057649667406,0.4069199072179068
0.10011086474501109,0.5317652746399781
0.13348115299334812,0.599851900511746
0.16685144124168516,0.6364968496777555
0.20022172949002218,0.6790476391121383
0.2335920177383592,0.7594257228557538
0.26696230598669624,0.8872547602603577
0.3003325942350333,1.0409987692662634
0.3337028824833703,1.171869122578188
0.3670731707317073,1.2202224489992752
0.40044345898004435,1.1387602100235987
0.4338137472283814,0.9134166629862593
0.4671840354767184,0.5730507639729209
0.5005543237250555,0.18312335470907617
0.5339246119733925,-0.17505837348852013
0.5672949002217295,-0.43188033064845033
0.6006651884700666,-0.5530452246470288
0.6340354767184035,-0.5499535832038911
0.6674057649667406,-0.4727529093893813
0.7007760532150776,-0.38885251975517127
0.7341463414634146,-0.35542739542757296
0.7675166297117517,-0.39677734528488445
0.8008869179600887,-0.4955069269452443
0.8342572062084257,-0.6010461351028086
0.8676274944567628,-0.6520408621423385
0.9009977827050998,-0.6033189651361052
0.9343680709534368,-0.4460160798757486
0.9677383592017739,-0.21225782386339664
1.001108647450111,0.037413012314158785
1.0344789356984478,0.23795727110672765
1.067849223946785,0.34430689118776325
1.101219512195122,0.3459028571082232
1.134589800443459,0.2660391637509936
1.167960088691796,0.1480239017378639
1.2013303769401331,0.035832980281844624
1.23470066518847,-0.0415938223721914
1.268070953436807,-0.07628868800875091
1.3014412416851442,-0.07690763041521274
1.3348115299334813,-0.05872553450523005
1.3681818181818182,-0.03464175805696737
1.4015521064301553,-0.011947585501424208
1.4349223946784924,0.004856489366078238
1.4682926829268292,0.009056849150134598
1.5016629711751663,-0.010310031719617842
1.5350332594235034,-0.06460169451160562
1.5684035476718403,-0.1571170686890347
1.6017738359201774,-0.27495264756269777
1.6351441241685145,-0.386961909940517
1.6685144124168514,-0.45118430312968666
1.7018847006651885,-0.4304132499059575
1.7352549889135256,-0.30981236599845735
1.7686252771618625,-0.10816120806448112
1.8019955654101996,0.12395359113821484
1.8353658536585367,0.3201942143044074
1.8687361419068735,0.42316414093767696
1.9021064301552106,0.4074685211736344
1.9354767184035477,0.29090512531505985
1.9688470066518848,0.1284528584172382
2.002217294900222,-0.008767700589660771
2.035587583148559,-0.060813794484703414
2.0689578713968957,-0.0011955187106544205
2.102328159645233,0.15469023194447803
2.13569844789357,0.3575040835855496
2.1690687361419068,0.5439120792598575
2.202439024390244,0.6597102662112576
2.235809312638581,0.6769325645428376
2.269179600886918,0.5991182199823802
2.302549889135255,0.4542364433272638
2.335920177383592,0.2797624648733846
2.369290465631929,0.10714124800390956
2.4026607538802662,-0.04761435720331843
2.436031042128603,-0.1838465286580513
2.46940133037694,-0.3081174695198995
2.5027716186252773,-0.4233605406221404
2.536141906873614,-0.5218326900284774
2.569512195121951,-0.586139710496636
2.6028824833702884,-0.597998723973297
2.6362527716186253,-0.5498314172258943
2.6696230598669626,-0.4523233274138772
2.7029933481152995,-0.33302510300139
2.7363636363636363,-0.22598432726103335
2.7697339246119737,-0.15748288513702471
2.8031042128603105,-0.13517321119767314
2.8364745011086474,-0.14593817999260195
2.8698447893569847,-0.16294924070662659
2.9032150776053216,-0.1576958811235067
2.9365853658536585,-0.11090495133097458
2.969955654101996,-0.01793292506302569
3.0033259423503327,0.11214398517626926
3.0366962305986696,0.2613753534636375
3.070066518847007,0.40840508034126416
3.1034368070953438,0.5324497369019972
3.1368070953436806,0.6155867414272079
3.170177383592018,0.6442559552863418
3.203547671840355,0.6107046453030456
3.2369179600886917,0.5143460390662021
3.270288248337029,0.3625989597354697
3.303658536585366,0.17095716622819865
3.337028824833703,-0.03776354296211142
3.37039911308204,-0.2353609591951975
3.403769401330377,-0.3922253113620524
3.437139689578714,-0.48391630389507223
3.470509977827051,-0.499196901580494
3.503880266075388,-0.44609701517486394
3.537250554323725,-0.35166185754398
3.5706208425720622,-0.25309304355316414
3.603991130820399,-0.18264259506184263
3.637361419068736,-0.15322298345361496
3.6707317073170733,-0.1528748162631959
3.70410199556541,-0.15234359840786343
3.737472283813747,-0.122724564355127
3.7708425720620844,-0.05375602048491371
3.8042128603104213,0.03787174861530529
3.8375831485587586,0.11564719937579063
3.8709534368070955,0.1425259021018272
3.9043237250554323,0.10197359763679376
3.9376940133037697,0.00911326376237041
3.9710643015521065,-0.09431173988217349
4.004434589800444,-0.15861321793675395
4.037804878048781,-0.14868782603227929
4.071175166297118,-0.058962152093010735
4.1045454545454545,0.08609754570608193
4.137915742793791,0.244838044006674
4.171286031042128,0.3769062948920687
4.204656319290466,0.45779508063173174
4.238026607538803,0.4833380806934007
4.27139689578714,0.4642648663250816
4.304767184035477,0.41605467716424943
4.3381374722838135,0.35063689486601907
4.371507760532151,0.2738535692094178
4.404878048780488,0.18824966088214187
4.438248337028825,0.09759380801523919
4.471618625277162,0.009262867618603362
4.504988913525499,-0.06712820688265216
4.538359201773836,-0.12360544562332262
4.571729490022173,-0.1574528818760381
4.60509977827051,-0.17231571505735535
4.638470066518847,-0.17631946520271366
4.671840354767184,-0.17837169989583712
4.705210643015521,-0.18441768843376258
4.738580931263858,-0.19509426417521072
4.771951219512196,-0.20558164356757014
4.8053215077605325,-0.20784240157111925
4.838691796008869,-0.19472714270625888
4.872062084257206,-0.16450516652022373
4.905432372505543,-0.12368014240757397
4.93880266075388,-0.08624280806293722
4.972172949002218,-0.06906211430249205
5.005543237250555,-0.0851648809442712
5.0389135254988915,-0.13787583121859884
5.072283813747228,-0.21836264087678678
5.105654101995565,-0.3074018640618669
5.139024390243902,-0.3803300807195213
5.17239467849224,-0.413215490234226
5.205764966740577,-0.3884861372505534
5.239135254988914,-0.2990254040423855
5.2725055432372505,-0.15038195308143157
5.305875831485587,0.03908431080772768
5.339246119733925,0.24040255766824783
5.372616407982262,0.4187507624674199
5.405986696230599,0.5404143367926846
5.439356984478936,0.5806130953992891
5.472727272727273,0.5300625406957635
5.5060975609756095,0.3981220869408944
5.539467849223947,0.21132101392820327
5.572838137472284,0.007492616704349901
5.606208425720621,-0.17299240777784453
5.639578713968958,-0.2967213881130891
5.672949002217295,-0.3451619973300743
5.706319290465632,-0.318933787092389
5.7396895787139695,-0.23688693033478733
5.773059866962306,-0.1294694119110195
5.806430155210643,-0.027536710450184174
5.83980044345898,0.050140770964533864
5.873170731707317,0.10573315007556613
5.906541019955654,0.16263748633954853
5.939911308203992,0.2549009088183825
5.9732815964523285,0.4083845044547574
6.006651884700665,0.6213684690945059
6.040022172949002,0.8546335291828212
6.073392461197339,1.0384922200436775
6.106762749445676,1.0970633040371613
6.140133037694014,0.9812804470045323
6.173503325942351,0.6960959050161436
6.2068736141906875,0.3076259758563797
6.240243902439024,-0.07662685007671136
6.273614190687361,-0.34944777062945276
6.306984478935698,-0.4511606900676354
6.340354767184036,-0.401003380758528
6.373725055432373,-0.2956288720303119
6.40709534368071,-0.27102983802589886
6.4404656319290465,-0.4410641142495053
6.473835920177383,-0.8384624391716539
6.507206208425721,-1.3860356113382606
6.540576496674058,-1.9146176143227578
6.573946784922395,-2.224064178757821
6.607317073170732,-2.1632700573702395
6.640687361419069,-1.694668139210257
6.674057649667406,-0.9141010222597322
6.707427937915743,-0.016678774293720073
6.74079822616408,0.7760827040882753
6.774168514412417,1.295362746421125
6.807538802660754,1.4768242595071825
6.840909090909091,1.3664054059460877
6.874279379157428,1.0836598851006214
6.9076496674057655,0.7641599832060257
6.941019955654102,0.5081101518165394
6.974390243902439,0.3547998432691184
7.007760532150776,0.28754496746903485
7.041130820399113,0.25962582885769264
7.07450110864745,0.22486055392055004
7.107871396895788,0.15861485045885032
7.1412416851441245,0.06323510982577711
7.174611973392461,-0.03932335799644374
7.207982261640798,-0.12008037689994286
7.241352549889135,-0.15378060218240308
7.274722838137472,-0.12478298085081631
7.30809312638581,-0.029142161805218156
7.341463414634147,0.12454003573650886
7.3748337028824835,0.314293580458293
7.40820399113082,0.5053275239267062
7.441574279379157,0.6545886702967767
7.474944567627494,0.7206994691827516
7.508314855875832,0.6773418536239796
7.541685144124169,0.52489472570275
7.575055432372506,0.2942032382700828
7.6084257206208425,0.03884528883031373
7.641796008869179,-0.18269068147694711
7.675166297117517,-0.3283300949526022
7.708536585365854,-0.3881159689546419
7.741906873614191,-0.3868842618676142
7.775277161862528,-0.3720091547059595
7.808647450110865,-0.39114541163615774
7.842017738359202,-0.46971388271696296
7.875388026607539,-0.5982327457240533
7.908758314855876,-0.7352764705006593
7.942128603104213,-0.8249398365427139
7.97549889135255,-0.8213694556114801
8.008869179600888,-0.7098498504522949
8.042239467849225,-0.5152175521321379
8.075609756097561,-0.2934690691702947
8.108980044345898,-0.1094336614504335
8.142350332594235,-0.009600537081871417
8.175720620842572,-0.0019088096216444558
8.209090909090909,-0.05191934064432228
8.242461197339246,-0.09783350019412207
8.275831485587583,-0.07819946877315011
8.30920177383592,0.04002840670122696
8.342572062084257,0.24588264331461898
8.375942350332595,0.48831661899475065
8.409312638580932,0.697624683245535
8.442682926829269,0.8143073744412445
8.476053215077606,0.8123912707979823
8.509423503325943,0.7074281706180426
8.54279379157428,0.5468023294825581
8.576164079822616,0.38782299574701845
8.609534368070953,0.2738636649563227
8.64290465631929,0.2187886926548471
8.676274944567627,0.2055710347838321
8.709645232815964,0.19851776174260843
8.743015521064303,0.16265786173230753
8.77638580931264,0.08096597826009654
8.809756097560976,-0.038603715918380306
8.843126385809313,-0.16923817018119977
8.87649667405765,-0.2808246265409567
8.909866962305987,-0.3561837990306802
8.943237250554324,-0.3986861257764287
8.97660753880266,-0.42671049626190166
9.009977827050998,-0.45815553736533016
9.043348115299334,-0.4945809446644186
9.076718403547671,-0.5155462086398797
9.110088691796008,-0.48826492970235197
9.143458980044347,-0.3885465159978058
9.176829268292684,-0.22130465551580056
9.21019955654102,-0.027417794749369426
9.243569844789358,0.12995396957340669
9.276940133037694,0.19512614498635056
9.310310421286031,0.15095974045302088
9.343680709534368,0.03356721047783478
9.377050997782705,-0.0798913099176902
9.410421286031042,-0.10678525629326086
9.443791574279379,-0.0009952599967216075
9.477161862527716,0.22059486826970323
9.510532150776053,0.4820282418735918
9.543902439024391,0.6820546316615224
9.577272727272728,0.7414715235403104
9.610643015521065,0.6404166372505076
9.644013303769402,0.4270544291935784
9.677383592017739,0.19369481572603126
9.710753880266076,0.032640697730071
9.744124168514412,-0.006431587573494709
9.77749445676275,0.06255926803454194
9.810864745011086,0.17154571481709058
9.844235033259423,0.2321219901069085
9.87760532150776,0.17678678250093716
9.910975609756099,-0.011417941021112852
9.944345898004435,-0.2930364381628893
9.977716186252772,-0.5905085189897052
10.01108647450111,-0.820408857832909
10.044456762749446,-0.9245844461265033
10.077827050997783,-0.8877020686359306
10.11119733924612,-0.7363920604237016
10.144567627494457,-0.523654476420388
10.177937915742794,-0.30743718083672433
10.21130820399113,-0.13253482469671354
10.244678492239467,-0.02122232903684673
10.278048780487804,0.02692086164813191
10.311419068736143,0.02905713697619125
10.34478935698448,0.010964163020816441
10.378159645232817,-0.00048100845633063783
10.411529933481154,0.01683730372170192
10.44490022172949,0.076088280508636
10.478270509977827,0.17900398701171116
10.511640798226164,0.31552217652579706
10.545011086474501,0.46601765193148914
10.578381374722838,0.605858853988922
10.611751662971175,0.7109866301134807
10.645121951219512,0.7626660887406288
10.67849223946785,0.7500649713505702
10.711862527716187,0.670653406194542
10.745232815964524,0.5296683073734091
10.778603104212861,0.3400237537956092
10.811973392461198,0.12281336868388272
10.845343680709535,-0.09317110287089608
10.878713968957872,-0.2751453261421707
10.912084257206208,-0.3940922684531683
10.945454545454545,-0.43445363973205664
10.978824833702882,-0.4011428978746473
11.012195121951219,-0.31937701418172076
11.045565410199556,-0.22604807671946242
11.078935698447895,-0.15594731238122328
11.112305986696231,-0.12918423782257885
11.145676274944568,-0.14558573945767314
11.179046563192905,-0.1880403729647512
11.212416851441242,-0.23209093182814922
11.245787139689579,-0.2563944687799991
11.279157427937916,-0.24932604630709437
11.312527716186253,-0.2101259622486055
11.34589800443459,-0.14623948822328064
11.379268292682926,-0.06979474013959336
11.412638580931263,0.004904747127234258
11.4460088691796,0.06310143412970577
11.479379157427939,0.09199018629767546
11.512749445676276,0.08463514638701003
11.546119733924613,0.044244726304214436
11.57949002217295,-0.013963925253038249
11.612860310421286,-0.0657819140824864
11.646230598669623,-0.08599097031577688
11.67960088691796,-0.05836012341676636
11.712971175166297,0.01692726259731225
11.746341463414634,0.1220616131611784
11.77971175166297,0.2272777302221933
11.813082039911308,0.30086582285064745
11.846452328159646,0.31934728301813947
11.879822616407983,0.27421786099077833
11.91319290465632,0.17367652298385866
11.946563192904657,0.039791639624909114
11.979933481152994,-0.09738000313079576
12.01330376940133,-0.2071348316269426
12.046674057649668,-0.265611580679636
12.080044345898004,-0.262115438776355
12.113414634146341,-0.20263656023658344
12.146784922394678,-0.1088240223511102
12.180155210643015,-0.011556807386649258
12.213525498891352,0.05965560662418843
12.24689578713969,0.08771973513317922
12.280266075388028,0.07446523885109449
12.313636363636364,0.03895186569629594
12.347006651884701,0.007715308973271743
12.380376940133038,0.0014901217064521616
12.413747228381375,0.025318375041045418
12.447117516629712,0.06756106068096852
12.480487804878049,0.10853825881054807
12.513858093126386,0.13382912194391308
12.547228381374723,0.144059970668369
12.58059866962306,0.15460289683630785
12.613968957871396,0.18453620203891064
12.647339246119735,0.24113422059355102
12.680709534368072,0.30969539354915904
12.714079822616409,0.35612574662048635
12.747450110864746,0.3424491484806475
12.780820399113082,0.24753410683439372
12.81419068736142,0.08160106895392887
12.847560975609756,-0.11411697952720244
12.880931263858093,-0.2833687656829133
12.91430155210643,-0.3789820858225861
12.947671840354767,-0.3832753924169591
12.981042128603104,-0.315016036561573
13.014412416851442,-0.22002999392354827
13.04778270509978,-0.15044609590904384
13.081152993348116,-0.14246317050906712
13.114523281596453,-0.20240858743566897
13.14789356984479,-0.3063415804597663
13.181263858093127,-0.41213217969481947
13.214634146341464,-0.47780659846206675
13.2480044345898,-0.4779766980438537
13.281374722838137,-0.41174697119177356
13.314745011086474,-0.2996214678752898
13.348115299334811,-0.17183365853858024
13.381485587583148,-0.054206055815732006
13.414855875831487,0.04151054016737564
13.448226164079824,0.11843115942276113
13.48159645232816,0.18698155250408827
13.514966740576497,0.2542325915279816
13.548337028824834,0.31713552693400954
13.581707317073171,0.3642036466051597
13.615077605321508,0.3847242082543722
13.648447893569845,0.37940426418376594
13.681818181818182,0.3648243721950826
13.715188470066519,0.36743440815859824
13.748558758314855,0.40920742657720854
13.781929046563192,0.49256516981956383
13.815299334811531,0.5933579141751579
13.848669623059868,0.6667544660161179
13.882039911308205,0.6641855027219147
13.915410199556542,0.5537898718775093
13.948780487804878,0.33510796525335795
13.982150776053215,0.041646423924623054
14.015521064301552,-0.26938947106226474
14.048891352549889,-0.535424951208274
14.082261640798226,-0.7074193046786923
14.115631929046563,-0.7627595958726376
14.1490022172949,-0.7089548948592831
14.182372505543238,-0.5786266815673549
14.215742793791575,-0.4185520308873452
14.249113082039912,-0.2761267659645469
14.282483370288249,-0.18647765840540723
14.315853658536586,-0.1633294867808892
14.349223946784923,-0.19639070581653945
14.38259423503326,-0.2566087283537853
14.415964523281596,-0.307878811727061
14.449334811529933,-0.32073620932644786
14.48270509977827,-0.28216318508005495
14.516075388026607,-0.1972622032747473
14.549445676274944,-0.0827035152380471
14.582815964523283,0.04373128981468692
14.61618625277162,0.17118468188126892
14.649556541019956,0.29671600754938954
14.682926829268293,0.4191242529565682
14.71629711751663,0.5301691128563721
14.749667405764967,0.6098571331648378
14.783037694013304,0.6305007455482773
14.81640798226164,0.5690540466779834
14.849778270509978,0.42167075769688084
14.883148558758315,0.21199235004721825
14.916518847006651,-0.012767286732670139
14.949889135254988,-0.19749957776606203
14.983259423503327,-0.29970477285703245
15.016629711751664,-0.30512321935369896
15.05,-0.2313036739539879
15.083370288248338,-0.11808726514411441
15.116740576496674,-0.010290912765345326
15.150110864745011,0.058958156536711534
15.183481152993348,0.07708090824586833
15.216851441241685,0.05062997098670808
15.250221729490022,-0.003501924387901058
15.283592017738359,-0.06817708352876208
15.316962305986696,-0.1318927563259907
15.350332594235034,-0.18855189321781693
15.383702882483371,-0.23346921678713023
15.417073170731708,-0.2600625281282123
15.450443458980045,-0.26043294018479834
15.483813747228382,-0.22957944985593393
15.517184035476719,-0.16994528245295792
15.550554323725056,-0.09250277970393321
15.583924611973393,-0.012841919189626372
15.61729490022173,0.05593187200800048
15.650665188470066,0.10943417935645479
15.684035476718403,0.1534664779295921
15.71740576496674,0.19928625405503053
15.750776053215079,0.25483787442827255
15.784146341463416,0.31687859240938343
15.817516629711752,0.36912071199229
15.85088691796009,0.38849622727875766
15.884257206208426,0.35682222489916443
15.917627494456763,0.27145033874107416
15.9509977827051,0.148564132605848
15.984368070953437,0.016947717406143904
16.017738359201775,-0.09424684303039933
16.05110864745011,-0.16670254275663068
16.08447893569845,-0.19711528543084814
16.117849223946784,-0.19317697095687428
16.151219512195123,-0.16548293006714881
16.184589800443458,-0.12165163198901584
16.217960088691797,-0.0666356870822469
16.251330376940132,-0.008165926311478618
16.28470066518847,0.03792501028561976
16.31807095343681,0.048193459073449484
16.351441241685144,-6.735000042706886e-05
16.384811529933483,-0.11596608862224476
16.418181818181818,-0.2846779233263263
16.451552106430157,-0.46634741485983683
16.48492239467849,-0.6066838183740475
16.51829268292683,-0.6558219515333779
16.551662971175165,-0.5876294309191795
16.585033259423504,-0.4109553129452521
16.61840354767184,-0.16762301195627255
16.651773835920178,0.08233796599483036
16.685144124168513,0.282266463388887
16.71851441241685,0.3984794820473107
16.75188470066519,0.43015809646305164
16.785254988913525,0.40603176447321926
16.818625277161864,0.36989791768019054
16.8519955654102,0.3612764200922745
16.885365853658538,0.3988634557268263
16.918736141906873,0.47280787659387996
16.95210643015521,0.5482987742251855
16.985476718403547,0.5789802000103028
17.018847006651885,0.5254466347730654
17.05221729490022,0.37227429641997284
17.08558758314856,0.1372057878298532
17.118957871396898,-0.13158029616872652
17.152328159645233,-0.37011244042456454
17.18569844789357,-0.5205366334904941
17.219068736141907,-0.5522159905482705
17.252439024390245,-0.47343599253085966
