Time (s),Filtered Signal
0.0,0.0034549412532356174
0.03337004405286344,0.6514722476277037
0.06674008810572687,1.161775100108804
0.10011013215859031,1.4542243362776464
0.13348017621145375,1.536521034244689
0.16685022026431717,1.4942366923846366
0.20022026431718062,1.4456677583165405
0.23359030837004408,1.4832866462320655
0.2669603524229075,1.6293177713241354
0.3003303964757709,1.82561246338662
0.33370044052863435,1.9615875913445846
0.3670704845814978,1.92661933275649
0.40044052863436125,1.6627929960000856
0.43381057268722467,1.1944456693435563
0.46718061674008815,0.6217391124526287
0.5005506607929515,0.08166759918319742
0.533920704845815,-0.30565831787265796
0.5672907488986785,-0.4814627203157135
0.6006607929515418,-0.46462095250442303
0.6340308370044053,-0.33488304368634636
0.6674008810572687,-0.1936800020054147
0.7007709251101322,-0.1225685755002755
0.7341409691629956,-0.15801226740744323
0.767511013215859,-0.29057146190307315
0.8008810572687225,-0.4831283853659194
0.834251101321586,-0.694113309142513
0.8676211453744493,-0.8921833332842827
0.9009911894273128,-1.0571111010222414
0.9343612334801763,-1.171818236251059
0.9677312775330397,-1.2158725859606427
1.001101321585903,-1.1682628758244433
1.0344713656387665,-1.0191797151883861
1.06784140969163,-0.7827735360212539
1.1012114537444935,-0.5007938903901633
1.134581497797357,-0.23194420672668617
1.1679515418502202,-0.030396190754221154
1.2013215859030837,0.07624061354912316
1.2346916299559472,0.09813533562251356
1.2680616740088106,0.0774382798516054
1.3014317180616741,0.0676955704494408
1.3348017621145374,0.10799963412739265
1.3681718061674009,0.20401685760407495
1.4015418502202643,0.3248259045572867
1.4349118942731278,0.4171058338363126
1.4682819383259913,0.4301977848333215
1.5016519823788548,0.3406766338436884
1.535022026431718,0.16545570726478895
1.5683920704845815,-0.042260671917248534
1.601762114537445,-0.21222921823942761
1.6351321585903085,-0.28321666951897767
1.668502202643172,-0.22501899469984965
1.7018722466960352,-0.04812743347190796
1.7352422907488987,0.2014046866031448
1.7686123348017622,0.4582099293445736
1.8019823788546256,0.6577951869689548
1.8353524229074891,0.7537056885080741
1.8687224669603526,0.7275111429657308
1.9020925110132159,0.5907159374131499
1.9354625550660793,0.37975717160799466
1.9688325991189428,0.1458988388678402
2.002202643171806,-0.05804617695508962
2.0355726872246698,-0.19167577319636578
2.068942731277533,-0.23809395664488206
2.1023127753303967,-0.20805130827913307
2.13568281938326,-0.13433796238932957
2.1690528634361232,-0.05721500347250545
2.202422907488987,-0.006245530000315554
2.23579295154185,0.013178166518583247
2.269162995594714,0.021387787489125436
2.302533039647577,0.05218304712218827
2.3359030837004404,0.1320073045983382
2.369273127753304,0.2608288647463186
2.4026431718061674,0.4049692687826028
2.436013215859031,0.5067600558139248
2.4693832599118943,0.5077855881530182
2.5027533039647576,0.3755623070330518
2.5361233480176213,0.12124389002330876
2.5694933920704845,-0.2003944019318984
2.6028634361233483,-0.5094035871138712
2.6362334801762115,-0.7296744069990331
2.6696035242290748,-0.8158334643626131
2.7029735682819385,-0.7667359399407319
2.7363436123348017,-0.6210005826960622
2.7697136563876654,-0.43837180915974894
2.8030837004405287,-0.27630588225798247
2.8364537444933924,-0.1716479355682491
2.8698237885462556,-0.1332382382042815
2.903193832599119,-0.14561538702867347
2.9365638766519826,-0.17971921669048965
2.969933920704846,-0.20516269399696874
3.0033039647577096,-0.19983833560617553
3.036674008810573,-0.15487275742566842
3.070044052863436,-0.07491282652262242
3.1034140969162998,0.025103791078497067
3.136784140969163,0.1250613121412505
3.1701541850220267,0.20501940451592185
3.20352422907489,0.24954400567935847
3.2368942731277532,0.2504246257982905
3.270264317180617,0.207863714156434
3.30363436123348,0.130539968113115
3.337004405286344,0.034788896486537844
3.370374449339207,-0.05722970329967556
3.4037444933920704,-0.12070220315944565
3.437114537444934,-0.13280622190513303
3.4704845814977974,-0.07843502420975484
3.503854625550661,0.04415179531768973
3.5372246696035243,0.2197032929978208
3.5705947136563876,0.4167123934265303
3.6039647577092513,0.594088576461264
3.6373348017621145,0.7130357597125786
3.6707048458149782,0.7502355792910965
3.7040748898678415,0.706320998335528
3.737444933920705,0.604583790790602
3.7708149779735685,0.479308255625991
3.8041850220264317,0.35897822871377755
3.8375550660792954,0.2532329326244444
3.8709251101321587,0.15106521579048593
3.9042951541850224,0.03159592099289608
3.9376651982378856,-0.11869825790138269
3.971035242290749,-0.2925537704626714
4.004405286343612,-0.46063082948775286
4.037775330396476,-0.5838060837889725
4.0711453744493395,-0.6326475797868061
4.104515418502203,-0.603394774929738
4.137885462555066,-0.5213869434436057
4.171255506607929,-0.42947853928587026
4.2046255506607935,-0.3670434617702789
4.237995594713657,-0.35044034362527926
4.27136563876652,-0.365406017700965
4.304735682819383,-0.37580549977991196
4.3381057268722465,-0.3445657488558651
4.371475770925111,-0.25598833270320503
4.404845814977974,-0.12752860855079082
4.438215859030837,-0.004234187842878041
4.4715859030837,0.062173528719850615
4.504955947136564,0.0395759816369164
4.538325991189428,-0.06599603145814908
4.571696035242291,-0.20911631000892164
4.605066079295154,-0.3221992902349226
4.638436123348018,-0.3434302463765196
4.671806167400881,-0.2425957128146245
4.705176211453745,-0.0333350507526038
4.738546255506608,0.23300469412617084
4.7719162995594715,0.48825937766879945
4.805286343612335,0.6732147826302214
4.838656387665198,0.7570177937377864
4.872026431718062,0.7427139396539338
4.905396475770925,0.6582479228664438
4.938766519823789,0.5390630473825125
4.972136563876652,0.41195849166094994
5.005506607929515,0.28827324122950926
5.038876651982379,0.16848415245658224
5.072246696035243,0.053265188613770595
5.105616740088106,-0.04777735717800828
5.138986784140969,-0.11659748022977533
5.172356828193832,-0.13683753201580923
5.2057268722466965,-0.10704557462897457
5.23909691629956,-0.047558736704648816
5.272466960352423,0.005186463508615733
5.305837004405286,0.015686074924406115
5.3392070484581495,-0.030822631391581857
5.372577092511014,-0.11707233996352329
5.405947136563877,-0.19849324725606743
5.43931718061674,-0.22297208008498903
5.4726872246696034,-0.15625346805557272
5.506057268722468,-0.00022926535889270753
5.539427312775331,0.20489621548162018
5.572797356828194,0.3950059943356554
5.606167400881057,0.5053052749391774
5.639537444933921,0.49159191024539406
5.672907488986785,0.3418627326841272
5.706277533039648,0.07682740968269985
5.739647577092511,-0.2572068614902243
5.7730176211453745,-0.5987704446632486
5.806387665198238,-0.8829503620490236
5.839757709251102,-1.0544582306240236
5.873127753303965,-1.0814141336890566
5.9064977973568284,-0.9661215992475808
5.939867841409692,-0.7468295222307397
5.973237885462555,-0.48631125850671986
6.006607929515419,-0.24935807715214095
6.039977973568282,-0.07843124557558792
6.073348017621146,0.020425157495615482
6.106718061674009,0.07366993046554905
6.140088105726872,0.12034183415940577
6.173458149779736,0.18741813473284183
6.2068281938325995,0.27458625539663295
6.240198237885463,0.35684351969117123
6.273568281938326,0.4024785930191776
6.306938325991189,0.3947817375654798
6.3403083700440535,0.34400477341797203
6.373678414096917,0.28257403850738433
6.40704845814978,0.24702573625822316
6.440418502202643,0.257991256226486
6.4737885462555065,0.31020100911432036
6.507158590308371,0.3779503365494208
6.540528634361234,0.4320791871554417
6.573898678414097,0.457896449618813
6.60726872246696,0.46323711688570507
6.640638766519824,0.47174257926523355
6.674008810572688,0.5049705521870385
6.707378854625551,0.5634401551956201
6.740748898678414,0.6178716908233687
6.774118942731278,0.6171110734023564
6.807488986784141,0.5107980072009388
6.840859030837005,0.2767804743913359
6.874229074889868,-0.060369935720717104
6.9075991189427315,-0.43046219051456086
6.940969162995595,-0.7405273141783834
6.974339207048458,-0.911019132963778
7.007709251101322,-0.9096367883354141
7.041079295154185,-0.7666969424598561
7.074449339207049,-0.5634474056013828
7.107819383259912,-0.3970046305096113
7.141189427312775,-0.3370734721329149
7.174559471365639,-0.39447852430582064
7.207929515418503,-0.5168391375483227
7.241299559471366,-0.6141866206934704
7.274669603524229,-0.6028656990011457
7.308039647577092,-0.44690348618387316
7.3414096916299565,-0.1769320055227499
7.37477973568282,0.12254629390768598
7.408149779735683,0.35146633114842657
7.441519823788546,0.43961972251071846
7.47488986784141,0.3773390952410946
7.508259911894274,0.2169430658784238
7.541629955947137,0.04502126988015083
7.575,-0.05977048617176047
7.608370044052863,-0.06173661669703468
7.641740088105728,0.021153198358701848
7.675110132158591,0.1342983317827455
7.708480176211454,0.21949564622727658
7.741850220264317,0.24443079078151617
7.775220264317181,0.21306640600214266
7.808590308370045,0.1541286921954692
7.841960352422908,0.09813251612706994
7.875330396475771,0.05891727845313591
7.9087004405286345,0.030723993258831257
7.942070484581498,0.0004822173163710699
7.975440528634362,-0.03505968602695787
8.008810572687224,-0.06022523360698723
8.042180616740088,-0.046219900396599
8.075550660792953,0.03127205477952156
8.108920704845815,0.17347557431460076
8.142290748898679,0.350519220817958
8.175660792951541,0.5097041912020629
8.209030837004406,0.5967512548764661
8.24240088105727,0.579759988500674
8.275770925110132,0.4641004252972471
8.309140969162996,0.29082645745787283
8.342511013215859,0.11906200395811754
8.375881057268723,0.00036809862324932587
8.409251101321587,-0.04310025730393021
8.44262114537445,-0.02652703413275514
8.475991189427313,0.007139841744920629
8.509361233480176,0.009411906915440424
8.54273127753304,-0.05001701281592079
8.576101321585904,-0.16988369610352114
8.609471365638766,-0.32049879710282686
8.64284140969163,-0.46055208058826386
8.676211453744493,-0.5574311732143662
8.709581497797357,-0.5997403749483724
8.742951541850221,-0.5962086422350132
8.776321585903084,-0.5637163505617623
8.809691629955948,-0.5133855452260434
8.84306167400881,-0.44394879787734903
8.876431718061674,-0.34618046463453717
8.909801762114538,-0.21472343841747893
8.9431718061674,-0.05886565388150772
8.976541850220265,0.09544920755858316
9.009911894273127,0.21451549960661664
9.043281938325991,0.2720124951562918
9.076651982378856,0.2619546494386311
9.110022026431718,0.20228096090765288
9.143392070484582,0.12714955859982643
9.176762114537445,0.07189105611566832
9.210132158590309,0.05793033406340523
9.243502202643173,0.0844800052982617
9.276872246696035,0.13027233948950287
9.3102422907489,0.16407039421587272
9.343612334801762,0.15914078253499297
9.376982378854626,0.10542894568467369
9.41035242290749,0.014214225876792809
9.443722466960352,-0.08672071021410596
9.477092511013216,-0.16495964851839456
9.510462555066079,-0.1963633689843637
9.543832599118943,-0.1725201406812323
9.577202643171807,-0.09952810851942864
9.61057268722467,0.009774204569741114
9.643942731277534,0.144085458425981
9.677312775330396,0.29653546358346844
9.71068281938326,0.46044761090678177
9.744052863436124,0.6215507559378465
9.777422907488987,0.7532066190455956
9.81079295154185,0.819908782052208
9.844162995594713,0.7894081199329851
9.877533039647577,0.6481596875021831
9.910903083700441,0.41173883217556556
9.944273127753304,0.12350190179852212
9.977643171806168,-0.15945144970736846
10.01101321585903,-0.3870714966236142
10.044383259911895,-0.533946235772572
10.077753303964759,-0.6050868925967822
10.111123348017621,-0.6274680968816653
10.144493392070485,-0.6323791544682671
10.177863436123348,-0.6382591563177787
10.211233480176212,-0.6429286528726725
10.244603524229076,-0.6285945829086033
10.277973568281938,-0.5758758772757875
10.311343612334802,-0.47828284615111877
10.344713656387665,-0.3486365483162565
10.378083700440529,-0.21372323724350953
10.411453744493393,-0.10031908928063248
10.444823788546255,-0.020710303120501743
10.47819383259912,0.03386853296686593
10.511563876651982,0.08795629326471163
10.544933920704846,0.16743849921194545
10.57830396475771,0.28361128765428173
10.611674008810573,0.42410415540881186
10.645044052863437,0.555495265112824
10.678414096916299,0.6367244248507813
10.711784140969163,0.6372647503612867
10.745154185022027,0.5516644123201825
10.77852422907489,0.4034802196517346
10.811894273127754,0.23628422462390017
10.845264317180618,0.09542056176547632
10.87863436123348,0.008781075615573916
10.912004405286345,-0.02432038274733494
10.945374449339207,-0.030727047867571352
10.978744493392071,-0.048482398544199015
11.012114537444935,-0.10648995569983903
11.045484581497798,-0.2087270866748415
11.078854625550662,-0.3309390775334486
11.112224669603524,-0.43175599737319603
11.145594713656388,-0.47298333166556933
11.178964757709252,-0.4389542853883691
11.212334801762115,-0.34492667141001404
11.245704845814979,-0.22982141253212185
11.279074889867841,-0.1366469878767242
11.312444933920705,-0.09058767120434204
11.34581497797357,-0.08626796771790968
11.379185022026432,-0.09104373659220953
11.412555066079296,-0.06269467155570217
11.445925110132158,0.02769369107877646
11.479295154185023,0.1793368098180627
11.512665198237887,0.35974442337273466
11.546035242290749,0.5175002259436849
11.579405286343613,0.6033273571689265
11.612775330396476,0.5899507614127464
11.64614537444934,0.4828350616486808
11.679515418502204,0.3182996654476699
11.712885462555066,0.15036861141169783
11.74625550660793,0.03132514421022552
11.779625550660793,-0.007255323140024367
11.812995594713657,0.03373580726566775
11.846365638766521,0.1211077948251953
11.879735682819383,0.20216552089111745
11.913105726872248,0.2256672527303036
11.94647577092511,0.162355324668504
11.979845814977974,0.015983640844781058
12.013215859030838,-0.18003450040287178
12.0465859030837,-0.3781889772165778
12.079955947136565,-0.5365237497590665
12.113325991189427,-0.632842974387938
12.146696035242291,-0.667667986019964
12.180066079295155,-0.6565023811588562
12.213436123348018,-0.6172201460835935
12.246806167400882,-0.5599504231074893
12.280176211453744,-0.4844411959596836
12.313546255506608,-0.3852590411533464
12.346916299559473,-0.26079770789740264
12.380286343612335,-0.12003041560076963
12.413656387665199,0.017747869304373474
12.447026431718061,0.13083159242527856
12.480396475770926,0.20652181665352257
12.51376651982379,0.24924900307031086
12.547136563876652,0.2799301749344376
12.580506607929516,0.32587460436688637
12.613876651982379,0.4060254208704362
12.647246696035243,0.5192224434799564
12.680616740088107,0.6418134693726177
12.71398678414097,0.7361588922801867
12.747356828193833,0.7660449140404956
12.780726872246696,0.711661358352409
12.81409691629956,0.5772375441020025
12.847466960352424,0.3882720710569069
12.880837004405286,0.18045233798321458
12.91420704845815,-0.013817138321318902
12.947577092511013,-0.17474705896847714
12.980947136563877,-0.2966031703159534
13.014317180616741,-0.3820736779554165
13.047687224669604,-0.4342137645044287
13.081057268722468,-0.45157662585308517
13.11442731277533,-0.4297284681602915
13.147797356828194,-0.36801510657227277
13.181167400881058,-0.2767859340220885
13.21453744493392,-0.17948732163751166
13.247907488986785,-0.10666201795833714
13.281277533039647,-0.0835543982405414
13.314647577092511,-0.11718064682145575
13.348017621145376,-0.1899979077809816
13.381387665198238,-0.2647208000188212
13.414757709251102,-0.2994176630972047
13.448127753303964,-0.26644565534861353
13.481497797356829,-0.16609872167710013
13.514867841409693,-0.027818174670563512
13.548237885462555,0.10221589504452015
13.58160792951542,0.181360103158797
13.614977973568282,0.18884790225610013
13.648348017621146,0.13361150063137245
13.68171806167401,0.04878859143769295
13.715088105726872,-0.023045519238933554
13.748458149779736,-0.0460868999013611
13.781828193832599,-0.002267854589976866
13.815198237885463,0.10521271131545308
13.848568281938327,0.25388371934165405
13.88193832599119,0.4067358052104187
13.915308370044054,0.5189222038914899
13.948678414096916,0.547589038034906
13.98204845814978,0.4651166498486339
14.015418502202644,0.272462063412881
14.048788546255507,0.005992053045632467
14.08215859030837,-0.26840697449700496
14.115528634361233,-0.47510207972513885
14.148898678414097,-0.5562162666441551
14.182268722466961,-0.4953560171788114
14.215638766519824,-0.3260801739459912
14.249008810572688,-0.11963047593684482
14.28237885462555,0.04412401804637547
14.315748898678414,0.11022363879241315
14.349118942731279,0.07137020265957134
14.382488986784141,-0.03096857203742689
14.415859030837005,-0.12781542678896377
14.449229074889868,-0.15597040033077994
14.482599118942732,-0.08694670731315485
14.515969162995596,0.0622966060703451
14.549339207048458,0.24076985167536402
14.582709251101322,0.3892919204172516
14.616079295154185,0.4662509523096622
14.649449339207049,0.4604499345684777
14.682819383259913,0.38676110754257925
14.716189427312775,0.27037403081226574
14.74955947136564,0.1311398072900446
14.782929515418502,-0.022093324643404168
14.816299559471366,-0.1848226342656825
14.84966960352423,-0.3442991147326154
14.883039647577093,-0.4717947053798503
14.916409691629957,-0.5277461331324506
14.94977973568282,-0.47942962436679826
14.983149779735683,-0.3220589255002534
15.016519823788547,-0.09058086625326327
15.04988986784141,0.1466144628989674
15.083259911894274,0.31147454687499926
15.116629955947138,0.34743501054912984
15.15,0.2434436932964496
15.183370044052865,0.03946983859919679
15.216740088105727,-0.1891049088410638
15.250110132158591,-0.36106858483957305
15.283480176211455,-0.41994191022785354
15.316850220264318,-0.3530321410630455
15.350220264317182,-0.19240122205200413
15.383590308370044,0.0008808670743135682
15.416960352422908,0.16157362136947617
15.450330396475772,0.24419496174480634
15.483700440528635,0.2375739309735469
15.517070484581499,0.16561793977319034
15.550440528634361,0.0748235468568264
15.583810572687225,0.013544045952511607
15.61718061674009,0.01097547644862487
15.650550660792952,0.06428370761677185
15.683920704845816,0.139701836809263
15.717290748898678,0.18813299386149168
15.750660792951543,0.16944139162850602
15.784030837004407,0.07485166313885698
15.817400881057269,-0.06370816566369734
15.850770925110133,-0.1837576914775359
15.884140969162996,-0.21960137452572548
15.91751101321586,-0.13544740365924596
15.950881057268724,0.05183113697973823
15.984251101321586,0.273402665163518
16.01762114537445,0.4352358254474575
16.050991189427315,0.4601397491084308
16.084361233480177,0.325217340433358
16.11773127753304,0.07558593160583864
16.151101321585905,-0.19376166135308828
16.184471365638768,-0.3801436275880828
16.21784140969163,-0.4192010722980607
16.251211453744492,-0.3123804691531536
16.284581497797358,-0.12286527262786845
16.31795154185022,0.05723207869386509
16.351321585903083,0.1515314124361074
16.38469162995595,0.13378285522077468
16.41806167400881,0.0358475829512094
16.451431718061674,-0.07313508689013518
16.48480176211454,-0.12447791678198426
16.518171806167402,-0.08504337809592818
16.551541850220264,0.027255826263726666
16.584911894273127,0.15374478201430608
16.618281938325993,0.22432845136254825
16.651651982378855,0.19068969362763452
16.685022026431717,0.04780558858732808
16.718392070484583,-0.16477566149839618
16.751762114537446,-0.3803963243500925
16.785132158590308,-0.5319509501898078
16.818502202643174,-0.575600235584086
16.851872246696036,-0.5025560621258073
16.8852422907489,-0.33647305574225067
16.91861233480176,-0.12028068073291644
16.951982378854627,0.10032797887184726
16.98535242290749,0.28978044947381754
17.01872246696035,0.4278160124310633
17.052092511013218,0.5068988556302596
17.08546255506608,0.5253570489258401
17.118832599118942,0.4816504249184862
17.152202643171808,0.3743304948802315
17.18557268722467,0.20854822254240707
17.218942731277533,0.004971712148081962
17.2523127753304,-0.19626338105146665
17.28568281938326,-0.3426700273920393
