Frequency (Hz),Amplitude
0.0,0.1451239934915698
0.019801980198019802,0.1689164304839203
0.039603960396039604,0.22565188460703697
0.0594059405940594,0.2968687941466984
0.07920792079207921,0.374197164016783
0.09900990099009901,0.4543041421424798
0.1188118811881188,0.5357019667830505
0.13861386138613863,0.617624495775374
0.15841584158415842,0.6996223183079556
0.1782178217821782,0.7814003087219936
0.19801980198019803,0.8627452930018872
0.21782178217821782,0.9434908781263851
0.2376237623762376,1.0234990685082541
0.25742574257425743,1.1026500697089017
0.27722772277227725,1.1808363503977115
0.297029702970297,1.2579590425208407
0.31683168316831684,1.3339256860374231
0.33663366336633666,1.4086487780705021
0.3564356435643564,1.4820448200680159
0.37623762376237624,1.554033682581913
0.39603960396039606,1.6245381779309171
0.4158415841584158,1.6934837720286307
0.43564356435643564,1.7607983912149137
0.45544554455445546,1.826412295039555
0.4752475247524752,1.8902579954807628
0.495049504950495,1.9522702092305118
0.5148514851485149,2.012385833728744
0.5346534653465347,2.0705439403437556
0.5544554455445545,2.126685779949858
0.5742574257425742,2.180754797437535
0.594059405940594,2.2326966525948455
0.613861386138614,2.2824592454428134
0.6336633663366337,2.329992744572108
0.6534653465346534,2.375249617368857
0.6732673267326733,2.4181846612675475
0.6930693069306931,2.458755035357109
0.7128712871287128,2.4969202918078364
0.7326732673267327,2.5326424066943654
0.7524752475247525,2.565885809873574
0.7722772277227723,2.5966174136403795
0.7920792079207921,2.6248066399360934
0.8118811881188118,2.650425445923464
0.8316831683168316,2.6734483477752624
0.8514851485148516,2.6938524425500527
0.8712871287128713,2.7116174280494714
0.891089108910891,2.7267256205699693
0.9108910891089109,2.739161970477266
0.9306930693069307,2.7489140755438246
0.9504950495049505,2.755972192002108
0.9702970297029703,2.760329243275573
0.99009900990099,2.7619808263590704
1.00990099009901,2.760925215827816
1.0297029702970297,2.757163365462723
1.0495049504950495,2.7506989074875987
1.0693069306930694,2.7415381494198865
1.0891089108910892,2.729690068545859
1.108910891089109,2.715166304037929
1.1287128712871286,2.697981146739717
1.1485148514851484,2.6781515266547227
1.1683168316831685,2.6556969981826453
1.188118811881188,2.6306397231591805
1.2079207920792079,2.6030044517678164
1.227722772277228,2.572818501406358
1.2475247524752475,2.5401117336082275
1.2673267326732673,2.5049165291394813
1.2871287128712872,2.4672677614173306
1.3069306930693068,2.4272027684270103
1.3267326732673268,2.3847613233519835
1.3465346534653466,2.3399856041807863
1.3663366336633662,2.2929201626148616
1.3861386138613863,2.24361189268066
1.405940594059406,2.1921099995502513
1.4257425742574257,2.1384659692082493
1.4455445544554455,2.0827335397793867
1.4653465346534653,2.0249686755647995
1.4851485148514851,1.965229545154061
1.504950495049505,1.9035765054126628
1.5247524752475248,1.8400720937443844
1.5445544554455446,1.774781031866085
1.5643564356435644,1.7077702455220842
1.5841584158415842,1.6391089062762307
1.6039603960396038,1.568868504019861
1.6237623762376237,1.4971229625496238
1.6435643564356437,1.4239488161924942
1.6633663366336633,1.3494254741382044
1.683168316831683,1.2736356128449482
1.7029702970297032,1.1966657590513758
1.7227722772277227,1.118607162760806
1.7425742574257426,1.039557122644172
1.7623762376237624,0.9596210380695747
1.782178217821782,0.8789156677403033
1.801980198019802,0.7975744707561553
1.8217821782178218,0.7157567066764323
1.8415841584158414,0.6336636882762479
1.8613861386138615,0.5515695213022057
1.881188118811881,0.4698834539575563
1.900990099009901,0.38928759769039806
1.920792079207921,0.3110738540151493
1.9405940594059405,0.23806486139729788
1.9603960396039604,0.17728246771047565
1.98019801980198,0.1453673457652741
2.0,0.16070496747319107
2.01980198019802,0.21329999411110911
2.0396039603960396,0.282966054847552
2.0594059405940595,0.35973874261185923
2.0792079207920793,0.43969597871383553
2.099009900990099,0.5211366537303964
2.118811881188119,0.603208143904881
2.1386138613861387,0.6854216980619233
2.1584158415841586,0.767462435411616
2.1782178217821784,0.8491063925892335
2.1980198019801978,0.9301808328433895
2.217821782178218,1.010543769236906
2.237623762376238,1.090072728134225
2.257425742574257,1.168658262687815
2.2772277227722775,1.2462000489808687
2.297029702970297,1.3226044549113356
2.3168316831683167,1.397782983860791
2.336633663366337,1.4716512565846893
2.3564356435643563,1.5441283345185035
2.376237623762376,1.6151362654951125
2.3960396039603964,1.6845997777448882
2.4158415841584158,1.7524460747645256
2.4356435643564356,1.8186046999979038
2.455445544554456,1.8830074505438188
2.4752475247524752,1.9455883257049051
2.495049504950495,2.0062835005209787
2.514851485148515,2.065031317323326
2.5346534653465347,2.121772290315114
2.5544554455445545,2.1764491195427493
2.5742574257425743,2.2290067115774925
2.594059405940594,2.279392204904744
2.6138613861386135,2.327554998507353
2.633663366336634,2.373446782485151
2.6534653465346536,2.417021569816052
2.673267326732673,2.458235728559853
2.6930693069306932,2.497048013953074
2.712871287128713,2.5334195999559803
2.7326732673267324,2.567314109899022
2.7524752475247527,2.5986976459430826
2.7722772277227725,2.627538817120323
2.792079207920792,2.6538087657644773
2.811881188118812,2.677481192172471
2.8316831683168315,2.6985323773666003
2.8514851485148514,2.716941203848173
2.8712871287128716,2.732689174252694
2.891089108910891,2.7457604278313696
2.910891089108911,2.756141754697481
2.9306930693069306,2.7638226077873007
2.9504950495049505,2.768795112495689
2.9702970297029703,2.7710540739553386
2.99009900990099,2.770596981937202
3.00990099009901,2.7674240133573615
3.0297029702970297,2.7615380323833434
3.0495049504950495,2.7529445881398127
3.0693069306930694,2.741651910021683
3.089108910891089,2.7276709006295485
3.108910891089109,2.711015126350813
3.128712871287129,2.6917008056182756
3.148514851485148,2.669746794887412
3.1683168316831685,2.645174572383951
3.1881188118811883,2.6180082196852785
3.2079207920792077,2.5882744012135444
3.227722772277228,2.556002341733546
3.2475247524752473,2.521223801969253
3.267326732673267,2.483973052475159
3.2871287128712874,2.4442868459281732
3.3069306930693068,2.402204388041272
3.3267326732673266,2.357767307344891
3.346534653465347,2.3110196241385825
3.366336633663366,2.2620077189886034
3.386138613861386,2.210780301240286
3.4059405940594063,2.157388378137103
3.4257425742574257,2.101885225300031
3.4455445544554455,2.04432635953636
3.4653465346534653,1.9847695152378022
3.485148514851485,1.9232746260239493
3.504950495049505,1.8599038138329491
3.5247524752475248,1.7947213884238018
3.5445544554455446,1.7277938613333488
3.564356435643564,1.6591899798784464
3.5841584158415842,1.5889807890490744
3.603960396039604,1.5172397324788294
3.6237623762376234,1.4440428087182573
3.6435643564356437,1.369468806789298
3.6633663366336635,1.2935996571864392
3.683168316831683,1.216520954115113
3.702970297029703,1.1383227372075428
3.722772277227723,1.059100676226655
3.7425742574257423,0.9789578995990725
3.762376237623762,0.8980078855944033
3.7821782178217824,0.8163791746896596
3.801980198019802,0.7342233428884669
3.8217821782178216,0.6517291220201763
3.841584158415842,0.5691488346464599
3.8613861386138613,0.4868513603443783
3.881188118811881,0.40543746735144637
3.9009900990099013,0.32601761630166676
3.9207920792079207,0.2509625717893772
3.9405940594059405,0.18611777549071182
3.96039603960396,0.14621118048156384
3.98019801980198,0.15249275415818328
4.0,0.20066776183616036
4.01980198019802,0.2689935226809261
4.03960396039604,0.34554879960874707
4.0594059405940595,0.4257090351277464
4.079207920792079,0.5075365101773243
4.099009900990099,0.5900892625010615
4.118811881188119,0.6728404064452006
4.138613861386139,0.7554569454613681
4.158415841584159,0.8377054644090016
4.178217821782178,0.9194078476667958
4.198019801980198,1.000418775047905
4.217821782178218,1.080613522342341
4.237623762376238,1.1598809888877422
4.257425742574258,1.2381195358433494
4.2772277227722775,1.3152344123504198
4.297029702970297,1.3911361173973142
4.316831683168317,1.4657393334606703
4.336633663366336,1.5389622207026779
4.356435643564357,1.6107259448365208
4.376237623762377,1.6809543600764774
4.3960396039603955,1.7495737971663374
4.415841584158416,1.8165129238813071
4.435643564356436,1.8817026562722545
4.455445544554455,1.9450761058761803
4.475247524752476,2.006568552660627
4.4950495049504955,2.0661174364958725
4.514851485148514,2.1236623620000636
4.534653465346535,2.1791451130161477
4.554455445544555,2.2325096739673262
4.574257425742574,2.283702256039583
4.594059405940594,2.3326713266429233
4.613861386138614,2.3793676409698414
4.633663366336633,2.4237442747388713
4.653465346534653,2.465756657411822
4.673267326732674,2.5053626053241373
4.693069306930693,2.542522354282255
4.712871287128713,2.577198591270267
4.732673267326733,2.60935648497574
4.752475247524752,2.6389637148983143
4.772277227722772,2.665990498847117
4.792079207920793,2.6904096186662745
4.811881188118812,2.7121964440556807
4.8316831683168315,2.7313289543761
4.851485148514852,2.7477877583465586
4.871287128712871,2.761556111557222
4.891089108910891,2.772619931734378
4.910891089108912,2.7809678117057754
4.930693069306931,2.7865910300241974
4.9504950495049505,2.7894835592168516
4.97029702970297,2.7896420716358654
4.99009900990099,2.78706594289345
5.00990099009901,2.781757252872141
5.02970297029703,2.773720784308373
5.0495049504950495,2.762964018954201
5.069306930693069,2.7494971313297967
5.089108910891089,2.7333329800868404
5.108910891089109,2.7144870970110406
5.128712871287129,2.6929776737010713
5.148514851485149,2.66882554597106
5.1683168316831685,2.6420541760348697
5.188118811881188,2.6126896325435003
5.207920792079208,2.5807605685619146
5.227722772277227,2.5462981975895267
5.247524752475248,2.509336267750549
5.267326732673268,2.4699110343062296
5.2871287128712865,2.4280612306742864
5.306930693069307,2.383828038181254
5.326732673267327,2.337255054825146
5.346534653465346,2.2883882633915307
5.366336633663367,2.2372759993513225
5.3861386138613865,2.1839689190788145
5.405940594059405,2.128519969074366
5.425742574257426,2.0709843570700017
5.445544554455446,2.011419526156483
5.465346534653465,1.9498851334249017
5.485148514851486,1.8864430351031172
5.504950495049505,1.8211572808462615
5.524752475247524,1.754094120798453
5.544554455445545,1.6853220304137986
5.564356435643565,1.614911760016933
5.584158415841584,1.5429364190253336
5.603960396039604,1.46947160917915
5.623762376237624,1.3945956279049894
5.643564356435643,1.3183897735591674
5.663366336633663,1.2409388013216809
5.683168316831684,1.1623316065317617
5.702970297029703,1.082662259733741
5.7227722772277225,1.0020316008244334
5.742574257425743,0.9205497507085909
5.762376237623762,0.8383401850366207
5.782178217821782,0.7555465837614966
5.801980198019803,0.6723448675016575
5.821782178217822,0.58896552043941
5.841584158415841,0.5057378205191605
5.861386138613861,0.42318491055318797
5.881188118811881,0.3422496574278458
5.900990099009901,0.26489874376756617
5.920792079207921,0.19593055228694786
5.9405940594059405,0.1480586308319923
5.96039603960396,0.1443717405660863
5.98019801980198,0.18753138201607836
6.0,0.2546547515986759
6.01980198019802,0.33132938951535595
6.03960396039604,0.41205745438281055
6.0594059405940595,0.4946304121780115
6.079207920792079,0.578012180399046
6.099009900990099,0.661638669397058
6.118811881188119,0.7451604117365238
6.138613861386139,0.8283359083697331
6.158415841584159,0.9109826438895543
6.178217821782178,0.992952620899431
6.198019801980198,1.0741192802241788
6.217821782178218,1.1543701095150705
6.237623762376237,1.2336022726561808
6.257425742574258,1.3117199280279501
6.2772277227722775,1.3886325332205016
6.297029702970296,1.4642537479893
6.316831683168317,1.538500711998286
6.336633663366337,1.6112935640746895
6.356435643564356,1.6825551209550074
6.376237623762377,1.752210663619673
6.396039603960396,1.8201877975423912
6.415841584158415,1.8864163645105387
6.435643564356436,1.9508283908844737
6.455445544554456,2.0133580618547033
6.475247524752475,2.0739417143678947
6.495049504950495,2.13251784349446
6.514851485148515,2.189027118453893
6.534653465346534,2.2434124055204787
6.554455445544554,2.295618795743813
6.574257425742575,2.3455936359286036
6.594059405940594,2.393286561688436
6.6138613861386135,2.4386495316600594
6.633663366336634,2.481636862166208
6.653465346534653,2.5222052617669233
6.673267326732673,2.5603138652535846
6.693069306930694,2.595924266728349
6.712871287128713,2.629000551479598
6.732673267326732,2.659509326417004
6.752475247524753,2.6874197488724287
6.772277227722772,2.712703553605925
6.792079207920792,2.7353350778835437
6.811881188118813,2.755291284515741
6.8316831683168315,2.772551782763453
6.851485148514851,2.7870988470345237
6.871287128712871,2.7989174333059017
6.891089108910891,2.8079951932186336
6.910891089108911,2.8143224858026445
6.930693069306931,2.8178923867969137
6.9504950495049505,2.8187006955390888
6.97029702970297,2.8167459394060934
6.99009900990099,2.812029375794192
7.00990099009901,2.8045549916344767
7.02970297029703,2.7943295004460844
7.0495049504950495,2.781362336936942
7.069306930693069,2.765665649168948
7.089108910891089,2.747254288312223
7.108910891089109,2.726145796021447
7.128712871287128,2.7023603894765023
7.148514851485149,2.6759209441401883
7.1683168316831685,2.646852974297346
7.188118811881187,2.615184611453895
7.207920792079208,2.580946580690385
7.227722772277228,2.5441721750844284
7.247524752475247,2.5048972283401736
7.267326732673268,2.463160085792217
7.287128712871287,2.419001573988019
7.306930693069306,2.372464969098817
7.326732673267327,2.323595964467572
7.346534653465347,2.272442637677751
7.366336633663366,2.219055417624838
7.3861386138613865,2.1634870522008236
7.405940594059406,2.105792577372765
7.425742574257425,2.046029288665328
7.445544554455446,1.9842567163679108
7.465346534653466,1.9205366062132108
7.485148514851485,1.8549329078662884
7.504950495049505,1.7875117743969966
7.524752475247524,1.7183415770985404
7.544554455445544,1.64749294173887
7.564356435643565,1.575038814870402
7.584158415841584,1.5010545726272992
7.603960396039604,1.425618190250391
7.623762376237624,1.3488104996438048
7.643564356435643,1.2707155767384066
7.663366336633663,1.191421324141404
7.683168316831684,1.1110203545087127
7.702970297029703,1.0296113496334316
7.7227722772277225,0.9473011958056602
7.742574257425743,0.864208432240223
7.762376237623762,0.780469015479927
7.782178217821782,0.6962463743961
7.801980198019803,0.6117498909359433
7.821782178217822,0.527271124897251
7.841584158415841,0.4432607090484254
7.861386138613862,0.36050857404232706
7.881188118811881,0.28062077568462407
7.900990099009901,0.20745834784891815
7.92079207920792,0.15163323207539353
7.9405940594059405,0.13675153598784176
7.96039603960396,0.17376461496959525
7.980198019801979,0.2396670366294345
8.0,0.3167739338948998
8.01980198019802,0.3984409781189517
8.03960396039604,0.4821333303449013
8.05940594059406,0.566711016639919
8.07920792079208,0.6515721322872725
8.099009900990099,0.736351736527281
8.118811881188119,0.8208012613160672
8.138613861386139,0.9047345406577215
8.158415841584159,0.9880013891736221
8.178217821782178,1.0704736989290888
8.198019801980198,1.1520376829737384
8.217821782178218,1.2325893373251906
8.237623762376238,1.3120316813808495
8.257425742574258,1.390273026923379
8.277227722772277,1.467225865717202
8.297029702970297,1.542806141849597
8.316831683168317,1.6169327704454513
8.336633663366337,1.6895273181876713
8.356435643564357,1.760513792454181
8.376237623762377,1.8298185047497715
8.396039603960396,1.897369985768193
8.415841584158416,1.9630989368019773
8.435643564356436,2.0269382069955673
8.455445544554456,2.088822789094125
8.475247524752476,2.1486898284640685
8.495049504950495,2.206478641614278
8.514851485148515,2.2621307414572027
8.534653465346535,2.3155898672608113
8.554455445544555,2.366802017751749
8.574257425742575,2.4157154861979544
8.594059405940595,2.462280896569061
8.613861386138613,2.5064512400728107
8.633663366336634,2.5481819115152584
8.653465346534654,2.587430745046037
8.673267326732672,2.624158048936439
8.693069306930694,2.6583266391052156
8.712871287128714,2.689901871159228
8.732673267326732,2.718851670757273
8.752475247524753,2.7451465621384292
8.772277227722773,2.7687596946827284
8.792079207920791,2.78966686739367
8.811881188118813,2.807846551210168
8.831683168316832,2.8232799090700706
8.85148514851485,2.8359508136609093
8.871287128712872,2.8458458628038303
8.891089108910892,2.8529543924268372
8.91089108910891,2.8572684870919667
8.930693069306932,2.8587829880488687
8.950495049504951,2.857495498794613
8.97029702970297,2.8534063881266665
8.990099009900991,2.846518790682352
9.00990099009901,2.836838604964927
9.029702970297029,2.8243744888632856
9.04950495049505,2.8091378526787762
9.06930693069307,2.791142849680256
9.089108910891088,2.7704063642160275
9.10891089108911,2.746947997420178
9.12871287128713,2.7207900505599323
9.148514851485148,2.691957506081892
9.16831683168317,2.6604780064273026
9.188118811881187,2.6263818307013445
9.207920792079207,2.5897018692988625
9.227722772277229,2.5504735966104826
9.247524752475247,2.508735041958421
9.267326732673267,2.4645267589444346
9.287128712871288,2.4178917934318576
9.306930693069306,2.368875650435579
9.326732673267326,2.3175262602594398
9.346534653465348,2.263893944305516
9.366336633663366,2.2080313810918994
9.386138613861386,2.149993573162731
9.405940594059407,2.0898378157725928
9.425742574257425,2.0276236684947793
9.445544554455445,1.9634129312689412
9.465346534653467,1.8972696269120504
9.485148514851485,1.8292599928284685
9.504950495049505,1.7594524856699711
9.524752475247526,1.687917804161292
9.544554455445544,1.6147289374576264
9.564356435643564,1.539961249611815
9.584158415841586,1.4636926156161845
9.603960396039604,1.3860036320769729
9.623762376237623,1.3069779376471504
9.643564356435645,1.226702698015921
9.663366336633663,1.1452693432355496
9.683168316831683,1.0627747022392695
9.702970297029704,0.9793227817488301
9.722772277227723,0.8950276279012388
9.742574257425742,0.8100180828995373
9.762376237623764,0.7244460213519335
9.782178217821782,0.6385013503073333
9.801980198019802,0.5524410867313175
9.821782178217823,0.4666502769556335
9.841584158415841,0.38178269505636075
9.861386138613861,0.2991280258287962
9.881188118811881,0.22171921444844528
9.900990099009901,0.15804848896482016
9.92079207920792,0.13057525576400628
9.94059405940594,0.15943650483596003
9.96039603960396,0.22377345230480508
9.98019801980198,0.3015535975294327
10.0,0.3845222670923306
10.01980198019802,0.46972028185405523
10.03960396039604,0.5558827845864543
10.05940594059406,0.6423654430485656
10.07920792079208,0.7287870014955522
10.099009900990099,0.8148918266290879
10.118811881188119,0.9004902238364976
10.138613861386139,0.9854298858662963
10.158415841584159,1.0695811384522425
10.178217821782178,1.1528288279699264
10.198019801980198,1.235067631817449
10.217821782178218,1.3161992354060386
10.237623762376238,1.396130576932504
10.257425742574258,1.4747727283404253
10.277227722772277,1.5520401688081646
10.297029702970297,1.627850307847872
10.316831683168317,1.7021231713358649
10.336633663366337,1.7747811963227158
10.356435643564357,1.8457490998872548
10.376237623762377,1.9149537992175314
10.396039603960396,1.9823243676057092
10.415841584158416,2.047792015876243
10.435643564356436,2.1112900919438204
10.455445544554454,2.1727540933259606
10.475247524752476,2.232121688886007
10.495049504950495,2.289332747087016
10.514851485148514,2.344329368742894
10.534653465346535,2.3970559227566817
10.554455445544555,2.447459083698558
10.574257425742573,2.4954878703420467
10.594059405940595,2.541093684472345
10.613861386138614,2.5842303494278895
10.633663366336632,2.624854147946458
10.653465346534654,2.662923858972039
10.673267326732674,2.6984007931437337
10.693069306930692,2.731248826738699
