Frequency (Hz),Amplitude
0.0,3.2022109340412737
0.019867549668874173,3.201239138102891
0.039735099337748346,3.1983258507487764
0.059602649006622516,3.1934773770973033
0.07947019867549669,3.186704238158079
0.09933774834437085,3.1780211896479167
0.11920529801324503,3.167447248526199
0.13907284768211922,3.1550057274381094
0.15894039735099338,3.140724277300995
0.17880794701986755,3.124634938309987
0.1986754966887417,3.106774199671793
0.2185430463576159,3.08718306839721
0.23841059602649006,3.065907147490484
0.2582781456953642,3.0429967238620783
0.27814569536423844,3.018506866255977
0.2980132450331126,2.9924975334157957
0.31788079470198677,2.9650336926080016
0.33774834437086093,2.9361854484645695
0.3576158940397351,2.9060281818892686
0.3774834437086093,2.8746426984765514
0.3973509933774834,2.8421153855019017
0.4172185430463576,2.8085383760365574
0.4370860927152318,2.7740097180952263
0.45695364238410596,2.7386335459151807
0.4768211920529801,2.7025202494617266
0.49668874172185434,2.6657866370288272
0.5165562913907285,2.6285560843270885
0.5364238410596026,2.5909586617008014
0.5562913907284769,2.553131229077728
0.5761589403973509,2.5152174859310943
0.5960264900662252,2.477367960949878
0.6158940397350993,2.439739923332955
0.6357615894039735,2.402497194756947
0.6556291390728477,2.3658098382919572
0.6754966887417219,2.3298536981088978
0.695364238410596,2.2948097620821484
0.7152317880794702,2.260863318783959
0.7350993377483444,2.2282028814217356
0.7549668874172186,2.197018854577688
0.7748344370860927,2.1675019257692614
0.7947019867549668,2.1398411733732607
0.8145695364238411,2.1142218956618577
0.8344370860927152,2.090823182551166
0.8543046357615894,2.0698152716311347
0.8741721854304636,2.0513567519785596
0.8940397350993378,2.0355917013332365
0.9139072847682119,2.0226468620302986
0.9337748344370861,2.0126289758541533
0.9536423841059603,2.005622404967883
0.9735099337748344,2.0016871630610544
0.9933774834437087,2.00085746669129
1.0132450331125828,2.0031408917677607
1.033112582781457,2.008518186156612
1.0529801324503312,2.016943749840133
1.0728476821192052,2.0283467532441475
1.0927152317880795,2.0426328267881004
1.1125827814569538,2.0596862243788894
1.1324503311258278,2.0793723432243967
1.1523178807947019,2.1015404731853553
1.1721854304635762,2.126026650526438
1.1920529801324504,2.1526565016834485
1.2119205298013245,2.1812479800170914
1.2317880794701985,2.2116139196604583
1.2516556291390728,2.2435643528374993
1.271523178807947,2.2769085582652133
1.2913907284768211,2.311456826932502
1.3112582781456954,2.3470219468082645
1.3311258278145695,2.383420419578366
1.3509933774834437,2.420473430485918
1.370860927152318,2.458007597171552
1.390728476821192,2.495855525644831
1.410596026490066,2.533856201766976
1.4304635761589404,2.571855245457678
1.4503311258278146,2.6097050527463463
1.4701986754966887,2.6472648481710546
1.4900662251655628,2.684400667189678
1.5099337748344372,2.7209852854248058
1.5298013245033113,2.7568981088632496
1.5496688741721854,2.7920250366596417
1.5695364238410596,2.826258305996213
1.5894039735099337,2.859496326543167
1.609271523178808,2.8916435104386418
1.6291390728476822,2.9226101023455766
1.6490066225165563,2.952312013020106
1.6688741721854303,2.9806706589124987
1.6887417218543048,3.0076128095882426
1.7086092715231789,3.0330704441781497
1.728476821192053,3.0569806176139145
1.7483443708609272,3.0792853370604893
1.7682119205298013,3.0999314486974767
1.7880794701986755,3.118870534812977
1.8079470198675496,3.136058821040868
1.8278145695364238,3.15145709348493
1.847682119205298,3.1650306254217817
1.8675496688741722,3.1767491132493837
1.8874172185430464,3.1865866213469363
1.9072847682119205,3.194521535524752
1.9271523178807946,3.200536524770983
1.9470198675496688,3.2046185110379457
1.9668874172185429,3.2067586468551434
1.9867549668874174,3.206952300604732
2.0066225165562916,3.205199049348302
2.0264900662251657,3.201502679148136
2.0463576158940397,3.195871192882697
2.066225165562914,3.1883168256119117
2.086092715231788,3.178856067603021
2.1059602649006623,3.167509695181074
2.1258278145695364,3.1543028096175423
2.1456953642384105,3.139264884315679
2.165562913907285,3.122429820588857
2.185430463576159,3.103836012356949
2.205298013245033,3.083526420102232
2.2251655629139075,3.0615486544258976
2.2450331125827816,3.037955069525755
2.2649006622516556,3.0128028668674345
2.2847682119205297,2.9861542092381894
2.3046357615894038,2.9580763452464818
2.324503311258278,2.928641744147723
2.3443708609271523,2.8979282406264475
2.364238410596027,2.866019188829037
2.384105960264901,2.833003624501188
2.403973509933775,2.7989764335179155
2.423841059602649,2.764038524376412
2.443708609271523,2.7282970013255756
2.463576158940397,2.691865333701824
2.4834437086092715,2.6548635156991
2.5033112582781456,2.6174182091961606
2.52317880794702,2.579662860374518
2.543046357615894,2.5417377786792685
2.562913907284768,2.5037901642122584
2.5827814569536423,2.4659740669443115
2.6026490066225163,2.4284502582730205
2.622516556291391,2.3913859925732526
2.642384105960265,2.3549546336995966
2.662251655629139,2.319335119198859
2.6821192052980134,2.2847112336682613
2.7019867549668874,2.25127066273718
2.7218543046357615,2.2192038011248085
2.741721854304636,2.1887022927414397
2.76158940397351,2.1599572884365394
2.781456953642384,2.133157418202044
2.801324503311258,2.108486489597519
2.821192052980132,2.0861209426381944
2.8410596026490067,2.066227112578736
2.8609271523178808,2.0489583744752884
2.8807947019867552,2.0344522649969177
2.9006622516556293,2.022827695050147
2.9205298013245033,2.0141823785315207
2.9403973509933774,2.0085906053318254
2.9602649006622515,2.00610147875792
2.9801324503311255,2.006737718258782
3.0,2.0104950987685353
3.0198675496688745,2.0173425607391713
3.0397350993377485,2.0272229839288154
3.0596026490066226,2.0400545777861825
3.0794701986754967,2.0557328062378653
3.0993377483443707,2.0741327383693355
3.119205298013245,2.0951117009960467
3.1390728476821192,2.118512104921162
3.1589403973509933,2.1441643227391043
3.1788079470198674,2.1718895102247004
3.198675496688742,2.2015022829062842
3.218543046357616,2.232813181543064
3.23841059602649,2.2656308824274194
3.2582781456953644,2.2997641288108746
3.2781456953642385,2.335023377078892
3.2980132450331126,2.37122216497968
3.3178807947019866,2.408178219169477
3.3377483443708607,2.4457143258587917
3.3576158940397347,2.483658991937577
3.3774834437086096,2.52184692521996
3.3973509933774837,2.5601193619801887
3.4172185430463577,2.5983242682929526
3.437086092715232,2.63631643929776
3.456953642384106,2.673957517736024
3.47682119205298,2.7111159502262763
3.4966887417218544,2.747666896931776
3.5165562913907285,2.783492107652864
3.5364238410596025,2.8184797750119075
3.556291390728477,2.8525243733202004
3.576158940397351,2.8855264899280817
3.596026490066225,2.9173926543490953
3.615894039735099,2.9480351691924565
3.6357615894039736,2.9773719459091876
3.6556291390728477,3.005326347525134
3.6754966887417218,3.031827039871476
3.695364238410596,3.056807852302405
3.7152317880794703,3.0802076484877183
3.7350993377483444,3.101970207562571
3.754966887417219,3.1220441156910965
3.774834437086093,3.1403826679385407
3.794701986754967,3.1569437802356353
3.814569536423841,3.1716899111488424
3.834437086092715,3.1845879931316725
3.854304635761589,3.195609372919118
3.8741721854304636,3.2047297607331906
3.8940397350993377,3.2119291879885417
3.9139072847682117,3.2171919732193235
3.9337748344370858,3.2205066959893025
3.9536423841059607,3.2218661785940066
3.9735099337748347,3.221267475415219
3.993377483443709,3.21871186984261
4.013245033112583,3.2142048787332533
4.033112582781457,3.2077562644369295
4.052980132450331,3.199380054471484
4.072847682119205,3.1890945689876586
4.0927152317880795,3.1769224562154346
4.112582781456953,3.1628907361323826
4.132450331125828,3.1470308526373825
4.152317880794702,3.1293787345479878
4.172185430463576,3.1099748657641944
4.19205298013245,3.0888643649516436
4.211920529801325,3.066097075089462
4.231788079470199,3.041727663196379
4.251655629139073,3.0158157304864766
4.271523178807947,2.9884259331053182
4.291390728476821,2.959628113447006
4.311258278145695,2.929497441841461
4.33112582781457,2.898114568113414
4.3509933774834435,2.8655657821323697
4.370860927152318,2.831943181976289
4.390728476821192,2.797344847695721
4.410596026490066,2.7618750178646962
4.43046357615894,2.7256442651091555
4.450331125827815,2.688769665584864
4.470198675496689,2.651374955903624
4.490066225165563,2.613590669255958
4.509933774834438,2.5755542404322465
4.529801324503311,2.537410067102609
4.549668874172186,2.499309512100372
4.569536423841059,2.461410828623279
4.589403973509934,2.4238789873269
4.6092715231788075,2.386885381406115
4.629139072847682,2.350607383193274
4.649006622516556,2.3152277238879617
4.66887417218543,2.280933667214171
4.688741721854305,2.247915948611914
4.708609271523179,2.21636745461365
4.728476821192054,2.1864816229514594
4.748344370860927,2.158450553235729
4.768211920529802,2.132462831100159
4.788079470198675,2.10870108554011
4.80794701986755,2.0873393193057193
4.827814569536423,2.0685400745452176
4.847682119205298,2.0524515186352135
4.867549668874172,2.039204555862845
4.887417218543046,2.0289100865096423
4.9072847682119205,2.021656543075199
4.927152317880794,2.0175078315043184
4.947019867549669,2.0165017920100756
4.966887417218543,2.018649269552391
4.986754966887418,2.023933850037994
5.006622516556291,2.0323122781801346
5.026490066225166,2.043715531060501
5.04635761589404,2.0580504824453207
5.066225165562914,2.075202060989322
5.086092715231788,2.0950357835958204
5.105960264900662,2.1174005347727234
5.125827814569536,2.1421314635749957
5.14569536423841,2.1690528800176683
5.1655629139072845,2.197981050145388
5.185430463576159,2.2287268103682014
5.205298013245033,2.2610979444639097
5.225165562913908,2.294901288531697
5.245033112582782,2.3299445485403325
5.264900662251656,2.3660378310103196
5.28476821192053,2.4029948994632404
5.304635761589404,2.440634177680666
5.324503311258278,2.4787795259558107
5.344370860927152,2.517260818966486
5.364238410596027,2.555914354268814
5.3841059602649,2.594583119293043
5.403973509933775,2.6331169426296333
5.4238410596026485,2.6713725527394883
5.443708609271523,2.7092135643255006
5.463576158940397,2.746510409691574
5.483443708609272,2.783140229642535
5.503311258278146,2.8189867359376275
5.52317880794702,2.853940055048911
5.543046357615895,2.887896561010484
5.562913907284768,2.920758703469519
5.582781456953643,2.9524348356462924
5.602649006622516,2.9828390457521974
5.622516556291391,3.0118909944725116
5.642384105960264,3.03951576036423
5.662251655629139,3.065643694421324
5.682119205298013,3.090210284593952
5.701986754966887,3.11315603069081
5.7218543046357615,3.1344263298269794
5.741721854304636,3.1539713723840572
5.7615894039735105,3.1717460483127007
5.781456953642384,3.187709863516917
5.801324503311259,3.2018268660055704
5.821192052980132,3.214065581471137
5.841059602649007,3.2243989579528805
5.860927152317881,3.232804319255876
5.880794701986755,3.239263326824731
5.900662251655629,3.243761949808475
5.920529801324503,3.246290443097606
5.940397350993377,3.2468433331649553
5.960264900662251,3.2454194115956043
5.980132450331126,3.2420217362479686
6.0,3.2366576400455975
6.0198675496688745,3.2293387474574473
6.039735099337749,3.2200809987815644
6.059602649006623,3.208904682402394
6.079470198675497,3.1958344752441916
6.099337748344371,3.1808994916904414
6.119205298013245,3.1641333412799426
6.139072847682119,3.145574195522261
6.158940397350993,3.1252648641948055
6.178807947019867,3.1032528814879523
6.198675496688741,3.0795906023473973
6.218543046357616,3.054335309319738
6.23841059602649,3.027549330128908
6.258278145695365,2.9993001660896366
6.2781456953642385,2.9696606312873275
6.298013245033113,2.9387090022083124
6.317880794701987,2.9065291771734403
6.337748344370861,2.873210844492552
6.357615894039735,2.838849657694067
6.377483443708609,2.8035474154679583
6.397350993377484,2.7674122430625547
6.417218543046357,2.730558770765703
6.437086092715232,2.6931083037480312
6.456953642384105,2.6551889759218623
6.47682119205298,2.616935878549758
6.496688741721854,2.578491152111928
6.516556291390729,2.540004027417915
6.5364238410596025,2.5016307991629163
6.556291390728477,2.4635347121609152
6.5761589403973515,2.425885737470996
6.596026490066225,2.3888602127776752
6.6158940397351,2.3526403189872855
6.635761589403973,2.317413363456067
6.655629139072848,2.283370840069296
6.675496688741721,2.250707238130132
6.695364238410596,2.2196185763286054
6.715231788079469,2.190300645563771
6.735099337748344,2.162946955582428
6.754966887417219,2.1377463955115443
6.774834437086093,2.114880637213915
6.794701986754967,2.094521332223178
6.814569536423841,2.0768271763672765
6.8344370860927155,2.0619409389146277
6.854304635761589,2.0499865724576014
6.874172185430464,2.0410665327983564
6.894039735099337,2.035259442045494
6.913907284768212,2.032618220948673
6.933774834437086,2.0331687974699255
6.95364238410596,2.036909468637749
6.973509933774834,2.043810954474035
6.993377483443709,2.0538171402266223
7.013245033112583,2.066846461024533
7.033112582781457,2.0827938460635655
7.052980132450331,2.10153311131231
7.072847682119205,2.1229196728205304
7.0927152317880795,2.1467934476199524
7.112582781456954,2.1729818149372657
7.132450331125828,2.2013025247957843
7.152317880794702,2.231566461215078
7.172185430463576,2.2635801901685357
7.19205298013245,2.297148245600399
7.211920529801324,2.3320751281147314
7.231788079470198,2.368167009110747
7.251655629139073,2.4052331475082784
7.271523178807947,2.443087036684266
7.291390728476822,2.4815473061216156
7.311258278145695,2.5204384060784726
7.33112582781457,2.559591104946059
7.3509933774834435,2.598842828504355
7.370860927152318,2.638037868575446
7.390728476821192,2.6770274860929733
7.410596026490066,2.715669930727214
7.430463576158941,2.7538303962081097
7.450331125827814,2.7913809275653128
7.470198675496689,2.8282002937795516
7.490066225165562,2.8641738368823373
7.509933774834438,2.8991933063831037
7.52980132450331,2.93315668604747
7.549668874172186,2.965968018483571
7.569536423841059,2.997537231692551
7.589403973509934,3.027779970673447
7.6092715231788075,3.05661743631286
7.629139072847682,3.083976233104945
7.649006622516557,3.1097882267101187
7.66887417218543,3.1339904119463147
7.6887417218543055,3.1565247914928367
7.708609271523178,3.1773382653546447
7.728476821192054,3.196382530969181
7.748344370860927,3.2136139937245933
7.768211920529802,3.2289936875867133
7.788079470198675,3.2424872054938083
7.80794701986755,3.254064639165388
7.827814569536423,3.2637005279784415
7.847682119205298,3.271373816586897
7.8675496688741715,3.277067820994102
7.887417218543046,3.280770202830963
7.907284768211921,3.282472951641457
7.927152317880795,3.2821723750310547
7.9470198675496695,3.279869096590409
7.966887417218543,3.275568061565811
7.986754966887418,3.2692785503069497
8.006622516556291,3.2610141995827022
8.026490066225167,3.25079303191337
8.046357615894038,3.238637493123557
8.066225165562914,3.2245744983723683
8.086092715231787,3.2086354869632854
8.105960264900663,3.190856486275453
8.125827814569536,3.1712781851862437
8.14569536423841,3.149946017369692
8.165562913907285,3.126910254851729
8.185430463576159,3.1022261121760453
8.205298013245034,3.075953861476705
8.225165562913906,3.048158958657059
8.245033112582782,3.018912180728277
8.264900662251655,2.9882897741525225
8.28476821192053,2.9563736137501104
8.304635761589404,2.92325137134777
8.324503311258278,2.889016692846142
8.344370860927151,2.8537693817427576
8.364238410596027,2.817615586334976
8.3841059602649,2.780667986814694
8.403973509933774,2.7430459772204077
8.42384105960265,2.7048758357022704
8.443708609271523,2.6662908747522702
8.463576158940398,2.627431560935941
8.483443708609272,2.5884455912289597
8.503311258278146,2.5494879103305728
8.52317880794702,2.510720650350494
8.543046357615895,2.472312971152494
8.562913907284768,2.4344407765547906
8.582781456953642,2.397286278791397
8.602649006622515,2.3610373814787513
8.62251655629139,2.32588685026796
8.642384105960264,2.2920312409551458
8.66225165562914,2.259669557709214
8.682119205298013,2.229001619923171
8.701986754966887,2.2002261256050275
8.721854304635762,2.1735384126109367
8.741721854304636,2.1491279364575053
8.76158940397351,2.1271755044834078
8.781456953642383,2.1078503296540463
8.801324503311259,2.091306991466708
8.821192052980132,2.0776824136802214
8.841059602649008,2.067092985957249
8.86092715231788,2.0596319658980775
8.880794701986755,2.0553672967736283
8.90066225165563,2.054339963011971
8.920529801324504,2.056562980191592
8.940397350993377,2.0620210807692043
8.960264900662251,2.0706711144998664
8.980132450331126,2.08244313812372
9.0,2.0972421273978528
9.019867549668875,2.1149502104349485
9.039735099337747,2.1354292978101497
9.059602649006623,2.158523973547592
9.079470198675496,2.1840645116613087
9.099337748344372,2.2118698936781205
9.119205298013245,2.241750720814229
9.139072847682119,2.2735119371269725
9.158940397350994,2.306955304076238
9.178807947019868,2.3418815900737555
9.198675496688743,2.3780924590492285
9.218543046357615,2.4153920588235946
9.23841059602649,2.453588322798488
9.258278145695364,2.4924940072789825
9.27814569536424,2.531927492095446
9.298013245033111,2.5717133746945224
9.317880794701987,2.6116828881911136
9.33774834437086,2.6516741726373225
9.357615894039736,2.6915324265136746
9.37748344370861,2.7311099626207307
9.397350993377483,2.7702661894797433
9.417218543046358,2.808867536278449
9.437086092715232,2.8467873364801757
9.456953642384107,2.883905682547889
9.47682119205298,2.9201092618677715
9.496688741721854,2.9552911819040304
9.516556291390728,2.989350790871144
9.536423841059603,3.0221934987505144
9.556291390728477,3.0537306022767767
9.57615894039735,3.083879116543617
9.596026490066224,3.112561615098441
9.6158940397351,3.1397060797788847
9.635761589403973,3.1652457610659672
9.655629139072847,3.1891190493631125
9.675496688741722,3.211269357337918
9.695364238410596,3.231645013265316
9.715231788079471,3.2501991651730915
9.735099337748345,3.266889695500481
9.754966887417218,3.2816791459274373
9.774834437086092,3.2945346520095007
9.794701986754967,3.305427887252325
9.814569536423841,3.3143350162771847
9.834437086092716,3.321236656759495
9.854304635761588,3.3261178498630404
9.874172185430464,3.328968038940573
9.894039735099337,3.329781056325851
9.913907284768213,3.3285551180991098
9.933774834437086,3.3252928267684747
9.95364238410596,3.320001181871464
9.973509933774835,3.312691598562187
9.993377483443709,3.3033799343115557
10.013245033112582,3.292086523907017
10.033112582781456,3.2788362229947112
10.052980132450331,3.2636584604590215
10.072847682119205,3.2465872999797813
10.09271523178808,3.227661511143671
10.112582781456952,3.2069246505111932
10.132450331125828,3.184425153048696
10.152317880794701,3.160216434322905
10.172185430463577,3.1343570038156394
10.192052980132452,3.106910589641881
10.211920529801324,3.0779462748354325
10.2317880794702,3.047538645190422
10.251655629139073,3.015767948400443
10.271523178807948,2.982720263902144
10.29139072847682,2.9484876823862542
10.311258278145695,2.913168493362325
10.331125827814569,2.8768673784261725
10.350993377483444,2.8396956069513823
10.370860927152318,2.8017712297733786
10.390728476821192,2.7632192650251546
10.410596026490065,2.7241718685828142
10.43046357615894,2.6847684795621496
10.450331125827816,2.6451559289579105
10.470198675496688,2.6054884968399414
10.490066225165563,2.5659279005492728
10.509933774834437,2.5266431931501607
10.529801324503312,2.4878105481295725
10.549668874172186,2.4496129032082705
10.56953642384106,2.412239433448812
10.589403973509933,2.375884822033857
10.609271523178808,2.3407482966751996
10.629139072847682,2.307032401230147
10.649006622516556,2.2749414764418256
10.66887417218543,2.244679831465375
10.688741721854305,2.216449599554258
10.70860927152318,2.1904482872487145
10.728476821192054,2.166866046471224
10.748344370860927,2.145882722307492
10.7682119205298,2.127664754402467
