Time (s),Filtered Signal
0.0,0.024567329817286952
0.03337028824833703,-0.30332701823092284
0.06674057649667406,-0.5895864951726664
0.10011086474501109,-0.7935508398345164
0.13348115299334812,-0.8796329583239361
0.16685144124168516,-0.824045224559155
0.20022172949002218,-0.6229515368597504
0.2335920177383592,-0.29846009092628145
0.26696230598669624,0.1014829736969884
0.3003325942350333,0.5113189841925324
0.3337028824833703,0.8627106261199409
0.3670731707317073,1.101191809877816
0.40044345898004435,1.198768604401132
0.4338137472283814,1.1584124365932138
0.4671840354767184,1.0099160737384347
0.5005543237250555,0.7997169354101756
0.5339246119733925,0.5784993442740504
0.5672949002217295,0.38967415317283877
0.6006651884700666,0.2604272618853105
0.6340354767184035,0.19621126205496559
0.6674057649667406,0.17965248814568804
0.7007760532150776,0.1750853846527646
0.7341463414634146,0.1391839280046845
0.7675166297117517,0.03600953312319317
0.8008869179600887,-0.14792837220238278
0.8342572062084257,-0.39457494095681667
0.8676274944567628,-0.6560997416101855
0.9009977827050998,-0.868589639165989
0.9343680709534368,-0.9736489357598819
0.9677383592017739,-0.9400561328570841
1.001108647450111,-0.7769885322644886
1.0344789356984478,-0.533260867076606
1.067849223946785,-0.28224771046018143
1.101219512195122,-0.09753256102060358
1.134589800443459,-0.027849517514202105
1.167960088691796,-0.08033078657602408
1.2013303769401331,-0.2182491477427376
1.23470066518847,-0.3742501586887912
1.268070953436807,-0.4743489659319796
1.3014412416851442,-0.46394274158186294
1.3348115299334813,-0.326434436742056
1.3681818181818182,-0.08806302386105579
1.4015521064301553,0.19211626078202307
1.4349223946784924,0.4427372637549058
1.4682926829268292,0.6033875653595222
1.5016629711751663,0.6426421141702917
1.5350332594235034,0.5653920296740771
1.5684035476718403,0.4080471313738163
1.6017738359201774,0.22428663998101828
1.6351441241685145,0.06691309632512238
1.6685144124168514,-0.027793055262802794
1.7018847006651885,-0.04826255374275455
1.7352549889135256,-0.006619364609533556
1.7686252771618625,0.06963028316984168
1.8019955654101996,0.14879260339059916
1.8353658536585367,0.2044379957487866
1.8687361419068735,0.22043275847007981
1.9021064301552106,0.1916748915225619
1.9354767184035477,0.12259203385055174
1.9688470066518848,0.025492405773817055
2.002217294900222,-0.08069675475787061
2.035587583148559,-0.17248304133356776
2.0689578713968957,-0.22618003031187295
2.102328159645233,-0.22463749701102706
2.13569844789357,-0.16409590519853642
2.1690687361419068,-0.0576629741642081
2.202439024390244,0.06715636971515059
2.235809312638581,0.1766689011252107
2.269179600886918,0.24178362126044586
2.302549889135255,0.24690243680402627
2.335920177383592,0.19346185242799194
2.369290465631929,0.09735504467250819
2.4026607538802662,-0.01778259068321636
2.436031042128603,-0.1280343708259872
2.46940133037694,-0.21447695388485588
2.5027716186252773,-0.2651303040198376
2.536141906873614,-0.2744178923820075
2.569512195121951,-0.24200589502413236
2.6028824833702884,-0.1725054919675946
2.6362527716186253,-0.07612444644654318
2.6696230598669626,0.031026539775138008
2.7029933481152995,0.1286270951471425
2.7363636363636363,0.19651081175861135
2.7697339246119737,0.22061898752168563
2.8031042128603105,0.19805458049408878
2.8364745011086474,0.13862436657970126
2.8698447893569847,0.06163466454828112
2.9032150776053216,-0.011065934214016152
2.9365853658536585,-0.06288531728002121
2.969955654101996,-0.08766213078480505
3.0033259423503327,-0.08992890078934784
3.0366962305986696,-0.08034737355130447
3.070066518847007,-0.06877208040401403
3.1034368070953438,-0.05856786555552331
3.1368070953436806,-0.045173834658448056
3.170177383592018,-0.019755813242759903
3.203547671840355,0.02386132661641551
3.2369179600886917,0.0826572982964668
3.270288248337029,0.14205506841249452
3.303658536585366,0.1796562288176005
3.337028824833703,0.17395386724892192
3.37039911308204,0.11416926784778043
3.403769401330377,0.006429105307793434
3.437139689578714,-0.12697054711748326
3.470509977827051,-0.25515798177994253
3.503880266075388,-0.3497301927868102
3.537250554323725,-0.39426105977962494
3.5706208425720622,-0.3882885487885189
3.603991130820399,-0.34471428998594356
3.637361419068736,-0.28269309552478283
3.6707317073170733,-0.21978853978304144
3.70410199556541,-0.16672956608061873
3.737472283813747,-0.12610954072341096
3.7708425720620844,-0.09420446009701579
3.8042128603104213,-0.0639949303896743
3.8375831485587586,-0.02780772961004786
3.8709534368070955,0.02088349599502154
3.9043237250554323,0.08606879672355708
3.9376940133037697,0.16777709489235235
3.9710643015521065,0.26086822288531253
4.004434589800444,0.3549619217077324
4.037804878048781,0.43634471212027287
4.071175166297118,0.49175458086342877
4.1045454545454545,0.5127330278106516
4.137915742793791,0.4986199207452526
4.171286031042128,0.4567434860467491
4.204656319290466,0.399681670070225
4.238026607538803,0.34083693163756373
4.27139689578714,0.2901828091588641
4.304767184035477,0.2516650383093179
4.3381374722838135,0.22278375548767843
4.371507760532151,0.1960293326839912
4.404878048780488,0.16150292001265024
4.438248337028825,0.11010466779941573
4.471618625277162,0.03670627770983306
4.504988913525499,-0.057469110552092764
4.538359201773836,-0.16420577934962755
4.571729490022173,-0.2700313149915487
4.60509977827051,-0.3600595364934999
4.638470066518847,-0.4226090104176274
4.671840354767184,-0.4527553448534741
4.705210643015521,-0.4534114053060708
4.738580931263858,-0.4336939012802447
4.771951219512196,-0.405558445744885
4.8053215077605325,-0.3802832348566072
4.838691796008869,-0.3660639400236302
4.872062084257206,-0.3670376162883876
4.905432372505543,-0.38318704836906786
4.93880266075388,-0.4104234072739309
4.972172949002218,-0.44074399382300683
5.005543237250555,-0.4630687050640874
5.0389135254988915,-0.4653807482770064
5.072283813747228,-0.4379381229750693
5.105654101995565,-0.3762359570371065
5.139024390243902,-0.28206603419751486
5.17239467849224,-0.16189701436977716
5.205764966740577,-0.023401286244857152
5.239135254988914,0.12779288785145318
5.2725055432372505,0.28901211502819385
5.305875831485587,0.4582689943431053
5.339246119733925,0.6298414132083817
5.372616407982262,0.7901756150855547
5.405986696230599,0.9168335467730794
5.439356984478936,0.9820909009712233
5.472727272727273,0.9608321658145974
5.5060975609756095,0.8404582070473937
5.539467849223947,0.6293873509915002
5.572838137472284,0.3607329606158333
5.606208425720621,0.08880049389478493
5.639578713968958,-0.12212224883331886
5.672949002217295,-0.21493946515605766
5.706319290465632,-0.15882453149212425
5.7396895787139695,0.03567115613736045
5.773059866962306,0.3118371780283219
5.806430155210643,0.5769789937178168
5.83980044345898,0.7277751004456254
5.873170731707317,0.6847319380543709
5.906541019955654,0.42382638744466594
5.939911308203992,-0.008514839821491748
5.9732815964523285,-0.5064422806318787
6.006651884700665,-0.9405614410177056
6.040022172949002,-1.205369649931328
6.073392461197339,-1.2577555463064138
6.106762749445676,-1.1287412595290398
6.140133037694014,-0.9029473329174521
6.173503325942351,-0.6761279490924508
6.2068736141906875,-0.511953204345945
6.240243902439024,-0.41895651159656544
6.273614190687361,-0.3573770910263661
6.306984478935698,-0.2697994512276095
6.340354767184036,-0.11775033094862618
6.373725055432373,0.09513820366813074
6.40709534368071,0.32406365228155876
6.4404656319290465,0.505358485388909
6.473835920177383,0.5870090182878772
6.507206208425721,0.5518433356288582
6.540576496674058,0.42352171421806595
6.573946784922395,0.2549631760100877
6.607317073170732,0.10672374044145991
6.640687361419069,0.02560705164531877
6.674057649667406,0.03131970111330615
6.707427937915743,0.1138563599477529
6.74079822616408,0.2397633264054301
6.774168514412417,0.3634233060534981
6.807538802660754,0.4398504651956564
6.840909090909091,0.43659522657204275
6.874279379157428,0.3428065672820857
6.9076496674057655,0.1732066556070436
6.941019955654102,-0.035144998280976454
6.974390243902439,-0.23373364905209393
7.007760532150776,-0.37842646428735616
7.041130820399113,-0.44460725959875774
7.07450110864745,-0.43518695524964024
7.107871396895788,-0.37752371730924167
7.1412416851441245,-0.3101332053451985
7.174611973392461,-0.26497154301117126
7.207982261640798,-0.2534492843466248
7.241352549889135,-0.2627796995259631
7.274722838137472,-0.2643647107299576
7.30809312638581,-0.23001543824531526
7.341463414634147,-0.14782297056487986
7.3748337028824835,-0.029490067135529454
7.40820399113082,0.09495834026932852
7.441574279379157,0.1928356355386495
7.474944567627494,0.24707007813311818
7.508314855875832,0.2674581324364649
7.541685144124169,0.2881638780771744
7.575055432372506,0.35131455121429056
7.6084257206208425,0.48375211373496385
7.641796008869179,0.6782189829206893
7.675166297117517,0.8890617848796712
7.708536585365854,1.0460802286170927
7.741906873614191,1.0813460200727592
7.775277161862528,0.9570921409206282
7.808647450110865,0.6817937066091376
7.842017738359202,0.3071113933132114
7.875388026607539,-0.09234440277893845
7.908758314855876,-0.446408745762013
7.942128603104213,-0.7113394013498173
7.97549889135255,-0.8777839394392227
8.008869179600888,-0.9639334619321821
8.042239467849225,-1.000013517004189
8.075609756097561,-1.0128107226357315
8.108980044345898,-1.0165824551195897
8.142350332594235,-1.0118423712352405
8.175720620842572,-0.9894611341082086
8.209090909090909,-0.9362732441945477
8.242461197339246,-0.839681715723501
8.275831485587583,-0.6908043452882772
8.30920177383592,-0.48679084158958297
8.342572062084257,-0.23264474786390263
8.375942350332595,0.05793384250288398
8.409312638580932,0.3634294872586813
8.442682926829269,0.6572801693145869
8.476053215077606,0.9118756054887724
8.509423503325943,1.1027893150675796
8.54279379157428,1.2125037855983707
8.576164079822616,1.2332440243815406
8.609534368070953,1.1685370647573383
8.64290465631929,1.0328627352866766
8.676274944567627,0.8487851426555091
8.709645232815964,0.641649021966814
8.743015521064303,0.43311651042856086
8.77638580931264,0.2358299700265456
8.809756097560976,0.05157524093690352
8.843126385809313,-0.12584146560821524
8.87649667405765,-0.30386545143796617
8.909866962305987,-0.48352801986060895
8.943237250554324,-0.6546393889340907
8.97660753880266,-0.7966331542820136
9.009977827050998,-0.8852290830495667
9.043348115299334,-0.9020968104613617
9.076718403547671,-0.8429928457885555
9.110088691796008,-0.720438027336493
9.143458980044347,-0.5596583581252434
9.176829268292684,-0.38980084153068606
9.21019955654102,-0.23457792975502456
9.243569844789358,-0.10640729469522583
9.276940133037694,-0.006004888757160907
9.310310421286031,0.07344995397605032
9.343680709534368,0.14046200489078534
9.377050997782705,0.20078150764719493
9.410421286031042,0.2560460658496734
9.443791574279379,0.30513051775696787
9.477161862527716,0.3464604006911434
9.510532150776053,0.37955536819285063
9.543902439024391,0.4052150474330198
9.577272727272728,0.4250516805307122
9.610643015521065,0.44148907062473874
9.644013303769402,0.45856340597249995
9.677383592017739,0.4825089076357206
9.710753880266076,0.5203593644266382
9.744124168514412,0.5755363214310373
9.77749445676275,0.6415379548703102
9.810864745011086,0.6971875933230963
9.844235033259423,0.7077133654708289
9.87760532150776,0.6340240764505987
9.910975609756099,0.4482912298926078
9.944345898004435,0.14948264745618603
9.977716186252772,-0.22927930269548985
10.01108647450111,-0.6269388983937476
10.044456762749446,-0.9733163540906475
10.077827050997783,-1.2128204022433664
10.11119733924612,-1.322361091369597
10.144567627494457,-1.315380276287244
10.177937915742794,-1.2307761233896408
10.21130820399113,-1.1127491282982946
10.244678492239467,-0.9914035873871521
10.278048780487804,-0.8726743517178047
10.311419068736143,-0.7409993969921835
10.34478935698448,-0.5720637145601568
10.378159645232817,-0.3488268737423401
10.411529933481154,-0.07344096210846413
10.44490022172949,0.22973894672005427
10.478270509977827,0.5206867400924762
10.511640798226164,0.7566369189871326
10.545011086474501,0.906223485529372
10.578381374722838,0.9596540837431119
10.611751662971175,0.931406987345991
10.645121951219512,0.8545288201914358
10.67849223946785,0.7684494860788051
10.711862527716187,0.7046212795430586
10.745232815964524,0.6754163059716207
10.778603104212861,0.6708500658656058
10.811973392461198,0.6647319599614787
10.845343680709535,0.6277352996836698
10.878713968957872,0.541492167532925
10.912084257206208,0.4070326744121386
10.945454545454545,0.24346311491761782
10.978824833702882,0.07768851269364488
11.012195121951219,-0.06925082075012264
11.045565410199556,-0.1917165474202201
11.078935698447895,-0.2995531598472369
11.112305986696231,-0.40869361261961135
11.145676274944568,-0.5277994824857621
11.179046563192905,-0.648959952026868
11.212416851441242,-0.7483537810675457
11.245787139689579,-0.7970929563529561
11.279157427937916,-0.7764668539087388
11.312527716186253,-0.6890420668506293
11.34589800443459,-0.559242823883593
11.379268292682926,-0.4229040558214846
11.412638580931263,-0.31140067884150063
11.4460088691796,-0.2387469923052347
11.479379157427939,-0.1980186619678397
11.512749445676276,-0.16797510098289067
11.546119733924613,-0.12520310159695297
11.57949002217295,-0.0546808377081652
11.612860310421286,0.04643063272542614
11.646230598669623,0.17216020423737538
11.67960088691796,0.31408675273795583
11.712971175166297,0.46506929661689245
11.746341463414634,0.6172896857871347
11.77971175166297,0.7563574928260303
11.813082039911308,0.8569760806067733
11.846452328159646,0.8856427084821196
11.879822616407983,0.8117637368541456
11.91319290465632,0.6228369492700689
11.946563192904657,0.3356549272542059
11.979933481152994,-0.0035929363630738697
12.01330376940133,-0.3320833563484327
12.046674057649668,-0.5909204786091449
12.080044345898004,-0.7441115333588956
12.113414634146341,-0.7873166515953309
12.146784922394678,-0.7430797051180488
12.180155210643015,-0.6460817600275424
12.213525498891352,-0.5264990117007624
12.24689578713969,-0.39958416625354587
12.280266075388028,-0.265556536607216
12.313636363636364,-0.11827801636064249
12.347006651884701,0.04303867890591326
12.380376940133038,0.20583994016335452
12.413747228381375,0.3443967097652279
12.447117516629712,0.4283426133353574
12.480487804878049,0.4356976203650906
12.513858093126386,0.3642613144839499
12.547228381374723,0.23579257628256076
12.58059866962306,0.0904348827036351
12.613968957871396,-0.02688449067316449
12.647339246119735,-0.08268799674416262
12.680709534368072,-0.066998108328383
12.714079822616409,0.0040627865094407896
12.747450110864746,0.09642690312364656
12.780820399113082,0.1735878240172051
12.81419068736142,0.21269227622469383
12.847560975609756,0.21398591493734395
12.880931263858093,0.19913738207960358
12.91430155210643,0.19885549687355233
12.947671840354767,0.235189634500043
12.981042128603104,0.30675905760119293
13.014412416851442,0.38443686132390636
13.04778270509978,0.4207072460708818
13.081152993348116,0.3696561911435873
13.114523281596453,0.20911785740239808
13.14789356984479,-0.045371510018531125
13.181263858093127,-0.34212860792070193
13.214634146341464,-0.6107645654068918
13.2480044345898,-0.7882125005842425
13.281374722838137,-0.8415663231895539
13.314745011086474,-0.7772973334865562
13.348115299334811,-0.6331840226797979
13.381485587583148,-0.45801234852315564
13.414855875831487,-0.29002549293428115
13.448226164079824,-0.1449451925590697
13.48159645232816,-0.01835061599183562
13.514966740576497,0.10110281459533696
13.548337028824834,0.2168535305907783
13.581707317073171,0.31717737337273644
13.615077605321508,0.37930295043729
13.648447893569845,0.38158142373474974
13.681818181818182,0.3159644971697801
13.715188470066519,0.19368994598167405
13.748558758314855,0.04178244404489878
13.781929046563192,-0.10667846188407994
13.815299334811531,-0.2229095966574043
13.848669623059868,-0.2888515462614398
13.882039911308205,-0.29841236459788495
13.915410199556542,-0.25518676519785477
13.948780487804878,-0.16918887198050606
13.982150776053215,-0.05413110046137526
14.015521064301552,0.07468649888776162
14.048891352549889,0.20241138149028415
14.082261640798226,0.316622406390939
14.115631929046563,0.40849142635512076
14.1490022172949,0.4723036974884929
14.182372505543238,0.5035210790396714
14.215742793791575,0.49691014452189225
14.249113082039912,0.4467514650431467
14.282483370288249,0.3501082987199957
14.315853658536586,0.21198158147027987
14.349223946784923,0.049252267690508514
14.38259423503326,-0.10998041366432865
14.415964523281596,-0.233179002991094
14.449334811529933,-0.29451247930511243
14.48270509977827,-0.28571297881235536
14.516075388026607,-0.22123098469677965
14.549445676274944,-0.13435205817357412
14.582815964523283,-0.06497118351952638
14.61618625277162,-0.043687199177432634
14.649556541019956,-0.07877250887920142
14.682926829268293,-0.1515312897402935
14.71629711751663,-0.22223513147422816
14.749667405764967,-0.24481367596338308
14.783037694013304,-0.1853247683901432
14.81640798226164,-0.03778070863581336
14.849778270509978,0.16864768529359947
14.883148558758315,0.3747774007373977
14.916518847006651,0.5088278394538482
14.949889135254988,0.5113857907355862
14.983259423503327,0.35929675871664063
15.016629711751664,0.07872859587230392
15.05,-0.25930737901232653
15.083370288248338,-0.56101343312268
15.116740576496674,-0.7418950907737474
15.150110864745011,-0.7565502147533174
15.183481152993348,-0.6143608226796291
15.216851441241685,-0.3749951741914389
15.250221729490022,-0.1257934798277286
15.283592017738359,0.04992867026180515
15.316962305986696,0.10162580571163496
15.350332594235034,0.02703781145856852
15.383702882483371,-0.13040173210637443
15.417073170731708,-0.3003157778784068
15.450443458980045,-0.4125446358812767
15.483813747228382,-0.42215738291177507
15.517184035476719,-0.32290428677564403
15.550554323725056,-0.14447092865682062
15.583924611973393,0.06441671748077328
15.61729490022173,0.25900602767028713
15.650665188470066,0.4169634715904089
15.684035476718403,0.5436794731890452
15.71740576496674,0.6621365399861201
15.750776053215079,0.792764655752533
15.784146341463416,0.9340899938902734
15.817516629711752,1.0550591889161516
15.85088691796009,1.104286674874188
15.884257206208426,1.032782383121582
15.917627494456763,0.81943195161261
15.9509977827051,0.4865006713919815
15.984368070953437,0.09687957921355897
16.017738359201775,-0.26651865631405863
16.05110864745011,-0.530283915575798
16.08447893569845,-0.6559436963635374
16.117849223946784,-0.6505671738536175
16.151219512195123,-0.5590100944163394
16.184589800443458,-0.44261772500681806
16.217960088691797,-0.3545973983788644
16.251330376940132,-0.32247915742309186
16.28470066518847,-0.34362729224149313
16.31807095343681,-0.39332284655643085
16.351441241685144,-0.43974948173580913
16.384811529933483,-0.4584530889848512
16.418181818181818,-0.4406963801526887
16.451552106430157,-0.3939754532678224
16.48492239467849,-0.3364943503901167
16.51829268292683,-0.2889927553642293
16.551662971175165,-0.26689985450286496
16.585033259423504,-0.27451279604240947
16.61840354767184,-0.30208239611218585
16.651773835920178,-0.3266816896174565
16.685144124168513,-0.31771927596202404
16.71851441241685,-0.24684958808919394
16.75188470066519,-0.09971914648418305
16.785254988913525,0.11517390964926133
16.818625277161864,0.36530759804408347
16.8519955654102,0.6025771661801086
16.885365853658538,0.7786558766258292
16.918736141906873,0.8609101374181686
16.95210643015521,0.8421097543072528
16.985476718403547,0.7403398535978978
17.018847006651885,0.5902754212197404
17.05221729490022,0.43051590436645587
17.08558758314856,0.2922710682162979
17.118957871396898,0.19267862268673686
17.152328159645233,0.1332527369838413
17.18569844789357,0.10221978015102576
17.219068736141907,0.07933443898667737
17.252439024390245,0.042364027775606536
17.28580931263858,-0.025435284059316658
17.31917960088692,-0.12831345005486983
