Frequency (Hz),Amplitude
0.0,2.1749413266009725
0.019801980198019802,2.174953248036138
0.039603960396039604,2.1749889857079627
0.0594059405940594,2.1750484597528774
0.07920792079207921,2.1751315371899196
0.09900990099009901,2.1752380321084783
0.1188118811881188,2.17536770593176
0.13861386138613863,2.1755202677565677
0.15841584158415842,2.175695374770103
0.1782178217821782,2.1758926327447385
0.19801980198019803,2.1761115966117064
0.21782178217821782,2.1763517711149647
0.2376237623762376,2.1766126115463194
0.25742574257425743,2.176893524563289
0.27722772277227725,2.177193869090966
0.297029702970297,2.1775129573093412
0.31683168316831684,2.177850055727569
0.33663366336633666,2.1782043863464984
0.3564356435643564,2.178575127910934
0.37623762376237624,2.178961417252965
0.39603960396039606,2.179362350727506
0.4158415841584158,2.1797769857412983
0.43564356435643564,2.1802043423762516
0.45544554455445546,2.1806434051079915
0.4752475247524752,2.1810931246201912
0.495049504950495,2.181552419715111
0.5148514851485149,2.182020179320457
0.5346534653465347,2.182495264592415
0.5544554455445545,2.1829765111144117
0.5742574257425742,2.183462731190936
0.594059405940594,2.183952716235151
0.613861386138614,2.184445239248936
0.6336633663366337,2.184939057393499
0.6534653465346534,2.1854329146482567
0.6732673267326733,2.185925544555305
0.6930693069306931,2.1864156730464535
0.7128712871287128,2.1869020213491233
0.7326732673267327,2.1873833089673482
0.7524752475247525,2.187858256733133
0.7722772277227723,2.1883255899235343
0.7920792079207921,2.1887840414379096
0.8118811881188118,2.18923235502952
0.8316831683168316,2.1896692885852596
0.8514851485148516,2.190093617446651
0.8712871287128713,2.190504137764983
0.891089108910891,2.1908996698828247
0.9108910891089109,2.1912790617339506
0.9306930693069307,2.19164119225309
0.9504950495049505,2.191984974786631
0.9702970297029703,2.192309360494935
0.99009900990099,2.192613341736705
1.00990099009901,2.192895955425285
1.0297029702970297,2.1931562863466687
1.0495049504950495,2.1933934704285387
1.0693069306930694,2.1936066979495306
1.0891089108910892,2.1937952166774894
1.108910891089109,2.193958334925498
1.1287128712871286,2.19409542451422
1.1485148514851484,2.1942059236287217
1.1683168316831685,2.1942893395583045
1.188118811881188,2.1943452513073414
1.2079207920792079,2.194373312065495
1.227722772277228,2.194373251525284
1.2475247524752475,2.194344878035543
1.2673267326732673,2.194288080578896
1.2871287128712872,2.194202830561943
1.3069306930693068,2.1940891834068297
1.3267326732673268,2.193947279933122
1.3465346534653466,2.1937773475194233
1.3663366336633662,2.193579701034145
1.3861386138613863,2.1933547435256986
1.405940594059406,2.193102966662415
1.4257425742574257,2.192824950913287
1.4455445544554455,2.192521365461143
1.4653465346534653,2.192192967840344
1.4851485148514851,2.1918406032920306
1.504950495049505,2.191465203830393
1.5247524752475248,2.191067787014546
1.5445544554455446,2.190649454421127
1.5643564356435644,2.190211389813931
1.5841584158415842,2.1897548570076784
1.6039603960396038,2.1892811974241027
1.6237623762376237,2.1887918273396028
1.6435643564356437,2.1882882348249035
1.6633663366336633,2.1877719763781753
1.683168316831683,2.1872446732545163
1.7029702970297032,2.1867080074958034
1.7227722772277227,2.1861637176662225
1.7425742574257426,2.1856135943003117
1.7623762376237624,2.1850594750714643
1.782178217821782,2.184503239690495
1.801980198019802,2.183946804545038
1.8217821782178218,2.1833921170922963
1.8415841584158414,2.182841150018684
1.8613861386138615,2.1822958951817943
1.881188118811881,2.1817583573511197
1.900990099009901,2.181230547765721
1.920792079207921,2.180714477528147
1.9405940594059405,2.1802121508553958
1.9603960396039604,2.179725558208945
1.98019801980198,2.1792566693270783
2.0,2.1788074261840014
2.01980198019802,2.178379735901178
2.0396039603960396,2.177975463637375
2.0594059405940595,2.177596425484885
2.0792079207920793,2.177244381399952
2.099009900990099,2.176921028196303
2.118811881188119,2.176627992631085
2.1386138613861387,2.1763668246129435
2.1584158415841586,2.1761389905621726
2.1782178217821784,2.1759458669530245
2.1980198019801978,2.175788734068128
2.217821782178218,2.1756687699947626
2.237623762376238,2.1755870448922794
2.257425742574257,2.1755445155594866
2.2772277227722775,2.1755420203298965
2.297029702970297,2.1755802743220363
2.3168316831683167,2.1756598650706778
2.336633663366337,2.1757812485638066
2.3564356435643563,2.1759447457086027
2.376237623762376,2.176150539248211
2.3960396039603964,2.1763986711492502
2.4158415841584158,2.1766890404783275
2.4356435643564356,2.1770214017836946
2.455445544554456,2.1773953639961694
2.4752475247524752,2.177810389861202
2.495049504950495,2.1782657959118166
2.514851485148515,2.178760752989546
2.5346534653465347,2.1792942873184726
2.5544554455445545,2.1798652821345557
2.5742574257425743,2.180472479870461
2.594059405940594,2.1811144848932313
2.6138613861386135,2.1817897667899104
2.633663366336634,2.182496664193695
2.6534653465346536,2.183233389140863
2.673267326732673,2.183998031946262
2.6930693069306932,2.184788566583033
2.712871287128713,2.1856028565499783
2.7326732673267324,2.1864386612077813
2.7524752475247527,2.187293642563551
2.7722772277227725,2.1881653724810355
2.792079207920792,2.1890513402922775
2.811881188118812,2.189948960784764
2.8316831683168315,2.1908555825366824
2.8514851485148514,2.191768496571582
2.8712871287128716,2.1926849453024664
2.891089108910891,2.193602131734294
2.910891089108911,2.1945172288930648
2.9306930693069306,2.1954273894487573
2.9504950495049505,2.1963297554987697
2.9702970297029703,2.1972214684781504
2.99009900990099,2.19809967916235
3.00990099009901,2.1989615577281922
3.0297029702970297,2.1998043038384374
3.0495049504950495,2.200625156715518
3.0693069306930694,2.2014214051699663
3.089108910891089,2.2021903975494372
3.108910891089109,2.2029295515742997
3.128712871287129,2.203636364026529
3.148514851485148,2.204308420258629
3.1683168316831685,2.2049434034903888
3.1881188118811883,2.20553910386148
3.2079207920792077,2.206093427208804
3.227722772277228,2.206604403538202
3.2475247524752473,2.207070195160903
3.267326732673267,2.207489104465952
3.2871287128712874,2.2078595813007147
3.3069306930693068,2.208180229932567
3.3267326732673266,2.208449815565722
3.346534653465347,2.2086672703882484
3.366336633663366,2.2088316991253496
3.386138613861386,2.208942384076018
3.4059405940594063,2.2089987896113703
3.4257425742574257,2.2090005661140344
3.4455445544554455,2.208947553339257
3.4653465346534653,2.2088397831795437
3.485148514851485,2.208677481816049
3.504950495049505,2.2084610712411457
3.5247524752475248,2.2081911701381576
3.5445544554455446,2.2078685941055687
3.564356435643564,2.20749435521462
3.5841584158415842,2.2070696608908213
3.603960396039604,2.206595912111502
3.6237623762376234,2.2060747009133856
3.6435643564356437,2.205507807205961
3.6633663366336635,2.2048971948883342
3.683168316831683,2.204245007269355
3.702970297029703,2.203553561792861
3.722772277227723,2.20282534407214
3.7425742574257423,2.2020630012400666
3.762376237623762,2.2012693346237278
3.7821782178217824,2.2004472917549402
3.801980198019802,2.199599957730691
3.8217821782178216,2.198730545940138
3.841584158415842,2.197842388177785
3.8613861386138613,2.196938924165171
3.881188118811881,2.1960236905064026
3.9009900990099013,2.1951003091059182
3.9207920792079207,2.1941724750797857
3.9405940594059405,2.1932439441950677
3.96039603960396,2.1923185198746107
3.98019801980198,2.1914000398079443
4.0,2.190492362211764
4.01980198019802,2.18959935178649
4.03960396039604,2.1887248654182714
4.0594059405940595,2.1878727376784908
4.079207920792079,2.1870467661753894
4.099009900990099,2.186250696814937
4.118811881188119,2.1854882090300305
4.138613861386139,2.1847629010393534
4.158415841584159,2.1840782751986154
4.178217821782178,2.183437723508441
4.198019801980198,2.182844513344091
4.217821782178218,2.18230177347303
4.237623762376238,2.181812480426416
4.257425742574258,2.1813794452907183
4.2772277227722775,2.181005300985005
4.297029702970297,2.180692490088443
4.316831683168317,2.180443253281309
4.336633663366336,2.18025961846074
4.356435643564357,2.1801433905902883
4.376237623762377,2.180096142339574
4.3960396039603955,2.1801192055670513
4.415841584158416,2.1802136636954357
4.435643564356436,2.1803803450252035
4.455445544554455,2.180619817027358
4.475247524752476,2.18093238165181
4.4950495049504955,2.181318071682798
4.514851485148514,2.1817766481675527
4.534653465346535,2.1823075989388045
4.554455445544555,2.1829101382462084
4.574257425742574,2.183583207505954
4.594059405940594,2.184325477171951
4.613861386138614,2.185135349726248
4.633663366336633,2.1860109637803395
4.653465346534653,2.1869501992734945
4.673267326732674,2.1879506837484257
4.693069306930693,2.189009799679391
4.712871287128713,2.190124692822467
4.732673267326733,2.1912922815528537
4.752475247524752,2.1925092671494673
4.772277227722772,2.193772144982642
4.792079207920793,2.19507721655698
4.811881188118812,2.196420602357592
4.8316831683168315,2.1977982554449973
4.851485148514852,2.1992059757409823
4.871287128712871,2.2006394249454293
4.891089108910891,2.2020941420221547
4.910891089108912,2.2035655591901895
4.930693069306931,2.2050490183557248
4.9504950495049505,2.2065397879193123
4.97029702970297,2.2080330798922483
4.99009900990099,2.2095240672561944
5.00990099009901,2.211007901500205
5.02970297029703,2.212479730269919
5.0495049504950495,2.2139347150644793
5.069306930693069,2.215368048917768
5.089108910891089,2.2167749740019023
5.108910891089109,2.218150799092264
5.128712871287129,2.2194909168350576
5.148514851485149,2.220790820760161
5.1683168316831685,2.222046121983761
5.188118811881188,2.2232525655473405
5.207920792079208,2.224406046341568
5.227722772277227,2.2255026245655265
5.247524752475248,2.2265385406740164
5.267326732673268,2.2275102297675056
5.2871287128712865,2.228414335381434
5.306930693069307,2.2292477226336294
5.326732673267327,2.2300074906904284
5.346534653465346,2.230690984514218
5.366336633663367,2.2312958058568233
5.3861386138613865,2.23181982346513
5.405940594059405,2.2322611824670213
5.425742574257426,2.2326183129074986
5.445544554455446,2.232889937406559
5.465346534653465,2.233075077911983
5.485148514851486,2.23317306152191
5.504950495049505,2.233183525353624
5.524752475247524,2.2331064204365823
5.544554455445545,2.232942014609374
5.564356435643565,2.2326908944018937
5.584158415841584,2.2323539658856872
5.603960396039604,2.2319324544772012
5.623762376237624,2.231427903680452
5.643564356435643,2.2308421727574945
5.663366336633663,2.230177433317173
5.683168316831684,2.229436164814686
5.702970297029703,2.2286211489568704
5.7227722772277225,2.227735463010507
5.742574257425743,2.226782472013646
5.762376237623762,2.225765819892761
5.782178217821782,2.22468941949161
5.801980198019803,2.2235574415209873
5.821782178217822,2.222374302442019
5.841584158415841,2.2211446512994484
5.861386138613861,2.2198733555253924
5.881188118811881,2.218565485738197
5.900990099009901,2.217226299565608
5.920792079207921,2.21586122452614
5.9405940594059405,2.2144758400074513
5.96039603960396,2.2130758583856434
5.98019801980198,2.2116671053347683
6.0,2.2102554993811174
6.01980198019802,2.208847030762566
6.03960396039604,2.2074477396586762
6.0594059405940595,2.2060636938629625
6.079207920792079,2.2047009659742387
6.099009900990099,2.203365610189386
6.118811881188119,2.202063638785253
6.138613861386139,2.2008009983822854
6.158415841584159,2.1995835460873914
6.178217821782178,2.1984170256177413
6.198019801980198,2.197307043511239
6.217821782178218,2.1962590455326714
6.237623762376237,2.195278293387285
6.257425742574258,2.1943698418557767
6.2772277227722775,2.193538516465849
6.297029702970296,2.19278889181616
6.316831683168317,2.192125270668159
6.336633663366337,2.1915516639201327
6.356435643564356,2.191071771575611
6.376237623762377,2.190688964815325
6.396039603960396,2.190406269277812
6.415841584158415,2.190226349648892
6.435643564356436,2.190151495654226
6.455445544554456,2.1901836095425553
6.475247524752475,2.1903241951394516
6.495049504950495,2.190574348543097
6.514851485148515,2.190934750524434
6.534653465346534,2.191405660684315
6.554455445544554,2.1919869134100107
6.574257425742575,2.192677915662754
6.594059405940594,2.1934776466169956
6.6138613861386135,2.1943846591608662
6.633663366336634,2.195397083256119
6.653465346534653,2.196512631144642
6.673267326732673,2.197728604377566
6.693069306930694,2.1990419026323798
6.712871287128713,2.2004490342730345
6.732673267326732,2.2019461285983644
6.752475247524753,2.203528949714789
6.772277227722772,2.2051929119608786
6.792079207920792,2.206933096803557
6.811881188118813,2.2087442711187326
6.8316831683168315,2.210620906763076
6.851485148514851,2.212557201338464
6.871287128712871,2.214547100046251
6.891089108910891,2.216584318525106
6.910891089108911,2.21866236656366
6.930693069306931,2.2207745725774237
6.9504950495049505,2.222914108738755
6.97029702970297,2.225074016648392
6.99009900990099,2.227247233437929
7.00990099009901,2.2294266181937807
7.02970297029703,2.2316049785952528
7.0495049504950495,2.2337750976617636
7.069306930693069,2.2359297605072754
7.089108910891089,2.2380617810032266
7.108910891089109,2.240164028255131
7.128712871287128,2.2422294528018187
7.148514851485149,2.2442511124504265
7.1683168316831685,2.2462221976645917
7.188118811881187,2.248136056427543
7.207920792079208,2.2499862185062143
7.227722772277228,2.25176641904667
7.247524752475247,2.253470621435494
7.267326732673268,2.2550930393657747
7.287128712871287,2.256628158050348
7.306930693069306,2.258070754528613
7.326732673267327,2.2594159170168786
7.346534653465347,2.260659063255499
7.366336633663366,2.2617959578091504
7.3861386138613865,2.262822728279448
7.405940594059406,2.263735880391806
7.425742574257425,2.2645323119207634
7.445544554455446,2.265209325420241
7.465346534653466,2.2657646397271693
7.485148514851485,2.2661964002085755
7.504950495049505,2.26650318772411
7.524752475247524,2.266684026277148
7.544554455445544,2.2667383893291313
7.564356435643565,2.266666204753033
7.584158415841584,2.2664678584030353
7.603960396039604,2.2661441962785704
7.623762376237624,2.265696525262264
7.643564356435643,2.265126612412341
7.663366336633663,2.264436682791516
7.683168316831684,2.263629415815792
7.702970297029703,2.2627079401082013
7.7227722772277225,2.261675826844385
7.742574257425743,2.2605370815789834
7.762376237623762,2.2592961345441944
7.782178217821782,2.2579578294146083
7.801980198019803,2.2565274105354725
7.821782178217822,2.255010508615125
7.841584158415841,2.253413124886222
7.861386138613862,2.2517416137448905
7.881188118811881,2.250002663881819
7.900990099009901,2.2482032779248233
7.92079207920792,2.246350750618303
7.9405940594059405,2.2444526455717573
7.96039603960396,2.2425167706163385
7.980198019801979,2.240551151816223
8.0,2.238564006189648
8.01980198019802,2.2365637132028966
8.03960396039604,2.2345587851097233
8.05940594059406,2.232557836217877
8.07920792079208,2.2305695511741086
8.099009900990099,2.228602652368854
8.118811881188119,2.2266658665717465
8.138613861386139,2.2247678909189683
8.158415841584159,2.2229173583832926
8.178217821782178,2.221122802867146
8.198019801980198,2.219392624068078
8.217821782178218,2.2177350522744934
8.237623762376238,2.2161581132573507
8.257425742574258,2.214669593430283
8.277227722772277,2.213277005456456
8.297029702970297,2.211987554485018
8.316831683168317,2.210808105203298
8.336633663366337,2.2097451498925436
8.356435643564357,2.208804777675138
8.376237623762377,2.207992645139664
8.396039603960396,2.207313948526745
8.415841584158416,2.206773397653447
8.435643564356436,2.206375191746748
8.455445544554456,2.2061229973479786
8.475247524752476,2.2060199284390323
8.495049504950495,2.2060685289289736
8.514851485148515,2.2062707576254765
8.534653465346535,2.206627975799937
8.554455445544555,2.2071409374384308
8.574257425742575,2.207809782252556
8.594059405940595,2.208634031505447
8.613861386138613,2.2096125866888348
8.633663366336634,2.2107437310670637
8.653465346534654,2.212025134084065
8.673267326732672,2.213453858609338
8.693069306930694,2.2150263709796194
8.712871287128714,2.216738553774006
8.732673267326732,2.2185857212424174
8.752475247524753,2.2205626372901976
8.772277227722773,2.222663535906361
8.792079207920791,2.2248821439085686
8.811881188118813,2.227211705865432
8.831683168316832,2.2296450110457524
8.85148514851485,2.2321744222352007
8.871287128712872,2.2347919062535695
8.891089108910892,2.2374890659998576
8.91089108910891,2.2402571738489536
8.930693069306932,2.243087206221213
8.950495049504951,2.24596987914584
8.97029702970297,2.2488956846399355
8.990099009900991,2.251854927727512
9.00990099009901,2.2548377639262696
9.029702970297029,2.257834237035007
9.04950495049505,2.2608343170600484
9.06930693069307,2.2638279381257633
9.089108910891088,2.266805036221574
9.10891089108911,2.2697555866454824
9.12871287128713,2.2726696410124294
9.148514851485148,2.275537363704037
9.16831683168317,2.27834906764484
9.188118811881187,2.281095249298426
9.207920792079207,2.2837666227854507
9.227722772277229,2.2863541530331757
9.247524752475247,2.2888490878743823
9.267326732673267,2.291242989020439
9.287128712871288,2.2935277618407284
9.306930693069306,2.2956956838865112
9.326732673267326,2.297739432103862
9.346534653465348,2.299652108685122
9.366336633663366,2.3014272655135897
9.386138613861386,2.303058927160146
9.405940594059407,2.304541612394409
9.425742574257425,2.305870354176145
9.445544554455445,2.307040718095217
9.465346534653467,2.3080488192307738
9.485148514851485,2.3088913374018176
9.504950495049505,2.3095655307827356
9.524752475247526,2.3100692478582854
9.544554455445544,2.310400937693009
9.564356435643564,2.3105596584903503
9.584158415841586,2.310545084416976
9.603960396039604,2.310357510667306
9.623762376237623,2.3099978567434087
9.643564356435645,2.3094676679248445
9.663366336633663,2.3087691149028027
9.683168316831683,2.3079049915527454
9.702970297029704,2.3068787108195217
9.722772277227723,2.3056942986892293
9.742574257425742,2.3043563862223477
9.762376237623764,2.3028701996236056
9.782178217821782,2.3012415483251436
9.801980198019802,2.299476811061355
9.821782178217823,2.297582919916161
9.841584158415841,2.2955673423263026
9.861386138613861,2.2934380610282945
9.881188118811881,2.2912035519409755
9.900990099009901,2.28887275998119
9.92079207920792,2.2864550728166324
9.94059405940594,2.2839602925670603
9.96039603960396,2.2813986054737656
9.98019801980198,2.278780549566571
10.0,2.2761169803682626
10.01980198019802,2.2734190346880827
10.03960396039604,2.270698092568538
10.05940594059406,2.26796573746367
10.07920792079208,2.265233714741486
10.099009900990099,2.2625138886188743
10.118811881188119,2.259818197653539
10.138613861386139,2.2571586089342683
10.158415841584159,2.2545470711281186
10.178217821782178,2.2519954665604374
10.198019801980198,2.2495155625208763
10.217821782178218,2.247118962005633
10.237623762376238,2.2448170541223207
10.257425742574258,2.242620964399446
10.277227722772277,2.2405415052564046
10.297029702970297,2.238589126902641
10.316831683168317,2.236773868945141
10.336633663366337,2.235105312991833
10.356435643564357,2.23359253654444
10.376237623762377,2.2322440684772245
10.396039603960396,2.2310678463982763
10.415841584158416,2.230071176186611
10.435643564356436,2.229260693991813
10.455445544554454,2.2286423309728236
10.475247524752476,2.2282212810390627
10.495049504950495,2.228001971839846
10.514851485148514,2.22798803922801
10.534653465346535,2.2281823054001575
10.554455445544555,2.2285867608897374
10.574257425742573,2.2292025505604895
10.594059405940595,2.2300299637170213
10.613861386138614,2.2310684284167683
10.633663366336632,2.2323165100340585
10.653465346534654,2.2337719140927366
10.673267326732674,2.2354314933494197
10.693069306930692,2.2372912590755507
10.712871287128714,2.2393463964533846
10.732673267326733,2.2415912839695107
10.752475247524751,2.2440195166596983
10.772277227722773,2.2466239330316826
