Frequency (Hz),Amplitude
0.0,0.20029904439805424
0.019801980198019802,0.20020789041313528
0.039603960396039604,0.19993450850879066
0.0594059405940594,0.19947913881047788
0.07920792079207921,0.19884218144188684
0.09900990099009901,0.19802419639916685
0.1188118811881188,0.19702590337922066
0.13861386138613863,0.19584818156715156
0.15841584158415842,0.19449206938891397
0.1782178217821782,0.19295876423756694
0.19801980198019803,0.19124962218348265
0.21782178217821782,0.18936615768112833
0.2376237623762376,0.18731004328866438
0.25742574257425743,0.18508310941943684
0.27722772277227725,0.18268734414955323
0.297029702970297,0.18012489311060698
0.31683168316831684,0.1773980595036913
0.33663366336633666,0.17450930427922842
0.3564356435643564,0.17146124653732567
0.37623762376237624,0.16825666421735908
0.39603960396039606,0.16489849516224744
0.4158415841584158,0.1613898386648404
0.43564356435643564,0.15773395763284354
0.45544554455445546,0.153934281545382
0.4752475247524752,0.1499944104242331
0.495049504950495,0.14591812010730817
0.5148514851485149,0.14170936920018504
0.5346534653465347,0.13737230819987012
0.5544554455445545,0.1329112914472331
0.5742574257425742,0.12833089278902177
0.594059405940594,0.12363592614449627
0.613861386138614,0.11883147261605294
0.6336633663366337,0.11392291642197337
0.6534653465346534,0.10891599285798628
0.6732673267326733,0.10381685286819
0.6930693069306931,0.09863215086748305
0.7128712871287128,0.09336916561126062
0.7326732673267327,0.08803596881606403
0.7524752475247525,0.08264166403268486
0.7722772277227723,0.07719673092107486
0.7920792079207921,0.07171353105162823
0.8118811881188118,0.06620706693462033
0.8316831683168316,0.06069614768669479
0.8514851485148516,0.05520522391978738
0.8712871287128713,0.04976735024778071
0.891089108910891,0.04442908435988615
0.9108910891089109,0.03925873459049959
0.9306930693069307,0.0343602578195298
0.9504950495049505,0.029895697297379318
0.9702970297029703,0.026115844160579906
0.99009900990099,0.023380094332312112
1.00990099009901,0.022099875781241757
1.0297029702970297,0.02253812429829142
1.0495049504950495,0.024609775278371042
1.0693069306930694,0.02795479738149076
1.0891089108910892,0.03217481013439766
1.108910891089109,0.0369643653316616
1.1287128712871286,0.042120147491611325
1.1485148514851484,0.0475117276080167
1.1683168316831685,0.053054474902686534
1.188118811881188,0.058691674090400874
1.2079207920792079,0.06438375011888114
1.227722772277228,0.0701018860333016
1.2475247524752475,0.07582420199419654
1.2673267326732673,0.08153341814596862
1.2871287128712872,0.08721538920167991
1.3069306930693068,0.0928581623766093
1.3267326732673268,0.09845135723722112
1.3465346534653466,0.10398574845335247
1.3663366336633662,0.10945297947554106
1.3861386138613863,0.11484536257646247
1.405940594059406,0.12015573704246608
1.4257425742574257,0.125377367264938
1.4455445544554455,0.13050386869178235
1.4653465346534653,0.1355291535444296
1.4851485148514851,0.14044739076588025
1.504950495049505,0.14525297635294748
1.5247524752475248,0.1499405113592726
1.5445544554455446,0.15450478562845557
1.5643564356435644,0.1589407658507385
1.5841584158415842,0.1632435869115673
1.6039603960396038,0.16740854576692502
1.6237623762376237,0.17143109727111866
1.6435643564356437,0.17530685152267803
1.6633663366336633,0.17903157239514259
1.683168316831683,0.1826011769967214
1.7029702970297032,0.18601173585872033
1.7227722772277227,0.18925947369570978
1.7425742574257426,0.19234077061375476
1.7623762376237624,0.19525216366763185
1.782178217821782,0.19799034868786455
1.801980198019802,0.20055218231345248
1.8217821782178218,0.20293468417860533
1.8415841584158414,0.20513503921090165
1.8613861386138615,0.20715060000639815
1.881188118811881,0.20897888925330133
1.900990099009901,0.2106176021809413
1.920792079207921,0.21206460901510188
1.9405940594059405,0.21331795742433624
1.9603960396039604,0.21437587494523275
1.98019801980198,0.2152367713768932
2.0,0.21589924113797265
2.01980198019802,0.21636206558151283
2.0396039603960396,0.21662421526504472
2.0594059405940595,0.21668485217626518
2.0792079207920793,0.21654333191585542
2.099009900990099,0.2161992058424296
2.118811881188119,0.2156522231865925
2.1386138613861387,0.21490233314430912
2.1584158415841586,0.2139496869627891
2.1782178217821784,0.2127946400364746
2.1980198019801978,0.2114377540345008
2.217821782178218,0.20987979908664564
2.237623762376238,0.2081217560614365
2.257425742574257,0.2061648189768931
2.2772277227722775,0.2040103975943194
2.297029702970297,0.20166012025679
2.3168316831683167,0.1991158370476492
2.336633663366337,0.19637962336201026
2.3564356435643563,0.19345378400578955
2.376237623762376,0.1903408579636365
2.3960396039603964,0.18704362401233798
2.4158415841584158,0.1835651073984525
2.4356435643564356,0.1799085878566857
2.455445544554456,0.17607760931568897
2.4752475247524752,0.17207599173313148
2.495049504950495,0.16790784562300423
2.514851485148515,0.1635775899999546
2.5346534653465347,0.15908997467955696
2.5544554455445545,0.1544501081595357
2.5742574257425743,0.14966349269534523
2.594059405940594,0.14473606871070432
2.6138613861386135,0.13967427141056482
2.633663366336634,0.13448510347375753
2.6534653465346536,0.12917622911870674
2.673267326732673,0.12375609684379142
2.6930693069306932,0.11823410101975879
2.712871287128713,0.11262079667116028
2.7326732673267324,0.10692818785876891
2.7524752475247527,0.10117011902085213
2.7722772277227725,0.0953628118882187
2.792079207920792,0.08952561028382396
2.811881188118812,0.08368202425621371
2.8316831683168315,0.07786120739744212
2.8514851485148514,0.07210006039902235
2.8712871287128716,0.06644622880679643
2.891089108910891,0.06096233423664198
2.910891089108911,0.055731771619569076
2.9306930693069306,0.050866104419340634
2.9504950495049505,0.04651298436563574
2.9702970297029703,0.04286073229434957
2.99009900990099,0.04013080625156607
3.00990099009901,0.0385457771681025
3.0297029702970297,0.038269486732091275
3.0495049504950495,0.03934528317259694
3.0693069306930694,0.041678725372369156
3.089108910891089,0.04507986518288937
3.108910891089109,0.04932876118718483
3.128712871287129,0.05422311347799115
3.148514851485148,0.05959760446841379
3.1683168316831685,0.06532475265248279
3.1881188118811883,0.07130844542456963
3.2079207920792077,0.0774763368407449
3.227722772277228,0.08377339212764601
3.2475247524752473,0.09015700900896796
3.267326732673267,0.09659350791996382
3.2871287128712874,0.10305565559830039
3.3069306930693068,0.10952092562443427
3.3267326732673266,0.11597027252678162
3.346534653465347,0.12238726140520584
3.366336633663366,0.12875744414695792
3.386138613861386,0.1350679078178089
3.4059405940594063,0.14130694436687247
3.4257425742574257,0.14746380669668271
3.4455445544554455,0.15352852688727767
3.4653465346534653,0.15949177964028205
3.485148514851485,0.1653447789754661
3.504950495049505,0.17107919963298002
3.5247524752475248,0.17668711701217596
3.5445544554455446,0.1821609611481634
3.564356435643564,0.1874934814119439
3.5841584158415842,0.19267771946946102
3.603960396039604,0.19770698864847874
3.6237623762376234,0.20257485831174712
3.6435643564356437,0.2072751421652036
3.6633663366336635,0.21180188967622768
3.683168316831683,0.21614937996156366
3.702970297029703,0.22031211764405872
3.722772277227723,0.2242848302836482
3.7425742574257423,0.22806246707013814
3.762376237623762,0.23164019852808485
3.7821782178217824,0.23501341703396464
3.801980198019802,0.23817773798414246
3.8217821782178216,0.24112900148318606
3.841584158415842,0.24386327444651046
3.8613861386138613,0.24637685303082124
3.881188118811881,0.2486662653224316
3.9009900990099013,0.25072827422606225
3.9207920792079207,0.2525598805082697
3.9405940594059405,0.2541583259586377
3.96039603960396,0.2555210966399392
3.98019801980198,0.2566459262053564
4.0,0.2575307992675756
4.01980198019802,0.2581739548097736
4.03960396039604,0.2585738896347302
4.0594059405940595,0.2587293618532405
4.079207920792079,0.258639394419106
4.099009900990099,0.25830327872340003
4.118811881188119,0.25772057826720357
4.138613861386139,0.2568911324390743
4.158415841584159,0.2558150604311272
4.178217821782178,0.2544927653369257
4.198019801980198,0.2529249384846438
4.217821782178218,0.2511125640714801
4.237623762376238,0.24905692418018452
4.257425742574258,0.24675960427622395
4.2772277227722775,0.24422249930547424
4.297029702970297,0.24144782053899663
4.316831683168317,0.23843810334309282
4.336633663366336,0.2351962160932075
4.356435643564357,0.23172537049892625
4.376237623762377,0.22802913366936717
4.3960396039603955,0.22411144232547284
4.415841584158416,0.21997661966296786
4.435643564356436,0.21562939549411506
4.455445544554455,0.2110749304536827
4.475247524752476,0.2063188452579859
4.4950495049504955,0.20136725626700686
4.514851485148514,0.19622681893949565
4.534653465346535,0.1909047812140526
4.554455445544555,0.18540904943096959
4.574257425742574,0.17974827017696207
4.594059405940594,0.17393193245250538
4.613861386138614,0.1679704959163673
4.633663366336633,0.16187555277257965
4.653465346534653,0.1556600332893665
4.673267326732674,0.1493384681864478
4.693069306930693,0.14292732546120313
4.712871287128713,0.13644544496288305
4.732673267326733,0.12991460150019082
4.752475247524752,0.1233602367116079
4.772277227722772,0.11681241118045166
4.792079207920793,0.11030704012408747
4.811881188118812,0.10388748474677344
4.8316831683168315,0.09760656804565952
4.851485148514852,0.09152904906421946
4.871287128712871,0.08573448524312505
4.891089108910891,0.0803201731075725
4.910891089108912,0.07540339344965075
4.930693069306931,0.07112143906351426
4.9504950495049505,0.06762701919368905
4.97029702970297,0.06507629733966708
4.99009900990099,0.0636083953065386
5.00990099009901,0.06331975187427044
5.02970297029703,0.06424247160520725
5.0495049504950495,0.06633719695325735
5.069306930693069,0.0695043199708289
5.089108910891089,0.07360727934461854
5.108910891089109,0.07849712708861337
5.128712871287129,0.08403069084628328
5.148514851485149,0.09008041502431241
5.1683168316831685,0.09653765787000013
5.188118811881188,0.10331212851666378
5.207920792079208,0.11032958660556795
5.227722772277227,0.11752907462213708
5.247524752475248,0.12486030111305428
5.267326732673268,0.13228140770108815
5.2871287128712865,0.13975716053786755
5.306930693069307,0.14725752592312807
5.326732673267327,0.15475656481016087
5.346534653465346,0.16223158064674448
5.366336633663367,0.16966246386004546
5.3861386138613865,0.17703118719075775
5.405940594059405,0.1843214161654019
5.425742574257426,0.1915182073747326
5.445544554455446,0.1986077738340534
5.465346534653465,0.20557730176980732
5.485148514851486,0.21241480700752427
5.504950495049505,0.2191090220117074
5.524752475247524,0.22564930677899342
5.544554455445545,0.23202557839778687
5.564356435643565,0.23822825529574787
5.584158415841584,0.24424821310713898
5.603960396039604,0.2500767497805456
5.623762376237624,0.2557055580709296
5.643564356435643,0.26112670395969884
5.663366336633663,0.2663326098539695
5.683168316831684,0.27131604165370354
5.702970297029703,0.2760700989594754
5.7227722772277225,0.28058820783844335
5.742574257425743,0.2848641156790819
5.762376237623762,0.2888918877551001
5.782178217821782,0.29266590519036584
5.801980198019803,0.2961808640736112
5.821782178217822,0.2994317755181394
5.841584158415841,0.30241396649899405
5.861386138613861,0.3051230813306218
5.881188118811881,0.30755508367390044
5.900990099009901,0.30970625898203546
5.920792079207921,0.31157321731322
5.9405940594059405,0.3131528964534398
5.96039603960396,0.3144425653060373
5.98019801980198,0.31543982751720745
6.0,0.3161426253177383
6.01980198019802,0.3165492435714042
6.03960396039604,0.31665831403179684
6.0594059405940595,0.31646881981836994
6.079207920792079,0.3159801001347924
6.099009900990099,0.3151918552626116
6.118811881188119,0.31410415187726864
6.138613861386139,0.3127174287463734
6.158415841584159,0.3110325028867777
6.178217821782178,0.3090505762753741
6.198019801980198,0.3067732432299363
6.217821782178218,0.30420249860228865
6.237623762376237,0.3013407469563712
6.257425742574258,0.29819081294089705
6.2772277227722775,0.29475595311042996
6.297029702970296,0.29103986950361255
6.316831683168317,0.2870467253532452
6.336633663366337,0.28278116338518916
6.356435643564356,0.2782483272641881
6.376237623762377,0.27345388687059996
6.396039603960396,0.2684040682491411
6.415841584158415,0.26310568926714833
6.435643564356436,0.2575662022678807
6.455445544554456,0.2517937453159965
6.475247524752475,0.24579720402855113
6.495049504950495,0.23958628648684
6.514851485148515,0.23317161436424005
6.534653465346534,0.22656483422032292
6.554455445544554,0.21977875395093027
6.574257425742575,0.2128275107070274
6.594059405940594,0.2057267782726338
6.6138613861386135,0.1984940240026096
6.633663366336634,0.19114882804102545
6.653465346534653,0.18371328072193938
6.673267326732673,0.17621247777063911
6.693069306930694,0.1686751369760103
6.712871287128713,0.1611343638244455
6.732673267326732,0.15362859589596728
6.752475247524753,0.1462027540252484
6.772277227722772,0.13890961743287294
6.792079207920792,0.13181141161005425
6.811881188118813,0.12498153767543439
6.8316831683168315,0.11850626004792833
6.851485148514851,0.11248598275048616
6.871287128712871,0.10703547282181686
6.891089108910891,0.10228207055190855
6.910891089108911,0.09836071017657039
6.930693069306931,0.0954047727345091
6.9504950495049505,0.09353279654213449
6.97029702970297,0.09283298162769112
6.99009900990099,0.09334950758750987
7.00990099009901,0.09507536028143054
7.02970297029703,0.09795444618457365
7.0495049504950495,0.10189205271183875
7.069306930693069,0.10676964992570177
7.089108910891089,0.11245944141342845
7.108910891089109,0.1188356292823638
7.128712871287128,0.1257814728616527
7.148514851485149,0.13319268557057518
7.1683168316831685,0.14097827416946024
7.188118811881187,0.14905988169308157
7.207920792079208,0.15737041581492656
7.227722772277228,0.16585245115658276
7.247524752475247,0.1744566714912421
7.267326732673268,0.18314047457736982
7.287128712871287,0.19186678027385018
7.306930693069306,0.20060304034477067
7.326732673267327,0.20932042951164045
7.346534653465347,0.2179931910923815
7.366336633663366,0.22659811059107804
7.3861386138613865,0.23511409333241232
7.405940594059406,0.24352182583454787
7.425742574257425,0.2518035042033091
7.445544554455446,0.25994261603639124
7.465346534653466,0.26792376503547977
7.485148514851485,0.2757325297414466
7.504950495049505,0.2833553495884203
7.524752475247524,0.29077943288814867
7.544554455445544,0.297992682472369
7.564356435643565,0.30498363560012226
7.584158415841584,0.3117414154280301
7.603960396039604,0.3182556918848008
7.623762376237624,0.3245166502196373
7.643564356435643,0.3305149658326923
7.663366336633663,0.33624178426338835
7.683168316831684,0.3416887054258329
7.702970297029703,0.3468477713503823
7.7227722772277225,0.3517114568271951
7.742574257425743,0.35627266245681244
7.762376237623762,0.36052470970226336
7.782178217821782,0.36446133760919236
7.801980198019803,0.3680767009196997
7.821782178217822,0.37136536935462344
7.841584158415841,0.3743223278794216
7.861386138613862,0.3769429778026157
7.881188118811881,0.3792231385851991
7.900990099009901,0.38115905026356717
7.92079207920792,0.3827473764105972
7.9405940594059405,0.3839852075787177
7.96039603960396,0.3848700651863612
7.980198019801979,0.3853999058254765
8.0,0.385573125983865
8.01980198019802,0.3853885671912733
8.03960396039604,0.38484552161432395
8.05940594059406,0.38394373814197014
8.07920792079208,0.3826834290208861
8.099009900990099,0.3810652771199809
8.118811881188119,0.37909044392546476
8.138613861386139,0.37676057839282284
8.158415841584159,0.37407782681139
8.178217821782178,0.3710448438716436
8.198019801980198,0.3676648051653139
8.217821782178218,0.3639414213968277
8.237623762376238,0.35987895464241104
8.257425742574258,0.35548223706254406
8.277227722772277,0.3507566925581654
8.297029702970297,0.3457083619636933
8.316831683168317,0.34034393249559175
8.336633663366337,0.33467077232955866
8.356435643564357,0.3286969713688718
8.376237623762377,0.32243138950103023
8.396039603960396,0.3158837139292935
8.415841584158416,0.3090645275245763
8.435643564356436,0.30198539058917934
8.455445544554456,0.29465893897552553
8.475247524752476,0.28709900218853546
8.495049504950495,0.27932074594603257
8.514851485148515,0.2713408447119626
8.534653465346535,0.2631776909850033
8.554455445544555,0.25485164964839274
8.574257425742575,0.24638536747847273
8.594059405940595,0.23780414994040458
8.613861386138613,0.22913641956432534
8.633663366336634,0.22041427223419394
8.653465346534654,0.21167414910483043
8.673267326732672,0.2029576415867878
8.693069306930694,0.1943124431182405
8.712871287128714,0.18579345126057825
8.732673267326732,0.1774640021877144
8.752475247524753,0.16939717974528945
8.772277227722773,0.16167707352260904
8.792079207920791,0.15439975501220093
8.811881188118813,0.147673593790142
8.831683168316832,0.14161836160797128
8.85148514851485,0.13636242712163135
8.871287128712872,0.1320373464116193
8.891089108910892,0.12876947842488193
8.91089108910891,0.12666904112262764
8.930693069306932,0.12581819248809573
8.950495049504951,0.12626079364479584
8.97029702970297,0.1279967346333731
8.990099009900991,0.130982599836663
9.00990099009901,0.13513839907660982
9.029702970297029,0.14035820447129949
9.04950495049505,0.14652178586313686
9.06930693069307,0.15350484374193157
9.089108910891088,0.16118658186157384
9.10891089108911,0.1694544362030692
9.12871287128713,0.17820642567865186
9.148514851485148,0.18735181257517572
9.16831683168317,0.1968107166354525
9.188118811881187,0.20651317431449762
9.207920792079207,0.21639797198970065
9.227722772277229,0.2264114504342905
9.247524752475247,0.23650638602900886
9.267326732673267,0.24664099607387902
9.287128712871288,0.25677808171999156
9.306930693069306,0.26688430402128777
9.326732673267326,0.2769295801827274
9.346534653465348,0.2868865841170612
9.366336633663366,0.296730335351543
9.386138613861386,0.3064378616372089
9.405940594059407,0.3159879224609004
9.425742574257425,0.3253607825969078
9.445544554455445,0.33453802664552057
9.465346534653467,0.34350240709943125
9.485148514851485,0.35223771983510077
9.504950495049505,0.3607287020561486
9.524752475247526,0.3689609486440211
9.544554455445544,0.37692084362821354
9.564356435643564,0.38459550410168514
9.584158415841586,0.3919727344039378
9.603960396039604,0.3990409887948745
9.623762376237623,0.40578934116686727
9.643564356435645,0.4122074606047249
9.663366336633663,0.41828559181589353
9.683168316831683,0.42401453962587754
9.702970297029704,0.429385656875156
9.722772277227723,0.4343908351687251
9.742574257425742,0.43902249802469495
9.762376237623764,0.44327359604631894
9.782178217821782,0.44713760380720313
9.801980198019802,0.45060851819371844
9.821782178217823,0.4536808579947992
9.841584158415841,0.4563496645683583
9.861386138613861,0.45861050344746673
9.881188118811881,0.4604594667790666
9.900990099009901,0.4618931765142676
9.92079207920792,0.462908788293492
9.94059405940594,0.46350399599202036
9.96039603960396,0.4636770369127138
9.98019801980198,0.4634266976341173
10.0,0.4627523205431836
10.01980198019802,0.461653811103888
10.03960396039604,0.46013164593694267
10.05940594059406,0.45818688181137907
10.07920792079208,0.45582116567743436
10.099009900990099,0.45303674590290777
10.118811881188119,0.44983648491233047
10.138613861386139,0.44622387347175
10.158415841584159,0.4422030469128982
10.178217821782178,0.4377788036506858
10.198019801980198,0.43295662641958077
10.217821782178218,0.4277427067402183
10.237623762376238,0.42214397323051017
10.257425742574258,0.41616812449988766
10.277227722772277,0.4098236675156251
10.297029702970297,0.4031199625127775
10.316831683168317,0.3960672757412329
10.336633663366337,0.3886768416135627
10.356435643564357,0.3809609361468277
10.376237623762377,0.3729329639928893
10.396039603960396,0.3646075618397507
10.415841584158416,0.3560007215595148
10.435643564356436,0.3471299371930394
10.455445544554454,0.3380143807188956
