Frequency (Hz),Amplitude
0.0,2.346284663975621
0.019867549668874173,2.3458575975048745
0.039735099337748346,2.3445775889821405
0.059602649006622516,2.3424482111610723
0.07947019867549669,2.339475418898451
0.09933774834437085,2.335667549496253
0.11920529801324503,2.331035323061446
0.13907284768211922,2.3255918427610616
0.15894039735099338,2.3193525948104075
0.17880794701986755,2.3123354479895166
0.1986754966887417,2.30456065243513
0.2185430463576159,2.296050837403361
0.23841059602649006,2.2868310076402873
0.2582781456953642,2.2769285379330486
0.27814569536423844,2.2663731653427073
0.2980132450331126,2.2551969785415222
0.31788079470198677,2.243434403590455
0.33774834437086093,2.231122185399038
0.3576158940397351,2.2182993640074384
0.3774834437086093,2.2050072447223923
0.3973509933774834,2.1912893610240163
0.4172185430463576,2.177191429042543
0.4370860927152318,2.162761292283786
0.45695364238410596,2.1480488551646104
0.4768211920529801,2.1331060038078213
0.49668874172185434,2.1179865124459845
0.5165562913907285,2.1027459337026215
0.5364238410596026,2.087441470964528
0.5562913907284769,2.072131831040474
0.5761589403973509,2.0568770553297027
0.5960264900662252,2.0417383278099295
0.6158940397350993,2.0267777583113444
0.6357615894039735,2.01205813978182
0.6556291390728477,1.9976426785818813
0.6754966887417219,1.9835946972835197
0.695364238410596,1.96997730999334
0.7152317880794702,1.9568530708783933
0.7350993377483444,1.9442835973392523
0.7549668874172186,1.9323291701391088
0.7748344370860927,1.9210483137398064
0.7947019867549668,1.9104973610876523
0.8145695364238411,1.900730008096588
0.8344370860927152,1.8917968640453606
0.8543046357615894,1.8837450049877227
0.8741721854304636,1.8766175380104761
0.8940397350993378,1.870453184706152
0.9139072847682119,1.865285892500666
0.9337748344370861,1.8611444824465455
0.9536423841059603,1.8580523417278123
0.9735099337748344,1.8560271684119485
0.9933774834437087,1.8550807749359375
1.0132450331125828,1.8552189554609848
1.033112582781457,1.8564414206270476
1.0529801324503312,1.8587418014597716
1.0728476821192052,1.862107722314403
1.0927152317880795,1.8665209408797505
1.1125827814569538,1.8719575515037992
1.1324503311258278,1.8783882465280817
1.1523178807947019,1.8857786290007201
1.1721854304635762,1.894089569131553
1.1920529801324504,1.903277596185455
1.2119205298013245,1.9132953171886522
1.2317880794701985,1.9240918538329899
1.2516556291390728,1.935613289271331
1.271523178807947,1.9478031170568186
1.2913907284768211,1.9606026852361116
1.3112582781456954,1.9739516295005943
1.3311258278145695,1.9877882902757693
1.3509933774834437,2.0020501096328207
1.370860927152318,2.0166740048923133
1.390728476821192,2.0315967167230675
1.410596026490066,2.046755130390493
1.4304635761589404,2.062086569560933
1.4503311258278146,2.077529062711983
1.4701986754966887,2.0930215827298184
1.4900662251655628,2.1085042606973836
1.5099337748344372,2.1239185751971057
1.5298013245033113,2.139207518680095
1.5496688741721854,2.15431574260099
1.5695364238410596,2.1691896830959756
1.5894039735099337,2.1837776690037236
1.609271523178808,2.1980300140054063
1.6291390728476822,2.2118990946022485
1.6490066225165563,2.225339415565046
1.6688741721854303,2.2383076643891093
1.6887417218543048,2.2507627561755172
1.7086092715231789,2.2626658702415443
1.728476821192053,2.2739804796436935
1.7483443708609272,2.284672374679112
1.7682119205298013,2.2947096813174856
1.7880794701986755,2.3040628754081234
1.8079470198675496,2.3127047934061626
1.8278145695364238,2.3206106402688462
1.847682119205298,2.327757995086895
1.8675496688741722,2.3341268149388306
1.8874172185430464,2.339699437385201
1.9072847682119205,2.344460581955993
1.9271523178807946,2.3483973509274754
1.9470198675496688,2.3514992296323904
1.9668874172185429,2.353758086501027
1.9867549668874174,2.3551681729875105
2.0066225165562916,2.3557261234962588
2.0264900662251657,2.3554309553870554
2.0463576158940397,2.3542840691015665
2.066225165562914,2.3522892484207603
2.086092715231788,2.3494526608286335
2.1059602649006623,2.345782857923586
2.1258278145695364,2.3412907757834764
2.1456953642384105,2.3359897351527814
2.165562913907285,2.3298954412803328
2.185430463576159,2.323025983192179
2.205298013245033,2.315401832136384
2.2251655629139075,2.3070458388833432
2.2450331125827816,2.2979832295068467
2.2649006622516556,2.2882415992061835
2.2847682119205297,2.2778509036576136
2.3046357615894038,2.2668434473051895
2.324503311258278,2.255253867914013
2.3443708609271523,2.243119116615788
2.364238410596027,2.2304784325755844
2.384105960264901,2.21737331130169
2.403973509933775,2.2038474655086717
2.423841059602649,2.189946777328054
2.443708609271523,2.1757192405459373
2.463576158940397,2.161214891433594
2.4834437086092715,2.1464857266322155
2.5033112582781456,2.1315856064607037
2.52317880794702,2.1165701419434177
2.543046357615894,2.1014965638104313
2.562913907284768,2.0864235717166797
2.5827814569536423,2.0714111619667563
2.6026490066225163,2.0565204321326616
2.622516556291391,2.0418133611222284
2.642384105960265,2.0273525635085297
2.662251655629139,2.013201017276112
2.6821192052980134,1.9994217645862224
2.7019867549668874,1.9860775857159245
2.7218543046357615,1.9732306469867527
2.741721854304636,1.9609421242611746
2.76158940397351,1.9492718044386736
2.781456953642384,1.938277668306971
2.801324503311258,1.9280154590689118
2.821192052980132,1.9185382418337946
2.8410596026490067,1.909895960288075
2.8609271523178808,1.9021349975911654
2.8807947019867552,1.8952977492235343
2.9006622516556293,1.8894222159892249
2.9205298013245033,1.8845416255942495
2.9403973509933774,1.8806840911439326
2.9602649006622515,1.8778723144993361
2.9801324503311255,1.876123341697487
3.0,1.87544837658327
3.0198675496688745,1.8758526574579608
3.0397350993377485,1.8773353999743025
3.0596026490066226,1.8798898077741244
3.0794701986754967,1.8835031505559656
3.0993377483443707,1.8881569074681834
3.119205298013245,1.89382697203658
3.1390728476821192,1.900483913336257
3.1589403973509933,1.908093286871011
3.1788079470198674,1.9166159876786415
3.198675496688742,1.9260086375623535
3.218543046357616,1.9362239980623963
3.23841059602649,1.9472114008115928
3.2582781456953644,1.9589171872318822
3.2781456953642385,1.9712851500806274
3.2980132450331126,1.9842569700930626
3.3178807947019866,1.9977726418346724
3.3377483443708607,2.0117708838199575
3.3576158940397347,2.026189528922452
3.3774834437086096,2.0409658920510734
3.3973509933774837,2.056037112966296
3.4172185430463577,2.0713404729296707
3.437086092715232,2.086813684605277
3.456953642384106,2.1023951552521214
3.47682119205298,2.1180242237600124
3.4966887417218544,2.1336413724899637
3.5165562913907285,2.1491884151914693
3.5364238410596025,2.1646086624910184
3.556291390728477,2.1798470665909795
3.576158940397351,2.1948503468963376
3.596026490066225,2.2095670983105227
3.615894039735099,2.2239478839213884
3.6357615894039736,2.237945313744552
3.6556291390728477,2.251514111112254
3.6754966887417218,2.264611168199613
3.695364238410596,2.2771955920725864
3.7152317880794703,2.289228742528811
3.7350993377483444,2.300674262887366
3.754966887417219,2.3114981047699836
3.774834437086093,2.3216685478064365
3.794701986754967,2.3311562150924057
3.814569536423841,2.339934085130283
3.834437086092715,2.347977500892553
3.854304635761589,2.355264176563825
3.8741721854304636,2.3617742024414237
3.8940397350993377,2.3674900484050916
3.9139072847682117,2.3723965663035473
3.9337748344370858,2.376480991548963
3.9536423841059607,2.3797329441588766
3.9735099337748347,2.382144429438181
3.993377483443709,2.3837098384511277
4.013245033112583,2.384425948393363
4.033112582781457,2.3842919229369697
4.052980132450331,2.3833093125858147
4.072847682119205,2.3814820550438878
4.0927152317880795,2.3788164755650176
4.112582781456953,2.3753212872173433
4.132450331125828,2.371007590959746
4.152317880794702,2.365888875389241
4.172185430463576,2.3599810159772407
4.19205298013245,2.3533022735684495
4.211920529801325,2.345873291867401
4.231788079470199,2.337717093584331
4.251655629139073,2.3288590748533857
4.271523178807947,2.3193269974713604
4.291390728476821,2.3091509784340807
4.311258278145695,2.2983634761698033
4.33112582781457,2.2869992727841377
4.3509933774834435,2.275095451540331
4.370860927152318,2.2626913687007995
4.390728476821192,2.2498286187535843
4.410596026490066,2.2365509919409305
4.43046357615894,2.2229044228988126
4.450331125827815,2.2089369291091003
4.470198675496689,2.1946985377632213
4.490066225165563,2.1802411995426696
4.509933774834438,2.1656186877426182
4.529801324503311,2.150886481107724
4.549668874172186,2.136101628720756
4.569536423841059,2.121322595294973
4.589403973509934,2.1066090852790205
4.6092715231788075,2.092021844299796
4.629139072847682,2.077622436654198
4.649006622516556,2.0634729978256314
4.66887417218543,2.049635961354641
4.688741721854305,2.036173759841737
4.708609271523179,2.023148500408373
4.728476821192054,2.0106216155887684
4.748344370860927,1.9986534913637974
4.768211920529802,1.9873030748661682
4.788079470198675,1.9766274651630487
4.80794701986755,1.9666814914283741
4.827814569536423,1.9575172837179307
4.847682119205298,1.9491838424101027
4.867549668874172,1.9417266131273285
4.887417218543046,1.9351870745556667
4.9072847682119205,1.9296023469827777
4.927152317880794,1.9250048295331987
4.947019867549669,1.9214218739581883
4.966887417218543,1.9188755024140882
4.986754966887418,1.917382175932241
5.006622516556291,1.9169526192598316
5.026490066225166,1.9175917064678434
5.04635761589404,1.9192984102315385
5.066225165562914,1.9220658160591166
5.086092715231788,1.9258812010523711
5.105960264900662,1.9307261751130738
5.125827814569536,1.9365768809414996
5.14569536423841,1.9434042477815632
5.1655629139072845,1.951174292711727
5.185430463576159,1.9598484624035502
5.205298013245033,1.9693840076949034
5.225165562913908,1.9797343830557304
5.245033112582782,1.9908496630470691
5.264900662251656,2.0026769681587515
5.28476821192053,2.0151608929176232
5.304635761589404,2.0282439298378487
5.324503311258278,2.041866883587431
5.344370860927152,2.0559692706204746
5.364238410596027,2.07048970042698
5.3841059602649,2.085366235441435
5.403973509933775,2.1005367274956774
5.4238410596026485,2.115939129476316
5.443708609271523,2.1315117815360014
5.463576158940397,2.1471936718008227
5.483443708609272,2.1629246720114166
5.503311258278146,2.1786457489329485
5.52317880794702,2.1942991526759337
5.543046357615895,2.209828583292599
5.562913907284768,2.2251793371636954
5.582781456953643,2.2402984347764905
5.602649006622516,2.255134731528352
5.622516556291391,2.2696390131816604
5.642384105960264,2.2837640775527923
5.662251655629139,2.2974648039508634
5.682119205298013,2.3106982117961654
5.701986754966887,2.323423509751208
5.7218543046357615,2.3356021365931077
5.741721854304636,2.347197794949511
5.7615894039735105,2.3581764789136934
5.781456953642384,2.3685064964508764
5.801324503311259,2.378158487408794
5.821192052980132,2.387105437851531
5.841059602649007,2.395322691348693
5.860927152317881,2.4027879577706934
5.880794701986755,2.4094813200670635
5.900662251655629,2.4153852394363726
5.920529801324503,2.420484559234831
5.940397350993377,2.4247665079141916
5.960264900662251,2.428220701228002
5.980132450331126,2.4308391438986634
6.0,2.4326162308938515
6.0198675496688745,2.4335487484210523
6.039735099337749,2.433635874710545
6.059602649006623,2.432879180620706
6.079470198675497,2.431282630064206
6.099337748344371,2.4288525802176957
6.119205298013245,2.4255977814422893
6.139072847682119,2.421529376804225
6.158940397350993,2.4166609010466105
6.178807947019867,2.4110082788210248
6.198675496688741,2.4045898219430364
6.218543046357616,2.397426225386789
6.23841059602649,2.3895405616806595
6.258278145695365,2.3809582733074293
6.2781456953642385,2.3717071626494857
6.298013245033113,2.3618173789493255
6.317880794701987,2.3513214016811936
6.337748344370861,2.3402540196480732
6.357615894039735,2.328652305031959
6.377483443708609,2.3165555815337084
6.397350993377484,2.304005385643344
6.417218543046357,2.29104541998425
6.437086092715232,2.2777214975765885
6.456953642384105,2.2640814757703147
6.47682119205298,2.2501751785091173
6.496688741721854,2.236054305508447
6.516556291390729,2.2217723268690537
6.5364238410596025,2.207384361607436
6.556291390728477,2.1929470385757694
6.5761589403973515,2.17851833827183
6.596026490066225,2.1641574141151225
6.6158940397351,2.1499243918971382
6.635761589403973,2.135880146310887
6.655629139072848,2.1220860537358015
6.675496688741721,2.1086037208072472
6.695364238410596,2.0954946887385826
6.715231788079469,2.0828201138923315
6.735099337748344,2.0706404257103523
6.754966887417219,2.0590149638072783
6.774834437086093,2.04800159679013
6.794701986754967,2.0376563261721987
6.814569536423841,2.0280328795725997
6.8344370860927155,2.019182298202202
6.854304635761589,2.0111525243905226
6.874172185430464,2.003987995566283
6.894039735099337,1.9977292516188554
6.913907284768212,1.9924125628981544
6.933774834437086,1.9880695862170275
6.95364238410596,1.9847270560734778
6.973509933774834,1.9824065178933652
6.993377483443709,1.9811241094044458
7.013245033112583,1.9808903953036
7.033112582781457,1.9817102592029767
7.052980132450331,1.9835828554821067
7.072847682119205,1.9865016221943923
7.0927152317880795,1.9904543546430415
7.112582781456954,1.9954233377292665
7.132450331125828,2.001385533752685
7.152317880794702,2.0083128210764936
7.172185430463576,2.0161722780100497
7.19205298013245,2.024926505447228
7.211920529801324,2.0345339812529017
7.231788079470198,2.0449494391152165
7.251655629139073,2.056124264569891
7.271523178807947,2.0680069011263917
7.291390728476822,2.080543259854382
7.311258278145695,2.093677126377563
7.33112582781457,2.1073505599290283
7.3509933774834435,2.1215042799025867
7.370860927152318,2.1360780361473486
7.390728476821192,2.1510109600626297
7.410596026490066,2.166241894326031
7.430463576158941,2.1817096998077004
7.450331125827814,2.197353538870347
7.470198675496689,2.2131131348198516
7.490066225165562,2.228929007747715
7.509933774834438,2.244742687398163
7.52980132450331,2.260496903999299
7.549668874172186,2.276135758228868
7.569536423841059,2.2916048716462996
7.589403973509934,2.306851519025506
7.6092715231788075,2.32182474407242
7.629139072847682,2.3364754600221103
7.649006622516557,2.3507565365845595
7.66887417218543,2.3646228746594913
7.6887417218543055,2.37803147017059
7.708609271523178,2.390941468287889
7.728476821192054,2.403314209216083
7.748344370860927,2.4151132666318307
7.768211920529802,2.426304479756258
7.788079470198675,2.4368559799541947
7.80794701986755,2.44673821265926
7.827814569536423,2.4559239553356154
7.847682119205298,2.46438833210476
7.8675496688741715,2.472108825587494
7.887417218543046,2.4790652864401417
7.907284768211921,2.485239940996874
7.927152317880795,2.490617397370015
7.9470198675496695,2.495184650303377
7.966887417218543,2.498931085022937
7.986754966887418,2.5018484802811427
8.006622516556291,2.5039310107475123
8.026490066225167,2.5051752488564856
8.046357615894038,2.5055801661847834
8.066225165562914,2.5051471343924736
8.086092715231787,2.5038799257253253
8.105960264900663,2.5017847130395845
8.125827814569536,2.4988700692727357
8.14569536423841,2.4951469662464136
8.165562913907285,2.4906287726470664
8.185430463576159,2.4853312509882204
8.205298013245034,2.4792725533131903
8.225165562913906,2.47247321534821
8.245033112582782,2.4649561487640157
8.264900662251655,2.456746631146981
8.28476821192053,2.447872293219505
8.304635761589404,2.4383631027832413
8.324503311258278,2.4282513447876957
8.344370860927151,2.417571596850902
8.364238410596027,2.4063606994789835
8.3841059602649,2.3946577201477477
8.403973509933774,2.3825039103239494
8.42384105960265,2.3699426544171454
8.443708609271523,2.35701940956808
8.463576158940398,2.3437816350988916
8.483443708609272,2.330278710377275
8.503311258278146,2.3165618397857344
8.52317880794702,2.3026839434430975
8.543046357615895,2.2886995323042063
8.562913907284768,2.274664566271808
8.582781456953642,2.260636293999929
8.602649006622515,2.2466730731565243
8.62251655629139,2.23283417005517
8.642384105960264,2.219179537766293
8.66225165562914,2.205769572086211
8.682119205298013,2.192664845082489
8.701986754966887,2.17992581634934
8.721854304635762,2.1676125225990415
8.741721854304636,2.155784246779854
8.76158940397351,2.1444991685411874
8.781456953642383,2.133813998549403
8.801324503311259,2.123783599874163
8.821192052980132,2.114460600391567
8.841059602649008,2.1058950008571555
8.86092715231788,2.0981337839548977
8.880794701986755,2.0912205301908773
8.90066225165563,2.0851950469354086
8.920529801324504,2.080093017187267
8.940397350993377,2.075945674708949
8.960264900662251,2.072779512036685
8.980132450331126,2.070616027490399
9.0,2.0694715166951867
9.019867549668875,2.0693569132891123
9.039735099337747,2.070277682458379
9.059602649006623,2.0722337697500177
9.079470198675496,2.0752196063123822
9.099337748344372,2.079224170364775
9.119205298013245,2.0842311033577725
9.139072847682119,2.0902188780181614
9.158940397350994,2.0971610143291817
9.178807947019868,2.105026338527103
9.198675496688743,2.113779279430747
9.218543046357615,2.1233801958848515
9.23841059602649,2.133785728796813
9.258278145695364,2.1449491711737583
9.27814569536424,2.156820849705714
9.298013245033111,2.169348511763253
9.317880794701987,2.1824777121521266
9.33774834437086,2.1961521945555207
9.357615894039736,2.210314263260256
9.37748344370861,2.2249051414701166
9.397350993377483,2.2398653132259967
9.417218543046358,2.2551348466506163
9.437086092715232,2.2706536968942155
9.456953642384107,2.286361987759428
9.47682119205298,2.302200271518268
9.496688741721854,2.3181097668960344
9.516556291390728,2.3340325755828517
9.536423841059603,2.3499118779472776
9.556291390728477,2.3656921088690575
9.57615894039735,2.3813191147891732
9.596026490066224,2.3967402931982003
9.6158940397351,2.411904715859442
9.635761589403973,2.426763237096645
9.655629139072847,2.4412685884762606
9.675496688741722,2.455375461186996
9.695364238410596,2.4690405773719943
9.715231788079471,2.4822227516057063
9.735099337748345,2.4948829436346545
9.754966887417218,2.5069843034202575
9.774834437086092,2.5184922094393296
9.794701986754967,2.529374301112413
9.814569536423841,2.539600506147411
9.834437086092716,2.5491430635041143
9.854304635761588,2.557976542608682
9.874172185430464,2.566077859372569
9.894039735099337,2.5734262895024806
9.913907284768213,2.5800034795227886
9.933774834437086,2.5857934558726234
9.95364238410596,2.5907826323838314
9.973509933774835,2.594959816394877
9.993377483443709,2.598316213707562
10.013245033112582,2.6008454325484966
10.033112582781456,2.6025434866551915
10.052980132450331,2.6034087975659657
10.072847682119205,2.6034421961543415
10.09271523178808,2.6026469234103793
10.112582781456952,2.6010286304337735
10.132450331125828,2.5985953775656436
10.152317880794701,2.595357632546928
10.172185430463577,2.591328267551401
10.192052980132452,2.5865225548987207
10.211920529801324,2.580958161209119
10.2317880794702,2.5746551397129895
10.251655629139073,2.5676359203789434
10.271523178807948,2.5599252974690656
10.29139072847682,2.5515504140725396
10.311258278145695,2.5425407431065494
10.331125827814569,2.532928064208597
10.350993377483444,2.5227464358744043
10.370860927152318,2.5120321621243824
10.390728476821192,2.500823752907075
10.410596026490065,2.489161877373383
10.43046357615894,2.4770893090806405
10.450331125827816,2.464650862114702
10.470198675496688,2.4518933170514194
10.490066225165563,2.4388653356219785
10.509933774834437,2.4256173629012077
10.529801324503312,2.412201515809804
10.549668874172186,2.3986714567155447
10.56953642384106,2.3850822509397283
10.589403973509933,2.3714902070306376
10.609271523178808,2.3579526987611663
10.629139072847682,2.3445279679496926
10.649006622516556,2.331274907397757
10.66887417218543,2.318252823490786
10.688741721854305,2.305521178322192
10.70860927152318,2.2931393115797705
10.728476821192054,2.281166142875499
10.748344370860927,2.2696598557020233
