Time (s),Filtered Signal
0.0,-0.003931742743120438
0.033370535714285714,-0.3119815550314291
0.06674107142857143,-0.5690407420181115
0.10011160714285713,-0.7379281378716923
0.13348214285714285,-0.80421340555802
0.16685267857142858,-0.77723418406395
0.20022321428571427,-0.68374525074806
0.23359375,-0.557324463951797
0.2669642857142857,-0.42766747976823366
0.30033482142857143,-0.3132553409430425
0.33370535714285715,-0.21922186122283918
0.36707589285714287,-0.1403123376969319
0.40044642857142854,-0.06714717576623563
0.43381696428571426,0.0070193982984410545
0.4671875,0.08190589088971342
0.5005580357142857,0.15000710282960744
0.5339285714285714,0.200600945565966
0.5672991071428571,0.22601271567517603
0.6006696428571429,0.2269577421477692
0.6340401785714286,0.21394993150831618
0.6674107142857143,0.20347750231272965
0.70078125,0.21027733542674515
0.7341517857142857,0.2393058862518742
0.7675223214285715,0.2816001289538827
0.8008928571428571,0.3166337669533237
0.8342633928571428,0.32070205886726244
0.8676339285714285,0.2778657580893274
0.9010044642857142,0.18856059574259382
0.934375,0.07179866140569782
0.9677455357142857,-0.04046917298080763
1.0011160714285714,-0.11496900998552544
1.0344866071428571,-0.13023771010018395
1.0678571428571428,-0.08592760026031504
1.1012276785714286,-0.0041833511469730154
1.1345982142857143,0.07795408229843108
1.16796875,0.1224166942262023
1.2013392857142857,0.10471808631027074
1.2347098214285714,0.023234206322328685
1.2680803571428572,-0.10073515397158035
1.3014508928571429,-0.2320135810923936
1.3348214285714286,-0.3355721411636993
1.3681919642857143,-0.3892457510767003
1.4015625,-0.389649101688801
1.4349330357142858,-0.34923507956128064
1.4683035714285715,-0.28687256587962606
1.5016741071428572,-0.21747981253266385
1.535044642857143,-0.14640211760160393
1.5684151785714286,-0.0712120802354622
1.6017857142857141,0.010906444796376374
1.6351562499999999,0.09543366195283469
1.6685267857142856,0.1679315128940827
1.7018973214285713,0.20896797978749238
1.735267857142857,0.20427771404159548
1.7686383928571427,0.15451943119439604
1.8020089285714285,0.07888928770066846
1.8353794642857142,0.010013679827767083
1.86875,-0.01795613876468938
1.9021205357142856,0.01716310224745081
1.9354910714285714,0.11623137376245254
1.968861607142857,0.257202250761208
2.002232142857143,0.40166658153008933
2.0356026785714287,0.5069522775357211
2.0689732142857142,0.5395302465964997
2.10234375,0.4852430676784891
2.1357142857142857,0.3529646342239553
2.169084821428571,0.1704851347263105
2.202455357142857,-0.02578546790284206
2.2358258928571426,-0.2032182068524171
2.2691964285714286,-0.34240206534140943
2.302566964285714,-0.43981528845780044
2.3359375,-0.5031246053582605
2.3693080357142855,-0.5421485355065212
2.4026785714285714,-0.5607065684316672
2.436049107142857,-0.55404707228355
2.469419642857143,-0.5134211090280104
2.5027901785714284,-0.43515137025297695
2.5361607142857143,-0.32846750107741024
2.56953125,-0.21634308566119065
2.6029017857142858,-0.12706457116621744
2.6362723214285713,-0.07977932190817204
2.669642857142857,-0.07175430576034895
2.7030133928571427,-0.07552029087191
2.7363839285714286,-0.04950560094729774
2.769754464285714,0.04171974857727166
2.803125,0.20759084817415302
2.8364955357142856,0.42294263091841894
2.8698660714285715,0.636131471203123
2.903236607142857,0.7905379011700441
2.936607142857143,0.8488124486302896
2.9699776785714285,0.8076693694557873
3.0033482142857144,0.696124395069934
3.03671875,0.5589058821341608
3.070089285714286,0.4343548566613236
3.1034598214285714,0.338333770564256
3.1368303571428573,0.2615737384681553
3.170200892857143,0.18019905739657258
3.2035714285714283,0.07238886830489377
3.2369419642857142,-0.06816156299972814
3.2703124999999997,-0.22845253967210818
3.3036830357142857,-0.38271962627896267
3.337053571428571,-0.5046299996191794
3.370424107142857,-0.5782783430877877
3.4037946428571426,-0.6027332741896074
3.4371651785714286,-0.5889653016793654
3.470535714285714,-0.5521598787010943
3.50390625,-0.5044864161670582
3.5372767857142855,-0.45238708326044574
3.5706473214285714,-0.3990915958391407
3.604017857142857,-0.349417198935614
3.637388392857143,-0.3122705124830052
3.6707589285714284,-0.2977927817184767
3.7041294642857143,-0.30996718472547474
3.7375,-0.3392615174836155
3.7708705357142858,-0.3608821655161891
3.8042410714285713,-0.34150714982864294
3.837611607142857,-0.25247392612132485
3.8709821428571427,-0.08338341797662743
3.9043526785714286,0.15055376364901527
3.937723214285714,0.411077638352429
3.97109375,0.6482570225135516
4.004464285714286,0.8158478222079937
4.0378348214285715,0.8847504802912379
4.0712053571428575,0.8502900138297512
4.1045758928571425,0.7319115269777622
4.1379464285714285,0.5664308853953475
4.171316964285714,0.39735626132876295
4.2046875,0.2631219611043545
4.238058035714285,0.186953389938318
4.271428571428571,0.17086710071273603
4.304799107142857,0.1957683308497497
4.338169642857142,0.22824946546237515
4.371540178571428,0.23246926647554506
4.404910714285714,0.1831996188029664
4.43828125,0.07506887036361547
4.471651785714285,-0.07584989230952507
4.505022321428571,-0.23884837243086723
4.538392857142857,-0.38082358147455003
4.571763392857143,-0.47854882988294295
4.605133928571428,-0.5257128389949487
4.638504464285714,-0.5321227852524343
4.671875,-0.5162496359122067
4.705245535714286,-0.495248794272958
4.738616071428571,-0.47730415004223525
4.771986607142857,-0.4594793494588961
4.805357142857143,-0.43129346792153306
4.838727678571429,-0.38154587845693627
4.872098214285714,-0.30471636161138776
4.90546875,-0.20391549360370864
4.938839285714286,-0.08934111218376296
4.972209821428572,0.026521152790496272
5.005580357142857,0.13419625213598138
5.038950892857143,0.23017967740419407
5.072321428571429,0.31609863020982876
5.105691964285715,0.3947635088491112
5.1390625,0.4655858726968018
5.172433035714286,0.5222311035412127
5.2058035714285715,0.5540692320537357
5.2391741071428575,0.5507011980288465
5.2725446428571425,0.5069489753841904
5.3059151785714285,0.42539887219867856
5.339285714285714,0.3150939835390845
5.3726562499999995,0.1873539040338515
5.406026785714285,0.051460773871624864
5.439397321428571,-0.08702999443823675
5.472767857142857,-0.22436643574940357
5.506138392857142,-0.35457394364257566
5.539508928571428,-0.46650216100875214
5.572879464285714,-0.5448128486919608
5.60625,-0.5754891721388748
5.639620535714285,-0.553417867499013
5.672991071428571,-0.487661946130577
5.706361607142857,-0.40054642480930003
5.739732142857143,-0.31960787079114883
5.773102678571428,-0.2653715005586876
5.806473214285714,-0.24071645734542763
5.83984375,-0.2276144301132771
5.873214285714286,-0.19394941214379474
5.906584821428571,-0.10823007428015861
5.939955357142857,0.04429352732693972
5.973325892857143,0.25191411792289115
6.006696428571429,0.4782883545542481
6.040066964285714,0.6754053965137458
6.0734375,0.8017464127880195
6.106808035714286,0.8370659508048343
6.140178571428572,0.7870480086028965
6.173549107142857,0.6764338725163695
6.206919642857143,0.5352131112130551
6.240290178571429,0.38579915393670167
6.273660714285715,0.2378816318447586
6.30703125,0.09259535375531204
6.340401785714286,-0.04814800739726128
6.3737723214285715,-0.17426934744690808
6.407142857142857,-0.2675060689470952
6.4405133928571425,-0.30911890586154667
6.4738839285714285,-0.290524536538789
6.507254464285714,-0.22011773893798622
6.5406249999999995,-0.12192138911621471
6.573995535714285,-0.02674772881759944
6.607366071428571,0.038984639285902116
6.640736607142857,0.06055212191251266
6.674107142857142,0.03502021259570929
6.707477678571428,-0.03427179812361797
6.740848214285714,-0.1435726840983538
6.77421875,-0.28975012107955056
6.807589285714285,-0.4651795220540447
6.840959821428571,-0.6502937582854597
6.874330357142857,-0.8104499551296147
6.907700892857143,-0.9021640053464247
6.941071428571428,-0.8883093563761724
6.974441964285714,-0.7557457266497158
7.0078125,-0.5259011360121653
7.041183035714286,-0.25125247906964304
7.074553571428571,0.002524852431104365
7.107924107142857,0.1813987540806997
7.141294642857143,0.26341042960351735
7.174665178571429,0.2650841423273079
7.208035714285714,0.2309774052379618
7.24140625,0.21170666402395022
7.274776785714286,0.24112752287421452
7.308147321428572,0.32323729970174425
7.341517857142857,0.4340837464560364
7.374888392857143,0.5364055599968464
7.408258928571429,0.5987892224094221
7.441629464285715,0.6096490582256182
7.475,0.5797476849391847
7.508370535714286,0.5332284045783163
7.5417410714285715,0.4929181072518611
7.575111607142857,0.46812574610745045
7.6084821428571425,0.4512700846575573
7.6418526785714285,0.4245907615483458
7.675223214285714,0.37264026505874337
7.7085937499999995,0.2931204980318334
7.741964285714285,0.19957258624726934
7.775334821428571,0.11399615390834966
7.808705357142857,0.05325135450521194
7.842075892857142,0.016929593834615727
7.875446428571428,-0.015925732335992402
7.908816964285714,-0.07830565194548025
7.9421875,-0.1983097187233799
7.975558035714285,-0.3820621331612211
8.008928571428571,-0.6054745105364159
8.042299107142856,-0.8199073666594632
8.075669642857143,-0.9700086153763258
8.109040178571428,-1.0158229414696738
8.142410714285715,-0.9488579641154709
8.17578125,-0.794483703745814
8.209151785714285,-0.5995886568528007
8.242522321428572,-0.41158741120657
8.275892857142857,-0.25904551354188315
8.309263392857142,-0.14319814188188104
8.342633928571429,-0.04395876382965001
8.376004464285714,0.0634608543017341
8.409375,0.19062079236510204
8.442745535714286,0.3264624849072782
8.47611607142857,0.44164226997697664
8.509486607142858,0.5042820493993732
8.542857142857143,0.4984704698602445
8.576227678571428,0.4351055053617092
8.609598214285715,0.3486271693137319
8.64296875,0.2808187043893849
8.676339285714285,0.2600244748309822
8.709709821428572,0.28685010569467223
8.743080357142857,0.3340697642758156
8.776450892857143,0.3608297867201409
8.809821428571428,0.33353220310884996
8.843191964285714,0.24232720877673902
8.8765625,0.1048552702708902
8.909933035714285,-0.04387609109868076
8.94330357142857,-0.16904602452150838
8.976674107142857,-0.2510205735423482
9.010044642857142,-0.2901012115485103
9.04341517857143,-0.29979644789940785
9.076785714285714,-0.29405259611820767
9.11015625,-0.2768756442040524
9.143526785714286,-0.24064147420153437
9.176897321428571,-0.17370835210206248
9.210267857142856,-0.07219539573340382
9.243638392857143,0.051734305271347446
9.277008928571428,0.1707319356333872
9.310379464285715,0.25260793207030635
9.34375,0.2749598655959318
9.377120535714285,0.23621204919186523
9.410491071428572,0.1569276438146901
9.443861607142857,0.07044923329985553
9.477232142857142,0.00768684815580932
9.510602678571429,-0.016041369463864665
9.543973214285714,-0.005532239298936086
9.57734375,0.020081217628682542
9.610714285714286,0.03944455036375563
9.64408482142857,0.040348168012424926
9.677455357142858,0.0243034103986477
9.710825892857143,0.002651076680594749
9.744196428571428,-0.012502657451866786
9.777566964285715,-0.01655780727693257
9.8109375,-0.014973862910570766
9.844308035714285,-0.01907499722167782
9.877678571428572,-0.038301909893125284
9.911049107142857,-0.07404989544122428
9.944419642857143,-0.11885611266025524
9.977790178571428,-0.16113094335806752
10.011160714285714,-0.19228229020817086
10.04453125,-0.21193257724868783
10.077901785714285,-0.22829099518070858
10.11127232142857,-0.2534197122594906
10.144642857142857,-0.29556319185758684
10.178013392857142,-0.3519851306676031
10.21138392857143,-0.40573725906713765
10.244754464285714,-0.42861386153039593
10.278125,-0.3903770162768617
10.311495535714286,-0.2715829483615988
10.344866071428571,-0.07500543482183863
10.378236607142856,0.16989570971758186
10.411607142857143,0.41290021949793687
10.444977678571428,0.5984677506869106
10.478348214285715,0.6851603643922881
10.51171875,0.6609480856260669
10.545089285714285,0.5474477191785729
10.578459821428572,0.3908148479728389
10.611830357142857,0.24310129514223883
10.645200892857142,0.1423936730431515
10.678571428571429,0.10060210745617773
10.711941964285714,0.10395238444194235
10.745312499999999,0.12487806367987259
10.778683035714286,0.13833620642127423
10.81205357142857,0.13359342736126747
10.845424107142858,0.11542760142610951
10.878794642857143,0.09500499534633913
10.912165178571428,0.07691555229636643
10.945535714285715,0.051316824362933444
10.97890625,-0.0027803956670671803
11.012276785714285,-0.10385243515786738
11.045647321428572,-0.25141231140892467
11.079017857142857,-0.4171344665043679
11.112388392857143,-0.5507518282614855
11.145758928571428,-0.6001606401898508
11.179129464285714,-0.5368534654154463
11.2125,-0.3735959105595819
11.245870535714285,-0.16392573624553153
11.27924107142857,0.018262833653450553
11.312611607142857,0.11038363424654016
11.345982142857142,0.08891499462952775
11.37935267857143,-0.020635963999428422
11.412723214285714,-0.15670284833363057
11.44609375,-0.2510326332894833
11.479464285714286,-0.25966124206265406
11.512834821428571,-0.18030746348945723
11.546205357142856,-0.04854048767407466
11.579575892857143,0.08378680015467833
11.612946428571428,0.17568049106336242
11.646316964285715,0.21571107822121002
11.6796875,0.2236267203080582
11.713058035714285,0.23544225345570557
11.746428571428572,0.28073212590585905
11.779799107142857,0.3641108666482517
11.813169642857142,0.4601646659327068
11.846540178571429,0.5241991226548377
11.879910714285714,0.5135574086141853
11.913281249999999,0.40936396353778715
11.946651785714286,0.2283321546533229
11.98002232142857,0.01865432999418668
12.013392857142858,-0.15893304603960762
12.046763392857143,-0.25698361514699386
12.080133928571428,-0.2625084705781136
12.113504464285715,-0.20333820261243205
12.146875,-0.13588087104155416
12.180245535714285,-0.1191812996181441
12.213616071428572,-0.18711310326605443
12.246986607142857,-0.33191995154424553
12.280357142857143,-0.5070200029381838
12.313727678571428,-0.6474948078815076
12.347098214285714,-0.6980131251887364
12.38046875,-0.634772421769309
12.413839285714285,-0.4719106364594022
12.44720982142857,-0.2512478304583155
12.480580357142857,-0.022296256561896977
12.513950892857142,0.17696214294825827
12.54732142857143,0.3301754663942531
12.580691964285714,0.44104378854126536
12.6140625,0.5233807869738969
12.647433035714286,0.5892115605623315
12.680803571428571,0.6407940875272787
12.714174107142856,0.669483203695432
12.747544642857143,0.6608356583449843
12.780915178571428,0.6028321602711326
12.814285714285713,0.4932603187693901
12.84765625,0.3430840374520568
12.881026785714285,0.17447430770419978
12.914397321428572,0.014351025276099235
12.947767857142857,-0.11396050615827277
12.981138392857142,-0.19763167880727542
13.014508928571429,-0.23709852186077687
13.047879464285714,-0.24383710291166183
13.081249999999999,-0.234562947291725
13.114620535714286,-0.2248374902423217
13.14799107142857,-0.2250077166481751
13.181361607142858,-0.23971989577322284
13.214732142857143,-0.2699865128761315
13.248102678571428,-0.31541708545948033
13.281473214285715,-0.3746131263443664
13.31484375,-0.4435080858982032
13.348214285714285,-0.5132773173200595
13.381584821428572,-0.5700268409553602
13.414955357142857,-0.5974001598391855
13.448325892857143,-0.581292476339012
13.481696428571428,-0.5143959842602107
13.515066964285714,-0.3983256091005095
13.5484375,-0.24255246349446455
13.581808035714285,-0.06124673860135248
13.61517857142857,0.12991586653084694
13.648549107142857,0.31551609723035456
13.681919642857142,0.48082831544204596
13.71529017857143,0.612296008010374
13.748660714285714,0.6992822472272181
13.78203125,0.7368663670194189
13.815401785714286,0.7278582739483688
13.848772321428571,0.6819451890640067
13.882142857142856,0.6115019705037258
13.915513392857143,0.5260884390661139
13.948883928571428,0.42912947982081545
13.982254464285713,0.31936199147639394
14.015625,0.19663231304374149
14.048995535714285,0.06841929327028344
14.082366071428572,-0.047736083260862566
14.115736607142857,-0.12884643078695532
14.149107142857142,-0.15703452863645537
14.182477678571429,-0.1309838932177898
14.215848214285714,-0.07177809039017805
14.249218749999999,-0.01869862896974773
14.282589285714286,-0.015279943928727545
14.31595982142857,-0.09095562610402887
14.349330357142858,-0.24638550229173464
14.382700892857143,-0.44952070372008557
14.416071428571428,-0.6449835619240577
14.449441964285715,-0.7734623243460649
14.4828125,-0.7933201662292103
14.516183035714285,-0.6956115566588142
14.549553571428572,-0.5065985167084114
14.582924107142857,-0.2772174235240188
14.616294642857143,-0.0642598375320652
14.649665178571428,0.08899567534833457
14.683035714285714,0.1653848336963741
14.71640625,0.1756901360855167
14.749776785714285,0.15026326063978082
14.78314732142857,0.12483047766988506
14.816517857142857,0.1265174726498084
14.849888392857142,0.16518462073621598
14.88325892857143,0.2323813033619487
14.916629464285714,0.30704294449929376
14.95,0.3648012616974191
14.983370535714286,0.3870871374202566
15.016741071428571,0.366938828403282
15.050111607142856,0.3100284588226164
15.083482142857143,0.23125548801867185
15.116852678571428,0.148754983836126
15.150223214285713,0.07786902419324919
15.18359375,0.027306566612921284
15.216964285714285,-0.0014735983665455537
15.250334821428572,-0.012151431006579512
15.283705357142857,-0.01037251322367925
15.317075892857142,-0.001439802597823543
15.350446428571429,0.009999115371398418
15.383816964285714,0.01859525906837851
15.417187499999999,0.016893922697141368
15.450558035714286,-0.0042140316353610225
15.48392857142857,-0.05236352614724567
15.517299107142858,-0.12902209213137197
15.550669642857143,-0.2259315952761059
15.584040178571428,-0.32543347362814756
15.617410714285715,-0.4055978976727871
15.65078125,-0.44826242293616086
15.684151785714285,-0.4459832047771616
15.717522321428572,-0.4039872989639773
15.750892857142857,-0.3357421206286635
15.784263392857143,-0.25445299817202816
15.817633928571428,-0.16548449137034646
15.851004464285714,-0.06455424585120927
15.884375,0.056692641601014504
15.917745535714285,0.20076630085741057
15.95111607142857,0.3563344293478359
15.984486607142857,0.49794509347128657
16.017857142857142,0.5949857289047945
16.05122767857143,0.6256386621940053
16.084598214285712,0.5879432990404083
16.11796875,0.5010887802473797
16.151339285714286,0.3954874081220537
16.18470982142857,0.29689423290047695
16.218080357142856,0.21369461957221475
16.251450892857143,0.13492933806769697
16.28482142857143,0.04039623584553189
16.318191964285713,-0.08308439362077828
16.3515625,-0.22903669666754736
16.384933035714287,-0.3702068345318307
16.41830357142857,-0.4701709367415007
16.451674107142857,-0.5014393832011508
16.485044642857144,-0.46000518848108857
16.518415178571427,-0.368306311165199
16.551785714285714,-0.2651087302598804
16.58515625,-0.18792427673276957
16.618526785714284,-0.15717475741330736
16.65189732142857,-0.16962204409786807
16.685267857142858,-0.2030171678711606
16.71863839285714,-0.22800988538759576
16.752008928571428,-0.22047687547872521
16.785379464285715,-0.16877330760002957
16.81875,-0.07449571898846971
16.852120535714285,0.050807425241667294
16.88549107142857,0.1893184056103196
16.91886160714286,0.31908347444453694
16.95223214285714,0.41554122970533736
16.98560267857143,0.4549809368060694
17.018973214285715,0.42137006379190217
17.05234375,0.3148785848058525
17.085714285714285,0.1575700813852996
17.119084821428572,-0.008561959266407279
17.152455357142856,-0.13300730056794444
17.185825892857142,-0.17444833370075666
17.21919642857143,-0.11751947202625969
17.252566964285712,0.019338640930760747
17.2859375,0.18942425173695768
17.319308035714286,0.33507514362394014
17.35267857142857,0.4093466137656715
17.386049107142856,0.3924342693750438
17.419419642857143,0.2957822928063173
17.45279017857143,0.15293766644697537
17.486160714285713,0.002580084779897435
17.51953125,-0.1276190549307254
17.552901785714287,-0.22904561086012934
17.58627232142857,-0.3096366216043106
17.619642857142857,-0.38366686112712306
17.653013392857144,-0.4597920115177065
