Frequency (Hz),Amplitude
0.0,0.518325307989091
0.019801980198019802,0.5196222968150175
0.039603960396039604,0.5234888641303096
0.0594059405940594,0.5298536074823281
0.07920792079207921,0.5386031956601712
0.09900990099009901,0.5495898847214269
0.1188118811881188,0.5626403487259178
0.13861386138613863,0.5775646920772277
0.15841584158415842,0.5941647288419688
0.1782178217821782,0.6122409452175145
0.19801980198019803,0.6315978942442739
0.21782178217821782,0.6520480351234972
0.2376237623762376,0.6734141969349097
0.25742574257425743,0.6955309255261035
0.27722772277227725,0.7182449863704365
0.297029702970297,0.7414152712011727
0.31683168316831684,0.7649123132950366
0.33663366336633666,0.7886175694683649
0.3564356435643564,0.8124225839977733
0.37623762376237624,0.8362281141528892
0.39603960396039606,0.8599432694897424
0.4158415841584158,0.8834846967648163
0.43564356435643564,0.9067758280078168
0.45544554455445546,0.929746199580434
0.4752475247524752,0.9523308437391353
0.495049504950495,0.9744697503314143
0.5148514851485149,0.9961073940338522
0.5346534653465347,1.0171923214332887
0.5544554455445545,1.037676791865118
0.5742574257425742,1.0575164659801348
0.594059405940594,1.0766701363294255
0.613861386138614,1.095099494711131
0.6336633663366337,1.112768931535933
0.6534653465346534,1.1296453629903072
0.6732673267326733,1.1456980822787595
0.6930693069306931,1.1608986316933454
0.7128712871287128,1.1752206926827944
0.7326732673267327,1.1886399914727128
0.7524752475247525,1.2011342181242493
0.7722772277227723,1.2126829572128273
0.7920792079207921,1.2232676285663315
0.8118811881188118,1.2328714367268032
0.8316831683168316,1.2414793279945535
0.8514851485148516,1.249077954084793
0.8712871287128713,1.2556556415747955
0.891089108910891,1.2612023664504197
0.9108910891089109,1.2657097331755298
0.9306930693069307,1.2691709578099126
0.9504950495049505,1.2715808547925205
0.9702970297029703,1.2729358270900988
0.99009900990099,1.273233859487096
1.00990099009901,1.272474514864507
1.0297029702970297,1.2706589333828304
1.0495049504950495,1.267789834550832
1.0693069306930694,1.263871522227211
1.0891089108910892,1.258909892668984
1.108910891089109,1.2529124458099938
1.1287128712871286,1.2458883000256409
1.1485148514851484,1.2378482107193691
1.1683168316831685,1.2288045931523126
1.188118811881188,1.2187715500337002
1.2079207920792079,1.2077649044962477
1.227722772277228,1.1958022392027354
1.2475247524752475,1.1829029424669653
1.2673267326732673,1.1690882624305636
1.2871287128712872,1.1543813705175232
1.3069306930693068,1.138807435595461
1.3267326732673268,1.1223937105112103
1.3465346534653466,1.105169632940815
1.3663366336633662,1.0871669428055426
1.3861386138613863,1.0684198188596026
1.405940594059406,1.048965037452795
1.4257425742574257,1.0288421569136736
1.4455445544554455,1.0080937314813931
1.4653465346534653,0.9867655592257404
1.4851485148514851,0.9649069689157589
1.504950495049505,0.9425711512894835
1.5247524752475248,0.9198155405807931
1.5445544554455446,0.8967022523781079
1.5643564356435644,0.8732985837757279
1.5841584158415842,0.8496775811118682
1.6039603960396038,0.825918679046021
1.6237623762376237,0.8021084118528807
1.6435643564356437,0.7783411929673862
1.6633663366336633,0.7547201511560607
1.683168316831683,0.7313580001340168
1.7029702970297032,0.7083779017092248
1.7227722772277227,0.6859142592600186
1.7425742574257426,0.6641133474251201
1.7623762376237624,0.6431336450608014
1.782178217821782,0.6231456934537987
1.801980198019802,0.6043312555566217
1.8217821782178218,0.5868815149784824
1.8415841584158414,0.5709940427200471
1.8613861386138615,0.5568682988015555
1.881188118811881,0.5446995510238772
1.900990099009901,0.5346713024861872
1.920792079207921,0.5269466179583187
1.9405940594059405,0.5216590815061696
1.9603960396039604,0.5189044132025621
1.98019801980198,0.5187339045376812
2.0,0.5211507048511497
2.01980198019802,0.526109587734606
2.0396039603960396,0.5335202380749372
2.0594059405940595,0.5432534997766922
2.0792079207920793,0.555149589413422
2.099009900990099,0.5690271166839841
2.118811881188119,0.5846918549696244
2.1386138613861387,0.6019444862116063
2.1584158415841586,0.6205868865637453
2.1782178217821784,0.6404268270034634
2.1980198019801978,0.6612811850434432
2.217821782178218,0.6829778903050957
2.237623762376238,0.7053568742942224
2.257425742574257,0.7282702889982178
2.2772277227722775,0.7515822241775183
2.297029702970297,0.7751681074708435
2.3168316831683167,0.7989139258320166
2.336633663366337,0.8227153670268232
2.3564356435643563,0.8464769479502388
2.376237623762376,0.8701111723052075
2.3960396039603964,0.8935377426724518
2.4158415841584158,0.9166828398479643
2.4356435643564356,0.9394784742252336
2.455445544554456,0.961861908844096
2.4752475247524752,0.9837751506374107
2.495049504950495,1.0051645047218316
2.514851485148515,1.0259801858195208
2.5346534653465347,1.0461759807267754
2.5544554455445545,1.0657089559306496
2.5742574257425743,1.084539204861056
2.594059405940594,1.102629629750465
2.6138613861386135,1.119945753593261
2.633663366336634,1.1364555582109233
2.6534653465346536,1.1521293449165262
2.673267326732673,1.1669396147198439
2.6930693069306932,1.1808609654181916
2.712871287128713,1.193870003277589
2.7326732673267324,1.2059452673257693
2.7524752475247527,1.2170671645561848
2.7722772277227725,1.227217914584749
2.792079207920792,1.2363815025119471
2.811881188118812,1.2445436389273252
2.8316831683168315,1.2516917261532754
2.8514851485148514,1.257814829965718
2.8712871287128716,1.262903656152264
2.891089108910891,1.2669505313775133
2.910891089108911,1.2699493879220847
2.9306930693069306,1.2718957519496985
2.9504950495049505,1.2727867350360167
2.9702970297029703,1.272621028767311
2.99009900990099,1.2713989022863283
3.00990099009901,1.2691222027299172
3.0297029702970297,1.2657943585686406
3.0495049504950495,1.2614203859246105
3.0693069306930694,1.2560068980114265
3.089108910891089,1.2495621179107579
3.108910891089109,1.2420958949758265
3.128712871287129,1.233619725233708
3.148514851485148,1.2241467762486447
3.1683168316831685,1.21369191700886
3.1881188118811883,1.2022717535122496
3.2079207920792077,1.1899046708544305
3.227722772277228,1.1766108827682533
3.2475247524752473,1.162412489730988
3.267326732673267,1.1473335469466637
3.2871287128712874,1.131400143730911
3.3069306930693068,1.114640496077487
3.3267326732673266,1.097085054474107
3.346534653465347,1.07876662936322
3.366336633663366,1.0597205370145686
3.386138613861386,1.0399847689914212
3.4059405940594063,1.019600188849656
3.4257425742574257,0.9986107602019263
3.4455445544554455,0.9770638107925085
3.4653465346534653,0.9550103377354081
3.485148514851485,0.9325053595221254
3.504950495049505,0.9096083207311254
3.5247524752475248,0.8863835554520891
3.5445544554455446,0.8629008150974788
3.564356435643564,0.8392358652507736
3.5841584158415842,0.8154711541183857
3.603960396039604,0.7916965514815174
3.6237623762376234,0.7680101510640921
3.6435643564356437,0.7445191200001063
3.6633663366336635,0.7213405654301113
3.683168316831683,0.698602368857239
3.702970297029703,0.6764439124684952
3.722772277227723,0.6550165873765783
3.7425742574257423,0.6344839321276357
3.762376237623762,0.6150212038288573
3.7821782178217824,0.5968141410439791
3.801980198019802,0.5800566503114544
3.8217821782178216,0.564947156757488
3.841584158415842,0.5516834289950834
3.8613861386138613,0.5404558431908838
3.881188118811881,0.5314393006437999
3.9009900990099013,0.5247843362362689
3.9207920792079207,0.5206082864198076
3.9405940594059405,0.5189876198736262
3.96039603960396,0.5199525587567826
3.98019801980198,0.523484867498561
4.0,0.5295191891177768
4.01980198019802,0.5379476983048742
4.03960396039604,0.5486272993200437
4.0594059405940595,0.5613882769810996
4.079207920792079,0.5760432677749026
4.099009900990099,0.5923956098637527
4.118811881188119,0.6102464487830727
4.138613861386139,0.6294003087124226
4.158415841584159,0.6496691107036698
4.178217821782178,0.6708747977029281
4.198019801980198,0.6928508152627914
4.217821782178218,0.7154427182928078
4.237623762376238,0.7385081537510124
4.257425742574258,0.7619164284485445
4.2772277227722775,0.7855478249552931
4.297029702970297,0.8092927854640406
4.316831683168317,0.8330510472507051
4.336633663366336,0.8567307850197755
4.356435643564357,0.8802477943716958
4.376237623762377,0.9035247356611523
4.3960396039603955,0.926490447291473
4.415841584158416,0.949079330792397
4.435643564356436,0.9712308058555521
4.455445544554455,0.992888831078153
4.475247524752476,1.0140014849182812
4.4950495049504955,1.0345206008823562
4.514851485148514,1.0544014509606985
4.534653465346535,1.0736024716050463
4.554455445544555,1.0920850269722238
4.574257425742574,1.1098132046575695
4.594059405940594,1.1267536396569633
4.613861386138614,1.1428753627966222
4.633663366336633,1.1581496703369094
4.653465346534653,1.1725500118830403
4.673267326732674,1.1860518941172646
4.693069306930693,1.19863279820652
4.712871287128713,1.2102721090371824
4.732673267326733,1.2209510546895832
4.752475247524752,1.230652654792382
4.772277227722772,1.2393616765952606
4.792079207920793,1.2470645977708952
4.811881188118812,1.2537495751084224
4.8316831683168315,1.259406418392463
4.851485148514852,1.2640265688785375
4.871287128712871,1.267603081878821
4.891089108910891,1.2701306130649244
4.910891089108912,1.2716054081779837
4.930693069306931,1.2720252959135383
4.9504950495049505,1.2713896838202867
4.97029702970297,1.2696995571203384
4.99009900990099,1.2669574804246326
5.00990099009901,1.2631676023830993
5.02970297029703,1.2583356633754539
5.0495049504950495,1.2524690064175257
5.069306930693069,1.2455765915305828
5.089108910891089,1.2376690138991846
5.108910891089109,1.2287585262284213
5.128712871287129,1.2188590658055551
5.148514851485149,1.2079862868766948
5.1683168316831685,1.196157599068144
5.188118811881188,1.183392212717132
5.207920792079208,1.1697111921313117
5.227722772277227,1.1551375179727676
5.247524752475248,1.1396961601653386
5.267326732673268,1.123414162956325
5.2871287128712865,1.1063207440300182
5.306930693069307,1.088447409873956
5.326732673267327,1.0698280899435806
5.346534653465346,1.05049929255797
5.366336633663367,1.0305002858895311
5.3861386138613865,1.0098733078791704
5.405940594059405,0.9886638094055582
5.425742574257426,0.9669207355426032
5.445544554455446,0.9446968502171869
5.465346534653465,0.9220491099720792
5.485148514851486,0.8990390927535177
5.504950495049505,0.8757334875385208
5.524752475247524,0.8522046499819993
5.544554455445545,0.828531227790119
5.564356435643565,0.8047988567759791
5.584158415841584,0.781100923919971
5.603960396039604,0.7575393864293215
5.623762376237624,0.7342256247363462
5.643564356435643,0.7112812913588338
5.663366336633663,0.6888390952600918
5.683168316831684,0.667043431694289
5.702970297029703,0.6460507302004954
5.7227722772277225,0.6260293498757948
5.742574257425743,0.6071588059680261
5.762376237623762,0.589628074781536
5.782178217821782,0.5736327109145258
5.801980198019803,0.5593705443525051
5.821782178217822,0.5470358301286753
5.841584158415841,0.5368119189563284
5.861386138613861,0.5288628010009194
5.881188118811881,0.5233242069596605
5.900990099009901,0.5202952469811379
5.920792079207921,0.5198317167252116
5.9405940594059405,0.5219421043018129
5.96039603960396,0.5265869656530787
5.98019801980198,0.5336817762636462
6.0,0.5431027748926335
6.01980198019802,0.5546948660506004
6.03960396039604,0.5682804543596157
6.0594059405940595,0.5836681546471834
6.079207920792079,0.6006605788869807
6.099009900990099,0.6190607321969391
6.118811881188119,0.6386768578881318
6.138613861386139,0.6593258004160228
6.158415841584159,0.6808350909587767
6.178217821782178,0.7030440164509973
6.198019801980198,0.7258039335578411
6.217821782178218,0.7489780583517673
6.237623762376237,0.772440918788493
6.257425742574258,0.7960776122266384
6.2772277227722775,0.819782970400403
6.297029702970296,0.8434607018427775
6.316831683168317,0.8670225569530128
6.336633663366337,0.8903875428066853
6.356435643564356,0.9134812021396628
6.376237623762377,0.9362349624171412
6.396039603960396,0.9585855554140433
6.415841584158415,0.98047450439503
6.435643564356436,1.0018476741144167
6.455445544554456,1.0226548779663112
6.475247524752475,1.0428495363518833
6.495049504950495,1.0623883804523142
6.514851485148515,1.0812311959388194
6.534653465346534,1.0993406016080272
6.554455445544554,1.1166818584318003
6.574257425742575,1.1332227050145616
6.594059405940594,1.1489332159315226
6.6138613861386135,1.1637856798662038
6.633663366336634,1.1777544948684973
6.653465346534653,1.190816078414098
6.673267326732673,1.202948790264437
6.693069306930694,1.2141328664051423
6.712871287128713,1.2243503625854608
6.732673267326732,1.2335851061938463
6.752475247524753,1.2418226553906822
6.772277227722772,1.2490502645810129
6.792079207920792,1.2552568554520018
6.811881188118813,1.2604329929241915
6.8316831683168315,1.264570865475977
6.851485148514851,1.2676642693984106
6.871287128712871,1.2697085966261807
6.891089108910891,1.2707008258705772
6.910891089108911,1.2706395168551703
6.930693069306931,1.269524807524589
6.9504950495049505,1.2673584141641516
6.97029702970297,1.264143634434019
6.99009900990099,1.2598853533872447
7.00990099009901,1.2545900526086415
7.02970297029703,1.248265822681697
7.0495049504950495,1.2409223792655248
7.069306930693069,1.232571083145141
7.089108910891089,1.2232249647069566
7.108910891089109,1.2128987533907551
7.128712871287128,1.2016089127800147
7.148514851485149,1.1893736821186873
7.1683168316831685,1.176213125185023
7.188118811881187,1.1621491876169627
7.207920792079208,1.1472057639705437
7.227722772277228,1.1314087760074765
7.247524752475247,1.1147862639537462
7.267326732673268,1.0973684927518657
7.287128712871287,1.079188075648353
7.306930693069306,1.0602801178183476
7.326732673267327,1.0406823831312304
7.346534653465347,1.0204354876033221
7.366336633663366,0.9995831235589252
7.3861386138613865,0.9781723190145438
7.405940594059406,0.956253737285871
7.425742574257425,0.9338820222480816
7.445544554455446,0.9111161949833407
7.465346534653466,0.8880201076128308
7.485148514851485,0.8646629597623992
7.504950495049505,0.8411198820998717
7.524752475247524,0.8174725893457905
7.544554455445544,0.7938101015909583
7.564356435643565,0.7702295269640388
7.584158415841584,0.74683688978004
7.603960396039604,0.7237479751543702
7.623762376237624,0.7010891424266944
7.643564356435643,0.6789980343871487
7.663366336633663,0.6576240764686211
7.683168316831684,0.6371286201849118
7.702970297029703,0.6176845409319132
7.7227722772277225,0.5994750585322465
7.742574257425743,0.5826915218978358
7.762376237623762,0.5675299057191794
7.782178217821782,0.5541858310209499
7.801980198019803,0.542848065740937
7.821782178217822,0.5336906965696371
7.841584158415841,0.526864470989713
7.861386138613862,0.5224881293113361
7.881188118811881,0.5206407823068456
7.900990099009901,0.5213564322869572
7.92079207920792,0.5246215158806428
7.9405940594059405,0.5303758853534124
7.96039603960396,0.5385170606770711
7.980198019801979,0.5489070500969706
8.0,0.5613807034064866
8.01980198019802,0.5757544944170316
8.03960396039604,0.5918347929422726
8.05940594059406,0.6094249841525757
8.07920792079208,0.6283311165668838
8.099009900990099,0.6483660311847336
8.118811881188119,0.6693521081560743
8.138613861386139,0.6911228639082315
8.158415841584159,0.7135236600842927
8.178217821782178,0.7364117705401415
8.198019801980198,0.7596560154071679
8.217821782178218,0.7831361269784313
8.237623762376238,0.8067419698762657
8.257425742574258,0.8303727018843915
8.277227722772277,0.8539359332555133
8.297029702970297,0.8773469208712906
8.316831683168317,0.9005278182478681
8.336633663366337,0.923406991770365
8.356435643564357,0.945918406513341
8.376237623762377,0.9680010805650138
8.396039603960396,0.9895986041431336
8.415841584158416,1.010658718385639
8.435643564356436,1.0311329481004707
8.455445544554456,1.05097628266903
8.475247524752476,1.0701468995144456
8.495049504950495,1.0886059249332283
8.514851485148515,1.1063172275575919
8.534653465346535,1.1232472402105806
8.554455445544555,1.1393648064022237
8.574257425742575,1.1546410481729863
8.594059405940595,1.1690492524114746
8.613861386138613,1.1825647731518287
8.633663366336634,1.195164947693416
8.653465346534654,1.2068290246826878
8.673267326732672,1.2175381025575955
8.693069306930694,1.2272750769830258
8.712871287128714,1.2360245961044554
8.732673267326732,1.243773022620398
8.752475247524753,1.2505084018261519
8.772277227722773,1.2562204349139945
8.792079207920791,1.26090045693257
8.811881188118813,1.2645414189117354
8.831683168316832,1.267137873752947
8.85148514851485,1.2686859655687794
8.871287128712872,1.269183422233229
8.891089108910892,1.2686295509763101
8.91089108910891,1.2670252369249035
8.930693069306932,1.2643729445584042
8.950495049504951,1.260676722113319
8.97029702970297,1.2559422090372026
8.990099009900991,1.2501766466611206
9.00990099009901,1.2433888923318264
9.029702970297029,1.2355894373224643
9.04950495049505,1.2267904289247842
9.06930693069307,1.2170056972192316
9.089108910891088,1.2062507871232355
9.10891089108911,1.1945429964351737
9.12871287128713,1.1819014207246348
9.148514851485148,1.168347006070839
9.16831683168317,1.1539026108245414
9.188118811881187,1.1385930777669309
9.207920792079207,1.12244531826616
9.227722772277229,1.105488410291693
9.247524752475247,1.0877537124420837
9.267326732673267,1.069274996476228
9.287128712871288,1.0500886012132455
9.306930693069306,1.0302336110811567
9.326732673267326,1.009752063045524
9.346534653465348,0.9886891861249866
9.366336633663366,0.9670936781811456
9.386138613861386,0.9450180251200485
9.405940594059407,0.9225188680033959
9.425742574257425,0.8996574237494366
9.445544554455445,0.8764999649671559
9.465346534653467,0.85311836380749
9.485148514851485,0.8295907032330395
9.504950495049505,0.8060019563796965
9.524752475247526,0.7824447301268975
9.544554455445544,0.7590200618315845
9.564356435643564,0.7358382474292267
9.584158415841586,0.7130196635957905
9.603960396039604,0.6906955251643095
9.623762376237623,0.6690084904820587
9.643564356435645,0.6481129916260855
9.663366336633663,0.6281751247910319
9.683168316831683,0.6093718931720731
9.702970297029704,0.5918895593861685
9.722772277227723,0.5759208520376219
9.742574257425742,0.5616608025496479
9.762376237623764,0.5493010876208511
9.782178217821782,0.5390229375775859
9.801980198019802,0.530988939799479
9.821782178217823,0.5253343828851177
9.841584158415841,0.5221590734996417
9.861386138613861,0.5215207086971495
9.881188118811881,0.5234308088045412
9.900990099009901,0.5278538802734365
9.92079207920792,0.5347099512750566
9.94059405940594,0.5438800536856999
9.96039603960396,0.555213780982681
9.98019801980198,0.5685378448686863
10.0,0.5836646006720215
10.01980198019802,0.6003997448419814
10.03960396039604,0.6185487016292062
10.05940594059406,0.6379215156039221
10.07920792079208,0.6583362950299307
10.099009900990099,0.6796213911475392
10.118811881188119,0.701616560386523
10.138613861386139,0.7241733627697026
10.158415841584159,0.7471550234080911
10.178217821782178,0.7704359432722795
10.198019801980198,0.793901002304557
10.217821782178218,0.8174447589442344
10.237623762376238,0.840970617995142
10.257425742574258,0.8643900139010908
10.277227722772277,0.8876216381803649
10.297029702970297,0.910590726827535
10.316831683168317,0.9332284146970078
10.336633663366337,0.9554711581536425
10.356435643564357,0.9772602237324893
10.376237623762377,0.9985412385175308
10.396039603960396,1.0192637969298843
10.415841584158416,1.0393811182542725
10.435643564356436,1.058849749279704
10.455445544554454,1.0776293067181886
10.475247524752476,1.0956822544810478
10.495049504950495,1.1129737113646199
10.514851485148514,1.1294712851788031
10.534653465346535,1.1451449298179184
10.554455445544555,1.1599668222072088
10.574257425742573,1.1739112564538958
10.594059405940595,1.1869545528863086
10.613861386138614,1.1990749799792413
10.633663366336632,1.2102526874407815
10.653465346534654,1.2204696489786564
10.673267326732674,1.2297096134761905
