Time (s),Filtered Signal
0.0,0.08086344856291426
0.03337004405286344,0.17673797704190158
0.06674008810572687,0.26540003129542916
0.10011013215859031,0.3412613459568898
0.13348017621145375,0.39909599995406575
0.16685022026431717,0.4329176876310313
0.20022026431718062,0.43503806279874513
0.23359030837004408,0.3967893452917241
0.2669603524229075,0.31166942171051937
0.3003303964757709,0.18006889140598614
0.33370044052863435,0.013227409369113536
0.3670704845814978,-0.166271814091081
0.40044052863436125,-0.32884355766642714
0.43381057268722467,-0.44602491755408946
0.46718061674008815,-0.4991396413948813
0.5005506607929515,-0.484667171380316
0.533920704845815,-0.4139729238631926
0.5672907488986785,-0.307863235474027
0.6006607929515418,-0.18893616401941937
0.6340308370044053,-0.0754421007595183
0.6674008810572687,0.02102461572894318
0.7007709251101322,0.09423143482533125
0.7341409691629956,0.14066545849431772
0.767511013215859,0.15805299846510323
0.8008810572687225,0.14604864826184893
0.834251101321586,0.10806256258026417
0.8676211453744493,0.0521355424004255
0.9009911894273128,-0.010580424905723066
0.9343612334801763,-0.06936749410868014
0.9677312775330397,-0.1175353208887461
1.001101321585903,-0.1538523505738619
1.0344713656387665,-0.18091829155883438
1.06784140969163,-0.20153704384001359
1.1012114537444935,-0.2154417165807565
1.134581497797357,-0.21852499245245674
1.1679515418502202,-0.2051808586140953
1.2013215859030837,-0.17240994971987952
1.2346916299559472,-0.1231080141932352
1.2680616740088106,-0.06614732899661742
1.3014317180616741,-0.012458737008114892
1.3348017621145374,0.031363471941534056
1.3681718061674009,0.06849891955967584
1.4015418502202643,0.11258456280267203
1.4349118942731278,0.181671106524893
1.4682819383259913,0.2870534930078566
1.5016519823788548,0.42224311038829204
1.535022026431718,0.5588374850725374
1.5683920704845815,0.653779812847243
1.601762114537445,0.6668959078946779
1.6351321585903085,0.5813236936065842
1.668502202643172,0.4162265247284858
1.7018722466960352,0.22355195447787168
1.7352422907488987,0.06807765022215631
1.7686123348017622,-0.0010952682011595495
1.8019823788546256,0.025958256007860062
1.8353524229074891,0.11360004842957264
1.8687224669603526,0.19551596361857115
1.9020925110132159,0.2045778342347015
1.9354625550660793,0.10380251748949022
1.9688325991189428,-0.0962262539202749
2.002202643171806,-0.3416062381349317
2.0355726872246698,-0.5586847450956086
2.068942731277533,-0.6854475592652685
2.1023127753303967,-0.6960096300663602
2.13568281938326,-0.6076192652734966
2.1690528634361232,-0.468607871194849
2.202422907488987,-0.3347621268369046
2.23579295154185,-0.24615935250824175
2.269162995594714,-0.21478970083648777
2.302533039647577,-0.22682805814941898
2.3359030837004404,-0.2559028235217891
2.369273127753304,-0.27890591685834704
2.4026431718061674,-0.28585479756033416
2.436013215859031,-0.27961525969728257
2.4693832599118943,-0.2673800102902879
2.5027533039647576,-0.25034806268230614
2.5361233480176213,-0.21866507114231254
2.5694933920704845,-0.15517232833751304
2.6028634361233483,-0.04600040585467857
2.6362334801762115,0.10823363384403835
2.6696035242290748,0.2874576007922694
2.7029735682819385,0.4568917428922695
2.7363436123348017,0.579736168972306
2.7697136563876654,0.6318249090192185
2.8030837004405287,0.6113251168034071
2.8364537444933924,0.5391063877483935
2.8698237885462556,0.4498655642809912
2.903193832599119,0.3781475830278062
2.9365638766519826,0.3452667963382096
2.969933920704846,0.3522841861993801
3.0033039647577096,0.3813408254394308
3.036674008810573,0.4041696924884344
3.070044052863436,0.39390969929567543
3.1034140969162998,0.3353712108591762
3.136784140969163,0.22989868236913333
3.1701541850220267,0.09345814607247062
3.20352422907489,-0.05052303335306926
3.2368942731277532,-0.17999451497470004
3.270264317180617,-0.28095589033070123
3.30363436123348,-0.34964600384007594
3.337004405286344,-0.39032818756816684
3.370374449339207,-0.41066678352474123
3.4037444933920704,-0.41719757475139174
3.437114537444934,-0.4125664067113302
3.4704845814977974,-0.3949555632227967
3.503854625550661,-0.35938255629636146
3.5372246696035243,-0.30053544983389924
3.5705947136563876,-0.21686371666309784
3.6039647577092513,-0.11504219782823581
3.6373348017621145,-0.012753016994064257
3.6707048458149782,0.06292836750568293
3.7040748898678415,0.08315981309299963
3.737444933920705,0.029567778646765172
3.7708149779735685,-0.09381114562891427
3.8041850220264317,-0.2554221986872514
3.8375550660792954,-0.40256567608409927
3.8709251101321587,-0.478789847093958
3.9042951541850224,-0.44592972095859135
3.9376651982378856,-0.3009966292042609
3.971035242290749,-0.07947424729297746
4.004405286343612,0.15750366375259162
4.037775330396476,0.346947959000313
4.0711453744493395,0.4482185451149749
4.104515418502203,0.4568384504016582
4.137885462555066,0.402187164472978
4.171255506607929,0.33101208619786626
4.2046255506607935,0.2850529171550156
4.237995594713657,0.2831548253665754
4.27136563876652,0.3154208795203685
4.304735682819383,0.3509459176275639
4.3381057268722465,0.35447720468553806
4.371475770925111,0.30373266280231465
4.404845814977974,0.1994502199047698
4.438215859030837,0.064110500636788
4.4715859030837,-0.06922761743242076
4.504955947136564,-0.17195775752396136
4.538325991189428,-0.23128954219832462
4.571696035242291,-0.25271754869541585
4.605066079295154,-0.2533022105532145
4.638436123348018,-0.25033835063163373
4.671806167400881,-0.25205852537737994
4.705176211453745,-0.2552016582714095
4.738546255506608,-0.24984679975401494
4.7719162995594715,-0.22766889470112187
4.805286343612335,-0.188211995106187
4.838656387665198,-0.13954707595313576
4.872026431718062,-0.09337593877184894
4.905396475770925,-0.05788916503907625
4.938766519823789,-0.03269445398729644
4.972136563876652,-0.008637151285825425
5.005506607929515,0.02751234381593307
5.038876651982379,0.08604537687462634
5.072246696035243,0.16847110794619716
5.105616740088106,0.26549382619523876
5.138986784140969,0.35950665207170407
5.172356828193832,0.4303100061309478
5.2057268722466965,0.4616198235075006
5.23909691629956,0.4459210428972099
5.272466960352423,0.38608091917716486
5.305837004405286,0.2933699964152792
5.3392070484581495,0.1827527199017179
5.372577092511014,0.0672796646782819
5.405947136563877,-0.046087449459577406
5.43931718061674,-0.1571900440257283
5.4726872246696034,-0.2692269238110943
5.506057268722468,-0.38251807786082304
5.539427312775331,-0.48871777341144285
5.572797356828194,-0.5691996258921818
5.606167400881057,-0.5997677474570068
5.639537444933921,-0.5606821987573681
5.672907488986785,-0.4477453874513194
5.706277533039648,-0.2787269073037902
5.739647577092511,-0.09084092902202194
5.7730176211453745,0.0710112728078766
5.806387665198238,0.17080012987647136
5.839757709251102,0.19534846114439192
5.873127753303965,0.15899445611042
5.9064977973568284,0.09640822379896748
5.939867841409692,0.04677795116393814
5.973237885462555,0.036821263859962816
6.006607929515419,0.0705053676521065
6.039977973568282,0.12978745323282292
6.073348017621146,0.18515095407996984
6.106718061674009,0.21020938346789944
6.140088105726872,0.1933515851914161
6.173458149779736,0.14155202095427896
6.2068281938325995,0.07555979240525092
6.240198237885463,0.019572950562329765
6.273568281938326,-0.009424923540201472
6.306938325991189,-0.007834984046568958
6.3403083700440535,0.015310580770646417
6.373678414096917,0.0450539448553873
6.40704845814978,0.06926186097988786
6.440418502202643,0.08450328492624314
6.4737885462555065,0.09576850046998536
6.507158590308371,0.11035356074716467
6.540528634361234,0.12985680132418306
6.573898678414097,0.14564700376790424
6.60726872246696,0.14131292381039043
6.640638766519824,0.10141734397737018
6.674008810572688,0.021812842574787696
6.707378854625551,-0.08464963821398944
6.740748898678414,-0.19096036032407465
6.774118942731278,-0.2665668005070619
6.807488986784141,-0.29050740869160985
6.840859030837005,-0.26019857522703366
6.874229074889868,-0.19129164188962802
6.9075991189427315,-0.10891909926343125
6.940969162995595,-0.035361737703639436
6.974339207048458,0.01903087461165958
7.007709251101322,0.056994841381370835
7.041079295154185,0.08775969668470301
7.074449339207049,0.11752158941650162
7.107819383259912,0.14338529870677855
7.141189427312775,0.15474929700031365
7.174559471365639,0.1412004213038614
7.207929515418503,0.10171080618870097
7.241299559471366,0.04897406009043013
7.274669603524229,0.005622447981217639
7.308039647577092,-0.006051256068043443
7.3414096916299565,0.024597751293431842
7.37477973568282,0.09027274133944443
7.408149779735683,0.1676755618409398
7.441519823788546,0.22648727541242653
7.47488986784141,0.2407397984610013
7.508259911894274,0.19720022053927674
7.541629955947137,0.09752728175434232
7.575,-0.0454293768539787
7.608370044052863,-0.2138080973310007
7.641740088105728,-0.3892636194679695
7.675110132158591,-0.553596941983805
7.708480176211454,-0.6865736862975053
7.741850220264317,-0.7646331187502935
7.775220264317181,-0.7641574023863547
7.808590308370045,-0.6699524224372819
7.841960352422908,-0.4853438751268775
7.875330396475771,-0.23772815018953394
7.9087004405286345,0.025356394923001298
7.942070484581498,0.24987344880006182
7.975440528634362,0.39342588414658947
8.008810572687224,0.4397969432248977
8.042180616740088,0.40330130590119107
8.075550660792953,0.3213120393903488
8.108920704845815,0.23888474651402408
8.142290748898679,0.1925607523107122
8.175660792951541,0.19982373190164457
8.209030837004406,0.2571447184649514
8.24240088105727,0.3453601877311818
8.275770925110132,0.43851345691761934
8.309140969162996,0.5121747724722227
8.342511013215859,0.5489773626091737
8.375881057268723,0.5411285721521721
8.409251101321587,0.4906961006716655
8.44262114537445,0.40828669219123664
8.475991189427313,0.31009267939164237
8.509361233480176,0.21320568328344305
8.54273127753304,0.1299818533780135
8.576101321585904,0.06347830499267854
8.609471365638766,0.006389367691555226
8.64284140969163,-0.05528211778977714
8.676211453744493,-0.1349976867861556
8.709581497797357,-0.23827626573587288
8.742951541850221,-0.3589321486306142
8.776321585903084,-0.48099376628828316
8.809691629955948,-0.585284456328295
8.84306167400881,-0.6571440457426465
8.876431718061674,-0.691293333489117
8.909801762114538,-0.691608659488558
8.9431718061674,-0.6664761146643644
8.976541850220265,-0.6227454187108148
9.009911894273127,-0.5618382538819212
9.043281938325991,-0.4801205261328432
9.076651982378856,-0.37314873245391733
9.110022026431718,-0.24125143878813182
9.143392070484582,-0.09319799472126782
9.176762114537445,0.05429265572433365
9.210132158590309,0.1813145862458503
9.243502202643173,0.2717216787310793
9.276872246696035,0.31898789107134795
9.3102422907489,0.32815984222662964
9.343612334801762,0.3129999703510644
9.376982378854626,0.2898529731323926
9.41035242290749,0.2713932841858717
9.443722466960352,0.263273884523085
9.477092511013216,0.2648572289041455
9.510462555066079,0.2728002672714579
9.543832599118943,0.2848120956166652
9.577202643171807,0.30128999494048525
9.61057268722467,0.3243625790735751
9.643942731277534,0.35570178814976416
9.677312775330396,0.39493253750639934
9.71068281938326,0.43933665214473827
9.744052863436124,0.48395114057585914
9.777422907488987,0.5206897776227634
9.81079295154185,0.5364296810101321
9.844162995594713,0.5121118177481915
9.877533039647577,0.4258116135451832
9.910903083700441,0.2610509223284785
9.944273127753304,0.017896788412698445
9.977643171806168,-0.2789466873549951
10.01101321585903,-0.5811001081607261
10.044383259911895,-0.8288139410851018
10.077753303964759,-0.9709147123060855
10.111123348017621,-0.9839403268647008
10.144493392070485,-0.8814487658539397
10.177863436123348,-0.7086485730024038
10.211233480176212,-0.5242718429216718
10.244603524229076,-0.37753435949844977
10.277973568281938,-0.29021138774363
10.311343612334802,-0.251354509539974
10.344713656387665,-0.22629290643828115
10.378083700440529,-0.175140568094985
10.411453744493393,-0.0720718156189489
10.444823788546255,0.08312340448650751
10.47819383259912,0.26557348565245475
10.511563876651982,0.4365342504243654
10.544933920704846,0.5593008394674855
10.57830396475771,0.6125605192367239
10.611674008810573,0.5961053336608204
10.645044052863437,0.5279244416405652
10.678414096916299,0.43545953150266614
10.711784140969163,0.3455513404126377
10.745154185022027,0.27697309631245015
10.77852422907489,0.2373033192696156
10.811894273127754,0.22362690257007917
10.845264317180618,0.22529022770232449
10.87863436123348,0.2270258138594033
10.912004405286345,0.21175145783867022
10.945374449339207,0.16335473146086063
10.978744493392071,0.07005322837794062
11.012114537444935,-0.07168814165944223
11.045484581497798,-0.2537282377638559
11.078854625550662,-0.45503673708506526
11.112224669603524,-0.6441945878673213
11.145594713656388,-0.785908467117164
11.178964757709252,-0.8501454180668201
11.212334801762115,-0.8210681046868887
11.245704845814979,-0.7025320048748066
11.279074889867841,-0.5178600280181308
11.312444933920705,-0.30366882359977154
11.34581497797357,-0.0997933060531959
11.379185022026432,0.061242249796460896
11.412555066079296,0.16185242526208796
11.445925110132158,0.20214120020812193
11.479295154185023,0.1976299853632124
11.512665198237887,0.17328698775606888
11.546035242290749,0.15593799908482106
11.579405286343613,0.16725310007446015
11.612775330396476,0.21911000540598766
11.64614537444934,0.3122500055454603
11.679515418502204,0.4378723330777982
11.712885462555066,0.5806372001394857
11.74625550660793,0.7212113774580741
11.779625550660793,0.837416811349133
11.812995594713657,0.9047717981240853
11.846365638766521,0.8984899610010713
11.879735682819383,0.7986266943366844
11.913105726872248,0.5979059453612463
11.94647577092511,0.30908041554501786
11.979845814977974,-0.03261194592836616
12.013215859030838,-0.37498958580324876
12.0465859030837,-0.6619725413473713
12.079955947136565,-0.8497028779433519
12.113325991189427,-0.9193087605182866
12.146696035242291,-0.8810445875410621
12.180066079295155,-0.7683126917619486
12.213436123348018,-0.6244638952555694
12.246806167400882,-0.48806435262080256
12.280176211453744,-0.3823014716619577
12.313546255506608,-0.3117350724906776
12.346916299559473,-0.2661812244084536
12.380286343612335,-0.22881701592552384
12.413656387665199,-0.1845984587181089
12.447026431718061,-0.12580929390449858
12.480396475770926,-0.053333876708002666
12.51376651982379,0.025816143322544755
12.547136563876652,0.10283058995462878
12.580506607929516,0.17101065152017186
12.613876651982379,0.22759570868585258
12.647246696035243,0.2731006760044123
12.680616740088107,0.30905878139834275
12.71398678414097,0.33577557881642955
12.747356828193833,0.35147607954147675
12.780726872246696,0.3532454867963769
12.81409691629956,0.33905069620576744
12.847466960352424,0.3095586462242362
12.880837004405286,0.26870847129752534
12.91420704845815,0.22276910386049747
12.947577092511013,0.17837136497140363
12.980947136563877,0.14034982736164398
13.014317180616741,0.11014143856101767
13.047687224669604,0.08518656041322069
13.081057268722468,0.05946908403778279
13.11442731277533,0.025077531387078324
13.147797356828194,-0.025547688102709982
13.181167400881058,-0.09718118952707888
13.21453744493392,-0.18975258542722134
13.247907488986785,-0.29713565675836845
13.281277533039647,-0.40707301855903866
13.314647577092511,-0.5023197445290368
13.348017621145376,-0.562971969355118
13.381387665198238,-0.5699238588366692
13.414757709251102,-0.5093129992811452
13.448127753303964,-0.3774228854146073
13.481497797356829,-0.18475015750815188
13.514867841409693,0.042786925862520496
13.548237885462555,0.26744724676853837
13.58160792951542,0.44855206553154936
13.614977973568282,0.5545528910926389
13.648348017621146,0.573789091980281
13.68171806167401,0.51889133640015
13.715088105726872,0.42190488117338726
13.748458149779736,0.32128443195678913
13.781828193832599,0.24598324342287733
13.815198237885463,0.20377451324982365
13.848568281938327,0.17951489831885756
13.88193832599119,0.14468732715136787
13.915308370044054,0.07413686559558566
13.948678414096916,-0.03795020576915778
13.98204845814978,-0.17098012410568306
14.015418502202644,-0.284076698929985
14.048788546255507,-0.3333804609628276
14.08215859030837,-0.29285264289774404
14.115528634361233,-0.16880891414886692
14.148898678414097,-0.001012620659421904
14.182268722466961,0.15075774049576585
14.215638766519824,0.22914072704350794
14.249008810572688,0.20107781186223422
14.28237885462555,0.06995194897167287
14.315748898678414,-0.1267982592390237
14.349118942731279,-0.33296385481434015
14.382488986784141,-0.4946900002648
14.415859030837005,-0.578372327985879
14.449229074889868,-0.578467520614352
14.482599118942732,-0.5134774614257028
14.515969162995596,-0.4136966026974564
14.549339207048458,-0.3072815858485524
14.582709251101322,-0.21071641391754742
14.616079295154185,-0.12659265122399863
14.649449339207049,-0.04779056820530994
14.682819383259913,0.03539794951528484
14.716189427312775,0.1289871909071336
14.74955947136564,0.23214072884435816
14.782929515418502,0.3373645681635901
14.816299559471366,0.43288140978656203
14.84966960352423,0.5057655071663932
14.883039647577093,0.5449301715676768
14.916409691629957,0.5436122816621015
14.94977973568282,0.5011537709739615
14.983149779735683,0.42373675881117406
15.016519823788547,0.3236743533177248
15.04988986784141,0.21714988977687188
15.083259911894274,0.12083113890790009
15.116629955947138,0.0482081614020717
15.15,0.006534175443210188
15.183370044052865,-0.00504856822416421
15.216740088105727,0.004105383055018081
15.250110132158591,0.01753581642654111
15.283480176211455,0.015190140568218097
15.316850220264318,-0.020972787877691357
15.350220264317182,-0.10038071253854008
15.383590308370044,-0.21861343705792874
15.416960352422908,-0.3563573288668068
15.450330396475772,-0.4841923460265703
15.483700440528635,-0.5722107898903436
15.517070484581499,-0.600648878877052
15.550440528634361,-0.566475515994886
15.583810572687225,-0.4823558338734098
15.61718061674009,-0.3682215727397936
15.650550660792952,-0.23991000278418917
15.683920704845816,-0.10144647150328252
15.717290748898678,0.054057888164463795
15.750660792951543,0.23472968369048078
15.784030837004407,0.43674597736555726
15.817400881057269,0.6357209541903741
15.850770925110133,0.7890277016356615
15.884140969162996,0.8498095679591434
15.91751101321586,0.7869119171027895
15.950881057268724,0.6011377133838431
15.984251101321586,0.3293239870647727
16.01762114537445,0.0333453583659758
16.050991189427315,-0.22156288936724416
16.084361233480177,-0.3895750158361949
16.11773127753304,-0.4581288164551731
16.151101321585905,-0.4473464429339209
16.184471365638768,-0.39647001522317693
16.21784140969163,-0.3445714320541083
16.251211453744492,-0.3146523513101309
16.284581497797358,-0.30760140505944744
16.31795154185022,-0.3071061207988877
16.351321585903083,-0.2914720169124396
16.38469162995595,-0.24582908437126966
16.41806167400881,-0.16917170603263174
16.451431718061674,-0.07402970707671216
16.48480176211454,0.01972665758470004
16.518171806167402,0.09319271174281903
16.551541850220264,0.13501013406622162
16.584911894273127,0.14399019968695181
16.618281938325993,0.12768359746703078
16.651651982378855,0.09839285748809518
16.685022026431717,0.06865540832719107
16.718392070484583,0.04779655003433579
16.751762114537446,0.040234025423433996
16.785132158590308,0.0453551423306643
16.818502202643174,0.05837593598245242
16.851872246696036,0.07172408603470645
16.8852422907489,0.07691763965230647
16.91861233480176,0.06717746934147768
16.951982378854627,0.040722457611220564
16.98535242290749,0.0038547977603805798
17.01872246696035,-0.027925491522366265
17.052092511013218,-0.032614756233215
17.08546255506608,0.011216195532745436
17.118832599118942,0.11471106857265863
17.152202643171808,0.2703447346340699
17.18557268722467,0.4494319561298366
17.218942731277533,0.6082442783300694
17.2523127753304,0.7016428958427945
17.28568281938326,0.6991544908273216
