Time (s),Filtered Signal
0.0,-0.006944001625641248
0.033370535714285714,-0.3211254354622947
0.06674107142857143,-0.5468374848174727
0.10011160714285713,-0.6326300490282788
0.13348214285714285,-0.5802638258161281
0.16685267857142858,-0.4338015770289402
0.20022321428571427,-0.24986226853345583
0.23359375,-0.0679866025510641
0.2669642857142857,0.10193892269207586
0.30033482142857143,0.2704101865739216
0.33370535714285715,0.44636401635862255
0.36707589285714287,0.6187738492764573
0.40044642857142854,0.7544536868260665
0.43381696428571426,0.8137442963307835
0.4671875,0.7744248507647228
0.5005580357142857,0.6490905139479866
0.5339285714285714,0.484838821880461
0.5672991071428571,0.34398460274726295
0.6006696428571429,0.2750795025815122
0.6340401785714286,0.28906614660888674
0.6674107142857143,0.353059255302589
0.70078125,0.40531303915397826
0.7341517857142857,0.38415889529817815
0.7675223214285715,0.25676029573061443
0.8008928571428571,0.033983413241786796
0.8342633928571428,-0.23496491804512853
0.8676339285714285,-0.4843752198574697
0.9010044642857142,-0.6590925652895265
0.934375,-0.7341951935745218
0.9677455357142857,-0.7195305498087456
1.0011160714285714,-0.6492493871635829
1.0344866071428571,-0.5632563757970919
1.0678571428571428,-0.49010641732514565
1.1012276785714286,-0.43870979245233654
1.1345982142857143,-0.4009688531246622
1.16796875,-0.36201428223526905
1.2013392857142857,-0.3115918579058204
1.2347098214285714,-0.25052061352333865
1.2680803571428572,-0.18941789099045755
1.3014508928571429,-0.14121266603043214
1.3348214285714286,-0.11217763955143922
1.3681919642857143,-0.09681514142059626
1.4015625,-0.07974639850993075
1.4349330357142858,-0.04392342956348259
1.4683035714285715,0.019067805677523243
1.5016741071428572,0.1023073655500267
1.535044642857143,0.18467627266175166
1.5684151785714286,0.2402359996982675
1.6017857142857141,0.251855289678685
1.6351562499999999,0.22230454299136412
1.6685267857142856,0.17646628635999653
1.7018973214285713,0.15207094228402732
1.735267857142857,0.18193271189719
1.7686383928571427,0.2754579185367975
1.8020089285714285,0.4087439129954262
1.8353794642857142,0.5296756835134115
1.86875,0.5778779795089282
1.9021205357142856,0.5119450219104039
1.9354910714285714,0.3316827472092972
1.968861607142857,0.08396393512381226
2.002232142857143,-0.15245029008277444
2.0356026785714287,-0.2978892901390249
2.0689732142857142,-0.3051517667938252
2.10234375,-0.17989666854723702
2.1357142857142857,0.021683375178616484
2.169084821428571,0.216969334302941
2.202455357142857,0.3316182584203945
2.2358258928571426,0.329037026944028
2.2691964285714286,0.22190102265179457
2.302566964285714,0.06191287856668466
2.3359375,-0.0859282483235594
2.3693080357142855,-0.17189236933096907
2.4026785714285714,-0.1802083504604907
2.436049107142857,-0.13084287076881557
2.469419642857143,-0.06556484526012418
2.5027901785714284,-0.02629175207823669
2.5361607142857143,-0.03620204723281
2.56953125,-0.09164938750689991
2.6029017857142858,-0.1671690988669875
2.6362723214285713,-0.2297509142447593
2.669642857142857,-0.2548516076197065
2.7030133928571427,-0.23675042404046545
2.7363839285714286,-0.18932332112614797
2.769754464285714,-0.13813463829925832
2.803125,-0.10850197297208637
2.8364955357142856,-0.115262165058023
2.8698660714285715,-0.15824462061571687
2.903236607142857,-0.22421693919715766
2.936607142857143,-0.29312815341816123
2.9699776785714285,-0.3451865182606371
3.0033482142857144,-0.3659296351265905
3.03671875,-0.3482039514402613
3.070089285714286,-0.29167857436677463
3.1034598214285714,-0.20130263999906714
3.1368303571428573,-0.08584616212605634
3.170200892857143,0.043141210053968405
3.2035714285714283,0.1722725612163998
3.2369419642857142,0.2876125932703499
3.2703124999999997,0.37645345134942354
3.3036830357142857,0.42933101634303844
3.337053571428571,0.4418249362147202
3.370424107142857,0.41566294700148865
3.4037946428571426,0.3587059411043979
3.4371651785714286,0.2835153167705413
3.470535714285714,0.20452935577743847
3.50390625,0.13447420522352382
3.5372767857142855,0.08129477049875156
3.5706473214285714,0.047121257919122035
3.604017857142857,0.030138762819815545
3.637388392857143,0.028717943788464904
3.6707589285714284,0.045481492041713305
3.7041294642857143,0.08823003994316886
3.7375,0.16570756757139174
3.7708705357142858,0.2789920845009605
3.8042410714285713,0.4125865234759695
3.837611607142857,0.5310574465865333
3.8709821428571427,0.5857054242261817
3.9043526785714286,0.5311900148780699
3.937723214285714,0.3462403362960128
3.97109375,0.04879428650183466
4.004464285714286,-0.30317576363788695
4.0378348214285715,-0.6279736258715038
4.0712053571428575,-0.84821142979125
4.1045758928571425,-0.9189309126638449
4.1379464285714285,-0.8434468291969844
4.171316964285714,-0.6698472532809295
4.2046875,-0.46981642258518697
4.238058035714285,-0.30933125162514097
4.271428571428571,-0.22408762000591917
4.304799107142857,-0.20981161240780585
4.338169642857142,-0.23038477665942622
4.371540178571428,-0.2385579405478228
4.404910714285714,-0.1988465279126566
4.43828125,-0.10225295098846345
4.471651785714285,0.032688665730497064
4.505022321428571,0.1711571932397938
4.538392857142857,0.2787662569309319
4.571763392857143,0.335434564980055
4.605133928571428,0.34070969460972217
4.638504464285714,0.3097811646823032
4.671875,0.2638804066315305
4.705245535714286,0.22062194824315176
4.738616071428571,0.18863051065866845
4.771986607142857,0.16773737362146524
4.805357142857143,0.1530691805144624
4.838727678571429,0.13997172963714682
4.872098214285714,0.12719341779303234
4.90546875,0.11731586705852319
4.938839285714286,0.11494717367442855
4.972209821428572,0.12396896586464934
5.005580357142857,0.1450985025731603
5.038950892857143,0.17456906494870422
5.072321428571429,0.20424355213496292
5.105691964285715,0.22312388838112046
5.1390625,0.2199543313700917
5.172433035714286,0.18634453572229104
5.2058035714285715,0.11956289577296289
5.2391741071428575,0.02401303640260829
5.2725446428571425,-0.0893931995100042
5.3059151785714285,-0.20609890323728966
5.339285714285714,-0.31214560378049805
5.3726562499999995,-0.3980409240365715
5.406026785714285,-0.4602925241743572
5.439397321428571,-0.49959337085149164
5.472767857142857,-0.516549994322156
5.506138392857142,-0.5077068620397952
5.539508928571428,-0.4650336649473941
5.572879464285714,-0.38022106277166273
5.60625,-0.25180340005229873
5.639620535714285,-0.09045503799216054
5.672991071428571,0.08196124850926706
5.706361607142857,0.2403658890394045
5.739732142857143,0.36723813993248244
5.773102678571428,0.45922806522414616
5.806473214285714,0.5246162645060146
5.83984375,0.5725842944919527
5.873214285714286,0.6012977080911189
5.906584821428571,0.5935367655771295
5.939955357142857,0.5243757408953538
5.973325892857143,0.37766049905582416
6.006696428571429,0.16176804328988922
6.040066964285714,-0.08546423616682546
6.0734375,-0.30710010060144927
6.106808035714286,-0.44868007022591283
6.140178571428572,-0.48058548667901824
6.173549107142857,-0.4102018275208297
6.206919642857143,-0.27818288026286403
6.240290178571429,-0.14105355092818472
6.273660714285715,-0.04862472722838679
6.30703125,-0.026267097796919044
6.340401785714286,-0.06881257960911014
6.3737723214285715,-0.14696741237183497
6.407142857142857,-0.22176007779317022
6.4405133928571425,-0.26003460698741265
6.4738839285714285,-0.24491291840178545
6.507254464285714,-0.1784101349138966
6.5406249999999995,-0.07710048245007745
6.573995535714285,0.03578839676470234
6.607366071428571,0.13801440775257737
6.640736607142857,0.21315332004783238
6.674107142857142,0.2521455920455987
6.707477678571428,0.2527238290374549
6.740848214285714,0.2183346386455123
6.77421875,0.15742142899181652
6.807589285714285,0.08274380162420908
6.840959821428571,0.009759768640252575
6.874330357142857,-0.046491744439343355
6.907700892857143,-0.07541166573342532
6.941071428571428,-0.0741421306977176
6.974441964285714,-0.04841589750713165
7.0078125,-0.01018807162573665
7.041183035714286,0.027184083113579803
7.074553571428571,0.05418346133401638
7.107924107142857,0.06845917050225331
7.141294642857143,0.0747405844882144
7.174665178571429,0.08143676728033064
7.208035714285714,0.09556311384343928
7.24140625,0.11836945686182498
7.274776785714286,0.14365660913318637
7.308147321428572,0.15953473756442813
7.341517857142857,0.15292294442730567
7.374888392857143,0.11502258430395894
7.408258928571429,0.04565188461571093
7.441629464285715,-0.04527624378582766
7.475,-0.13991299582323202
7.508370535714286,-0.2178332380642063
7.5417410714285715,-0.26294048957081323
7.575111607142857,-0.26937556315083566
7.6084821428571425,-0.24378810869407938
7.6418526785714285,-0.20241750890902613
7.675223214285714,-0.16363043152112883
7.7085937499999995,-0.13902631006013605
7.741964285714285,-0.1275593636174248
7.775334821428571,-0.11621994255945826
7.808705357142857,-0.08769516038851621
7.842075892857142,-0.031516293479999916
7.875446428571428,0.04731408169247787
7.908816964285714,0.1276289997865862
7.9421875,0.1809438886146706
7.975558035714285,0.18621340596914548
8.008928571428571,0.14304792326686594
8.042299107142856,0.07585319865273951
8.075669642857143,0.02539862147776095
8.109040178571428,0.030608562465096453
8.142410714285715,0.10870676635625247
8.17578125,0.2434021158137867
8.209151785714285,0.38761560562745606
8.242522321428572,0.4806935662029256
8.275892857142857,0.4732026531685496
8.309263392857142,0.34855687655227463
8.342633928571429,0.13180513595373353
8.376004464285714,-0.1185414670742451
8.409375,-0.33236439320996425
8.442745535714286,-0.45438842627237774
8.47611607142857,-0.46442307757206225
8.509486607142858,-0.38341310292688874
8.542857142857143,-0.2631887011312797
8.576227678571428,-0.16424795500926154
8.609598214285715,-0.13052848189284105
8.64296875,-0.17132697809557704
8.676339285714285,-0.2578185332950172
8.709709821428572,-0.3358287054691567
8.743080357142857,-0.349714494237226
8.776450892857143,-0.2672537753242886
8.809821428571428,-0.094743567849501
8.843191964285714,0.12429260919160723
8.8765625,0.3260738024887198
8.909933035714285,0.4515547978772726
8.94330357142857,0.4685822901933986
8.976674107142857,0.38225215402119067
9.010044642857142,0.23026199545685674
9.04341517857143,0.06663776309254865
9.076785714285714,-0.05845998981834714
9.11015625,-0.11468873214801587
9.143526785714286,-0.09806960097370462
9.176897321428571,-0.027500803518305302
9.210267857142856,0.06552194379882885
9.243638392857143,0.14900264258269616
9.277008928571428,0.1999739642896116
9.310379464285715,0.2091283062796504
9.34375,0.18047933967399082
9.377120535714285,0.12747979727775738
9.410491071428572,0.0674945041955638
9.443861607142857,0.01630795527500295
9.477232142857142,-0.016092345103686075
9.510602678571429,-0.027646694089715162
9.543973214285714,-0.02393488274176115
9.57734375,-0.015727155949113593
9.610714285714286,-0.015212517115054095
9.64408482142857,-0.032054157377222774
9.677455357142858,-0.07032675205496731
9.710825892857143,-0.12700819641387012
9.744196428571428,-0.19228901943726184
9.777566964285715,-0.2516767537670164
9.8109375,-0.28962832184269643
9.844308035714285,-0.29405792160585315
9.877678571428572,-0.26052350027048177
9.911049107142857,-0.1944962160931299
9.944419642857143,-0.11035665691775369
9.977790178571428,-0.02691852591795789
10.011160714285714,0.03898645133497555
10.04453125,0.07801053451298383
10.077901785714285,0.09019223817006573
10.11127232142857,0.08247290791771732
10.144642857142857,0.06364392284898447
10.178013392857142,0.040074298020077254
10.21138392857143,0.014842140218472787
10.244754464285714,-0.009678107676971142
10.278125,-0.028318673803816884
10.311495535714286,-0.03199762275568414
10.344866071428571,-0.010598375091394198
10.378236607142856,0.041415961275689625
10.411607142857143,0.12003129560804708
10.444977678571428,0.2106486054301139
10.478348214285715,0.2920904478674092
10.51171875,0.34389055015543535
10.545089285714285,0.3533454492831357
10.578459821428572,0.31910249968709964
10.611830357142857,0.2500661610885843
10.645200892857142,0.160827109528016
10.678571428571429,0.06628454668774855
10.711941964285714,-0.02202108403612996
10.745312499999999,-0.09681063650330043
10.778683035714286,-0.15393525737302666
10.81205357142857,-0.19098181192520866
10.845424107142858,-0.20711027364239826
10.878794642857143,-0.20428446747217954
10.912165178571428,-0.18860672510542104
10.945535714285715,-0.1699572011275331
10.97890625,-0.15902640231725965
11.012276785714285,-0.16260867770455867
11.045647321428572,-0.17952830728182823
11.079017857142857,-0.19975030567624896
11.112388392857143,-0.2078473020797512
11.145758928571428,-0.1897594717053223
11.179129464285714,-0.1399018389054914
11.2125,-0.06516201223626274
11.245870535714285,0.016487552087029886
11.27924107142857,0.08266292787754058
11.312611607142857,0.1159144229375449
11.345982142857142,0.11162951139595283
11.37935267857143,0.0806561630683189
11.412723214285714,0.04492035524826038
11.44609375,0.027488281727747896
11.479464285714286,0.04138851129659918
11.512834821428571,0.0826062155985679
11.546205357142856,0.13117259799893627
11.579575892857143,0.16058160200478558
11.612946428571428,0.15149580143109728
11.646316964285715,0.10305193798408166
11.6796875,0.03566879369290162
11.713058035714285,-0.016876702241439855
11.746428571428572,-0.022992808641299444
11.779799107142857,0.03075821808910878
11.813169642857142,0.1310656205908246
11.846540178571429,0.24115784156451522
11.879910714285714,0.3149101352631139
11.913281249999999,0.31563790334112424
11.946651785714286,0.23132501047234488
11.98002232142857,0.07978746624027548
12.013392857142858,-0.09809880772775799
12.046763392857143,-0.2537681336344545
12.080133928571428,-0.34822460681433165
12.113504464285715,-0.3643185906855082
12.146875,-0.309940863083896
12.180245535714285,-0.21213934452750452
12.213616071428572,-0.10562883081084544
12.246986607142857,-0.02066708434618759
12.280357142857143,0.02539609896976794
12.313727678571428,0.030708877491087288
12.347098214285714,0.0059377705092187975
12.38046875,-0.03210083313450899
12.413839285714285,-0.06725878461148212
12.44720982142857,-0.0888320728495268
12.480580357142857,-0.09311266896960088
12.513950892857142,-0.08206792759038758
12.54732142857143,-0.06056693247946705
12.580691964285714,-0.03375912123054732
12.6140625,-0.005586455134987639
12.647433035714286,0.021525537635279243
12.680803571428571,0.0463968127386108
12.714174107142856,0.06886329456514478
12.747544642857143,0.08974075873223566
12.780915178571428,0.11063153926112404
12.814285714285713,0.13312362625689309
12.84765625,0.15734138601551995
12.881026785714285,0.18045242720414464
12.914397321428572,0.19615872833450318
12.947767857142857,0.19604057351320697
12.981138392857142,0.17281555868716178
13.014508928571429,0.12442226183555527
13.047879464285714,0.056928946706999876
13.081249999999999,-0.01575221925675491
13.114620535714286,-0.07617024818998053
13.14799107142857,-0.11042012759910391
13.181361607142858,-0.11486889999016797
13.214732142857143,-0.09888472313819908
13.248102678571428,-0.08145579150961217
13.281473214285715,-0.08258514686700638
13.31484375,-0.11325707637959379
13.348214285714285,-0.16890678480271182
13.381584821428572,-0.22992295512434946
13.414955357142857,-0.2694117062478576
13.448325892857143,-0.2649238964555429
13.481696428571428,-0.20886316525641893
13.515066964285714,-0.11279048323172504
13.5484375,-0.0035320533696609293
13.581808035714285,0.08739494896942124
13.61517857142857,0.13659805438362424
13.648549107142857,0.13840557450632457
13.681919642857142,0.10707934160724228
13.71529017857143,0.07058201718327983
13.748660714285714,0.05847765983992767
13.78203125,0.08914655716132029
13.815401785714286,0.16183128519355627
13.848772321428571,0.25686380482628157
13.882142857142856,0.3437264930804734
13.915513392857143,0.39312590671847486
13.948883928571428,0.38765904873385293
13.982254464285713,0.32664839848855187
14.015625,0.22375294133210538
14.048995535714285,0.09946585511579693
14.082366071428572,-0.027200723781504624
14.115736607142857,-0.1437476804778965
14.149107142857142,-0.24420475759800112
14.182477678571429,-0.3254787545964719
14.215848214285714,-0.38337638437347593
14.249218749999999,-0.41145863265406984
14.282589285714286,-0.40376193650239955
14.31595982142857,-0.35972427689462483
14.349330357142858,-0.287998735551684
14.382700892857143,-0.20616768148777778
14.416071428571428,-0.1354904594784195
14.449441964285715,-0.09257059742910312
14.4828125,-0.08175341240832706
14.516183035714285,-0.09213527567859073
14.549553571428572,-0.10117300809683574
14.582924107142857,-0.08387845722275836
14.616294642857143,-0.02388978596382093
14.649665178571428,0.07835892446949369
14.683035714285714,0.20404722376381337
14.71640625,0.3218736881252591
14.749776785714285,0.3992475003960073
14.78314732142857,0.4144439657031416
14.816517857142857,0.3650865029152874
14.849888392857142,0.26974044722648877
14.88325892857143,0.16189990697905335
14.916629464285714,0.07834977676142
14.95,0.04596402628968794
14.983370535714286,0.07176146628719053
15.016741071428571,0.14006665758958045
15.050111607142856,0.2180655336638472
15.083482142857143,0.2677812799561033
15.116852678571428,0.2598905218491259
15.150223214285713,0.1840605309436263
15.18359375,0.05199697878053935
15.216964285714285,-0.10754209457891489
15.250334821428572,-0.2593009305618644
15.283705357142857,-0.37323447986731956
15.317075892857142,-0.43297833632644844
15.350446428571429,-0.43844802286957085
15.383816964285714,-0.4024951125286968
15.417187499999999,-0.3437874728257158
15.450558035714286,-0.2791851444766327
15.48392857142857,-0.21859281686391632
15.517299107142858,-0.16387709210886187
15.550669642857143,-0.11159451410983207
15.584040178571428,-0.05772414751018757
15.617410714285715,-0.0019095277993402228
15.65078125,0.05087566233538859
15.684151785714285,0.0919982302861531
15.717522321428572,0.1132634445685225
15.750892857142857,0.11129491393253511
15.784263392857143,0.08987711758148408
15.817633928571428,0.058956854449638836
15.851004464285714,0.03070806421671538
15.884375,0.014582835079939726
15.917745535714285,0.013803573037191747
15.95111607142857,0.025018444748537
15.984486607142857,0.04122953345836841
16.017857142857142,0.05644067667871997
16.05122767857143,0.06958184984842948
16.084598214285712,0.08555596795764607
16.11796875,0.11257987265524369
16.151339285714286,0.15679885724008957
16.18470982142857,0.21669523420757225
16.218080357142856,0.2803448692390613
16.251450892857143,0.32763282392628873
16.28482142857143,0.3372861541633489
16.318191964285713,0.2959980628196814
16.3515625,0.20542719938367504
16.384933035714287,0.08346847082677689
16.41830357142857,-0.0412427709610646
16.451674107142857,-0.1394258715400079
16.485044642857144,-0.19152957884508692
16.518415178571427,-0.19403654999903514
16.551785714285714,-0.15933298088514483
16.58515625,-0.10967143322625164
16.618526785714284,-0.06814087598492374
16.65189732142857,-0.05044848369641699
16.685267857142858,-0.06052912824922775
16.71863839285714,-0.09108423328547294
16.752008928571428,-0.12805283727925174
16.785379464285715,-0.15664108030769872
16.81875,-0.1663876120926538
16.852120535714285,-0.1537133414556377
16.88549107142857,-0.1218336018063446
16.91886160714286,-0.07896366955600881
16.95223214285714,-0.03593188778963162
16.98560267857143,-0.0037840089203600917
17.018973214285715,0.00863670321295527
17.05234375,-0.0027957923732057945
17.085714285714285,-0.035388758108072065
17.119084821428572,-0.0791415013773999
17.152455357142856,-0.1191067898035723
17.185825892857142,-0.1407889960231596
17.21919642857143,-0.13692304874891292
17.252566964285712,-0.11237656863771683
17.2859375,-0.08380342718483266
17.319308035714286,-0.07269296087160716
17.35267857142857,-0.09398506257103102
17.386049107142856,-0.1456217617123039
17.419419642857143,-0.2051672702383448
17.45279017857143,-0.23691918991582953
17.486160714285713,-0.207684806862902
17.51953125,-0.10422977684749596
17.552901785714287,0.05671365138495522
17.58627232142857,0.23241791950185534
