Time (s),Filtered Signal
0.0,-0.03307910732093107
0.033370165745856356,-0.46049632976106014
0.06674033149171271,-0.8174646398067599
0.10011049723756907,-1.0551739359442116
0.13348066298342542,-1.157457283226484
0.16685082872928178,-1.1384552861065629
0.20022099447513814,-1.0291396118724274
0.2335911602209945,-0.8608944324764032
0.26696132596685085,-0.6549756302392544
0.30033149171270723,-0.4223347597451341
0.33370165745856356,-0.17175009763623297
0.3670718232044199,0.08063564273555915
0.4004419889502763,0.30770824756844123
0.43381215469613266,0.4770770558899249
0.467182320441989,0.5635787809199834
0.5005524861878453,0.5617482107602587
0.5339226519337017,0.49097919660316175
0.5672928176795581,0.3897386457756865
0.6006629834254145,0.3008688572529842
0.6340331491712707,0.25465477121114893
0.6674033149171271,0.25751495712783645
0.7007734806629835,0.2913750030119453
0.7341436464088398,0.3235837811036263
0.7675138121546962,0.3223815885761397
0.8008839779005525,0.270796805405
0.8342541436464089,0.17320925028806824
0.8676243093922653,0.052611110280897
0.9009944751381216,-0.059282924194128825
0.934364640883978,-0.13436858958812906
0.9677348066298344,-0.15800579779923746
1.0011049723756906,-0.13315859424589888
1.0344751381215471,-0.07808216673377873
1.0678453038674034,-0.019068056989814352
1.1012154696132597,0.018860132800918555
1.1345856353591162,0.020083844452684487
1.1679558011049724,-0.017212761518975352
1.201325966850829,-0.0815916887400398
1.2346961325966852,-0.15336604090583597
1.2680662983425415,-0.21205602072518331
1.301436464088398,-0.24349532859615702
1.3348066298342542,-0.24404727545657834
1.3681767955801105,-0.22062522201470394
1.401546961325967,-0.18688998708534613
1.4349171270718233,-0.15737868949905628
1.4682872928176796,-0.14186323626241382
1.501657458563536,-0.14187177652318753
1.5350276243093923,-0.15037806403302204
1.5683977900552488,-0.15462592371039147
1.601767955801105,-0.14119109936543392
1.6351381215469614,-0.10175574024340371
1.6685082872928179,-0.037694006218288625
1.7018784530386741,0.03842382891325016
1.7352486187845306,0.10565424636425175
1.768618784530387,0.14165772228799736
1.8019889502762432,0.13176918817928956
1.8353591160220997,0.07656621683146474
1.868729281767956,-0.005833050571118821
1.9020994475138122,-0.08478044894403497
1.9354696132596687,-0.12827783911358048
1.968839779005525,-0.11599542561625706
2.0022099447513813,-0.0483327793774473
2.0355801104972375,0.052957675569722834
2.0689502762430942,0.15335093022844673
2.1023204419889505,0.21974540564700526
2.135690607734807,0.23391674613736882
2.169060773480663,0.19914796532175022
2.2024309392265193,0.13718892508865738
2.235801104972376,0.07731622612017157
2.2691712707182323,0.04300161320855283
2.3025414364640886,0.04268840253218452
2.335911602209945,0.06887652989705313
2.369281767955801,0.10525442443237136
2.402651933701658,0.1373282622545678
2.436022099447514,0.1602590174245257
2.4693922651933704,0.17948348927040894
2.5027624309392267,0.20417837968551447
2.536132596685083,0.23812209906202722
2.5695027624309392,0.2742689643718514
2.602872928176796,0.29716700278274727
2.636243093922652,0.292392409330229
2.6696132596685085,0.2573846914615903
2.7029834254143648,0.20644423711780222
2.736353591160221,0.16544047454038888
2.7697237569060777,0.15763957729011707
2.803093922651934,0.18773500169053287
2.8364640883977903,0.23324945184076276
2.8698342541436466,0.24939865478984571
2.903204419889503,0.18658480086360016
2.936574585635359,0.012621715874647927
2.969944751381216,-0.27128639141291916
3.003314917127072,-0.6287712775605642
3.0366850828729284,-1.001020757392103
3.0700552486187846,-1.3264817030897724
3.103425414364641,-1.5570424434237153
3.1367955801104976,-1.66395119981385
3.170165745856354,-1.6345032174732885
3.20353591160221,-1.466613905637532
3.2369060773480665,-1.1683220274793966
3.2702762430939227,-0.7632939325418665
3.3036464088397794,-0.2963786305897995
3.3370165745856357,0.16908244529561017
3.370386740331492,0.565946057092299
3.4037569060773483,0.8452646702868803
3.4371270718232045,0.9945243613819589
3.4704972375690613,1.0414452170500195
3.5038674033149175,1.0399556106267474
3.537237569060774,1.0447291569255932
3.57060773480663,1.0869893679054676
3.6039779005524863,1.16345089880801
3.6373480662983426,1.2429352002479646
3.6707182320441993,1.2857070760163467
3.7040883977900556,1.2642535297691178
3.737458563535912,1.174396026431716
3.770828729281768,1.0319072099280222
3.8041988950276244,0.8584316256255896
3.837569060773481,0.6664972827359561
3.8709392265193374,0.4533549789415399
3.9043093922651937,0.2074454677001226
3.93767955801105,-0.07689665258409609
3.9710497237569062,-0.3863444120928062
4.0044198895027625,-0.6862722366433651
4.037790055248619,-0.9320112997089373
4.071160220994475,-1.0881504195895664
4.104530386740332,-1.1452662084924936
4.1379005524861885,-1.1246143255315657
4.171270718232044,-1.067939674814064
4.204640883977901,-1.0176899718282417
4.238011049723757,-0.9979038228230277
4.271381215469614,-1.0053024824843504
4.30475138121547,-1.014379878143126
4.338121546961326,-0.9929235326908398
4.371491712707183,-0.9193693843456126
4.404861878453039,-0.7931183283019704
4.438232044198895,-0.6331997501753532
4.471602209944752,-0.46695257934635753
4.504972375690608,-0.31538149229633944
4.538342541436465,-0.18310577499328104
4.5717127071823205,-0.05795626112092722
4.605082872928177,0.08000172674509286
4.638453038674034,0.24511232244120743
4.67182320441989,0.435564193632997
4.7051933701657465,0.6310997091171369
4.738563535911602,0.8002190576573301
4.771933701657459,0.9134497866103689
4.805303867403316,0.9564263112627053
4.8386740331491715,0.9366975194726114
4.872044198895028,0.8810974385848372
4.905414364640884,0.8247567747265739
4.938784530386741,0.7965131929746646
4.972154696132597,0.8070248052631966
5.005524861878453,0.8446694082082808
5.03889502762431,0.8808733126810573
5.072265193370166,0.8823853075066057
5.105635359116023,0.8250617897907533
5.1390055248618784,0.7033185155865244
5.172375690607735,0.5316835515589553
5.205745856353592,0.3386474009155221
5.239116022099448,0.15628451261744025
5.272486187845304,0.01029346741139694
5.30585635359116,-0.08615758485865903
5.339226519337017,-0.1339731539930376
5.372596685082874,-0.1463826166564474
5.4059668508287295,-0.14568505242018792
5.439337016574586,-0.15917994550347722
5.472707182320442,-0.2136409616413351
5.506077348066299,-0.32762261602605364
5.5394475138121555,-0.5026713296583816
5.572817679558011,-0.7171946938270288
5.606187845303868,-0.9282249498881089
5.639558011049724,-1.0845919205468642
5.672928176795581,-1.149700758457864
5.706298342541437,-1.125254155833374
5.739668508287293,-1.0628328725665837
5.77303867403315,-1.0521020413464033
5.806408839779006,-1.1837032444063789
5.839779005524862,-1.498500146615088
5.873149171270718,-1.9460459405726869
5.906519337016575,-2.3767283705517075
5.939889502762432,-2.5805545921955932
5.9732596685082875,-2.364257156260505
6.006629834254144,-1.6370776731562768
6.04,-0.46607979305101693
6.073370165745857,0.9285567199890301
6.1067403314917135,2.2417131407960262
6.140110497237569,3.188335933361116
6.173480662983426,3.60045955683125
6.206850828729282,3.4751997796418235
6.240220994475139,2.956317108623997
6.273591160220995,2.2627782119706126
6.306961325966851,1.599988202156504
6.340331491712708,1.0928902087458285
6.373701657458564,0.7651280803462198
6.40707182320442,0.5642707414974208
6.440441988950277,0.412453821714152
6.473812154696133,0.25408765749107776
6.50718232044199,0.07922976591490795
6.5405524861878455,-0.08294163641246205
6.573922651933702,-0.19061455441648864
6.607292817679559,-0.21816479552748608
6.640662983425415,-0.1720883728234894
6.674033149171271,-0.08818555280060078
6.707403314917127,-0.014506988042248174
6.740773480662984,0.009338567021601313
6.774143646408841,-0.03377599719823856
6.8075138121546965,-0.13618727640089132
6.840883977900553,-0.27346982151391597
6.874254143646409,-0.41715933302626457
6.907624309392266,-0.545998948850573
6.9409944751381225,-0.6518725424471917
6.974364640883978,-0.739683234632553
7.007734806629835,-0.8225553835843927
7.041104972375691,-0.9144716710944104
7.074475138121548,-1.0224673238587954
7.107845303867403,-1.140555253846674
7.14121546961326,-1.2477102244616172
7.174585635359117,-1.3118225354310982
7.207955801104973,-1.2998277072378743
7.241325966850829,-1.1913475370585196
7.274696132596685,-0.9904396241035823
7.308066298342542,-0.7293343920724035
7.341436464088399,-0.46053599797987776
7.3748066298342545,-0.23878661908293072
7.408176795580111,-0.09974564252419683
7.441546961325967,-0.04483534622095692
7.474917127071824,-0.039743176850006334
7.5082872928176805,-0.02810396795582362
7.541657458563536,0.04527755493009002
7.575027624309393,0.2120030722879363
7.608397790055249,0.4684764461630772
7.641767955801106,0.7798067856864644
7.675138121546962,1.0962367304564313
7.708508287292818,1.3731064580299437
7.741878453038675,1.5842064061959356
7.775248618784531,1.7226728185513176
7.808618784530387,1.790954813581317
7.841988950276244,1.7876767406542897
7.8753591160221,1.700801438943246
7.908729281767957,1.5123840417073764
7.9420994475138125,1.2127614713997656
7.975469613259669,0.8156897054013303
8.008839779005525,0.364587019556752
8.042209944751383,-0.07544192713562291
8.075580110497238,-0.4373941052525947
8.108950276243094,-0.6751165661334769
8.14232044198895,-0.7785486936871502
8.175690607734808,-0.7747853449949219
8.209060773480664,-0.7151087345060908
8.24243093922652,-0.6543289373243822
8.275801104972377,-0.6314685442495342
8.309171270718233,-0.6592055085754558
8.342541436464089,-0.7248264063086808
8.375911602209946,-0.800230016849852
8.409281767955802,-0.8551894384126923
8.442651933701658,-0.8678956718490232
8.476022099447514,-0.8293759165841765
8.509392265193371,-0.7420041307230055
8.542762430939227,-0.6149943612318597
8.576132596685083,-0.4602830980594252
8.60950276243094,-0.2907209103536875
8.642872928176796,-0.1202525093957961
8.676243093922652,0.03575622894966817
8.709613259668508,0.16185741174375737
8.742983425414366,0.2459609277206923
8.776353591160222,0.2835558896118213
8.809723756906077,0.28038423392416095
8.843093922651935,0.2516034403914138
8.87646408839779,0.21705701241562508
8.909834254143647,0.19423242635253668
8.943204419889504,0.19178502086392746
8.97657458563536,0.20645481669186178
9.009944751381216,0.22481392519314466
9.043314917127072,0.22922232563774791
9.07668508287293,0.20558129854451335
9.110055248618785,0.1497082028337702
9.143425414364641,0.06968600878879642
9.176795580110499,-0.01686412657287972
9.210165745856354,-0.08956941805410386
9.24353591160221,-0.13335911255055186
9.276906077348068,-0.14426216982868986
9.310276243093924,-0.13019626661968514
9.34364640883978,-0.10614719908854486
9.377016574585635,-0.08584798481361035
9.410386740331493,-0.07404571869544574
9.443756906077349,-0.06353397909841695
9.477127071823205,-0.0389891467644752
9.510497237569062,0.013889761287681037
9.543867403314918,0.09863251710354295
9.577237569060774,0.20333779697186305
9.610607734806631,0.3046687798321471
9.643977900552487,0.37948308389807844
9.677348066298343,0.4182788734413763
9.710718232044199,0.432462192825851
9.744088397790057,0.4496958301514077
9.777458563535912,0.4977372255610461
9.810828729281768,0.5841985283939924
9.844198895027626,0.6835031073655823
9.877569060773482,0.7401782550732593
9.910939226519337,0.6898754156963545
9.944309392265193,0.4898754733813797
9.97767955801105,0.14460708158005844
10.011049723756907,-0.28725011619689983
10.044419889502763,-0.7091971344638425
10.07779005524862,-1.0206132094805354
10.111160220994476,-1.1530439071313203
10.144530386740332,-1.0933649257208158
10.17790055248619,-0.8846585520493101
10.211270718232045,-0.6060145528345846
10.244640883977901,-0.3413558174302254
10.278011049723757,-0.1508688012964541
10.311381215469615,-0.05583579897903601
10.34475138121547,-0.04069313081815418
10.378121546961326,-0.06853920518023104
10.411491712707184,-0.10137554537115477
10.44486187845304,-0.11578930377608074
10.478232044198895,-0.10824314410854391
10.511602209944753,-0.08964268791325432
10.544972375690609,-0.07376806034915702
10.578342541436465,-0.06638089976805031
10.61171270718232,-0.06064080802364561
10.645082872928178,-0.040751624802322535
10.678453038674034,0.008571394467675408
10.71182320441989,0.09212099183142838
10.745193370165747,0.19919711622748465
10.778563535911603,0.3065306612437966
10.811933701657459,0.3880057919250597
10.845303867403315,0.4264148437441144
10.878674033149172,0.421144811607826
10.912044198895028,0.38754044937594184
10.945414364640884,0.34797867706307084
10.978784530386742,0.3192379365609502
11.012154696132598,0.30300172015823035
11.045524861878453,0.28485939788778447
11.078895027624311,0.2426025843544521
11.112265193370167,0.1594462497195784
11.145635359116023,0.0349679774031028
11.179005524861878,-0.11228212477581496
11.212375690607736,-0.2520150971336758
11.245745856353592,-0.35544134331966615
11.279116022099448,-0.4074926429727918
11.312486187845305,-0.41170582429861413
11.345856353591161,-0.3855384532804911
11.379226519337017,-0.3490650359926045
11.412596685082875,-0.31347017419970524
11.44596685082873,-0.2757102140433268
11.479337016574586,-0.22222146189411332
11.512707182320442,-0.13946598749463876
11.5460773480663,-0.02514125415482185
11.579447513812156,0.10675029838354436
11.612817679558011,0.23054988766905288
11.646187845303869,0.3213796077294662
11.679558011049725,0.3686270978300734
11.71292817679558,0.38245598612369697
11.746298342541436,0.388623994819386
11.779668508287294,0.41326941488162144
11.81303867403315,0.4653549744229335
11.846408839779006,0.5266297332114622
11.879779005524863,0.5557338142183785
11.91314917127072,0.5058700743206564
11.946519337016575,0.34809483993975937
11.979889502762433,0.08882552080260718
12.013259668508288,-0.22734387587383684
12.046629834254144,-0.5312789575814372
12.08,-0.7532643749326945
12.113370165745858,-0.8467345144404281
12.146740331491714,-0.8022498936387603
12.18011049723757,-0.6474590689313036
12.213480662983427,-0.435014805283132
12.246850828729283,-0.2245098471991408
12.280220994475139,-0.06522561543319903
12.313591160220996,0.015394959814925406
12.346961325966852,0.015480252423283474
12.380331491712708,-0.04489816276179342
12.413701657458564,-0.1325662993127504
12.447071823204421,-0.2121800380377532
12.480441988950277,-0.255900563460472
12.513812154696133,-0.2491497727077048
12.54718232044199,-0.19135042607553504
12.580552486187846,-0.09247140979458132
12.613922651933702,0.032398146160919156
12.64729281767956,0.1679582314304178
12.680662983425416,0.3014521357199534
12.714033149171271,0.42298414912837484
12.747403314917127,0.5242597511052627
12.780773480662985,0.5971121621851632
12.81414364640884,0.633040532853279
12.847513812154697,0.6244159587544451
12.880883977900554,0.5672210010641908
12.91425414364641,0.4643371063592835
12.947624309392266,0.32772090521783187
12.980994475138122,0.17771051145751038
13.01436464088398,0.038549462171505726
13.047734806629835,-0.06903686920134859
13.081104972375691,-0.13546164960058535
13.114475138121549,-0.16644046297006532
13.147845303867404,-0.18104026092810774
13.18121546961326,-0.20367423073902305
13.214585635359118,-0.2532041291892129
13.247955801104974,-0.3340303554163676
13.28132596685083,-0.43332678749168035
13.314696132596685,-0.5257381879758096
13.348066298342543,-0.5833906486820262
13.381436464088399,-0.5867144544427901
13.414806629834255,-0.5314069464659902
13.448176795580112,-0.42880950431033976
13.481546961325968,-0.30001313462470924
13.514917127071824,-0.1667091724471622
13.548287292817681,-0.04298729514667501
13.581657458563537,0.06846665094068531
13.615027624309393,0.17452328963079078
13.648397790055249,0.28541732773943534
13.681767955801106,0.4072569368794492
13.715138121546962,0.5365332197026663
13.748508287292818,0.6587684109589196
13.781878453038676,0.7515897695250487
13.815248618784532,0.7908883214440938
13.848618784530387,0.7579195177801421
13.881988950276245,0.6452615430699998
13.9153591160221,0.4600986651811954
13.948729281767957,0.22397831844184352
13.982099447513813,-0.03108413228701737
14.01546961325967,-0.26941465902448947
14.048839779005526,-0.45971564720333535
14.082209944751382,-0.5819858678556481
14.11558011049724,-0.6311293119550972
14.148950276243095,-0.6161691812027928
14.182320441988951,-0.5556429650400483
14.215690607734807,-0.4711552793507919
14.249060773480664,-0.3815308397545107
14.28243093922652,-0.2994005388905004
14.315801104972376,-0.23077731379921654
14.349171270718234,-0.17688523113068244
14.38254143646409,-0.13673954202036295
14.415911602209945,-0.10898140606607432
14.449281767955803,-0.0921583714606791
14.482651933701659,-0.08365345115168855
14.516022099447515,-0.0783157289655615
14.54939226519337,-0.06810901696581398
14.582762430939228,-0.04360156625544562
14.616132596685084,0.0029280442253320593
14.64950276243094,0.07405801221391553
14.682872928176797,0.16520338176288377
14.716243093922653,0.26523862424207184
14.749613259668509,0.35972842214561346
14.782983425414367,0.4354104477161654
14.816353591160222,0.48395988356217645
14.849723756906078,0.5035077146202831
14.883093922651934,0.49759670821480995
14.916464088397792,0.4725086785932227
14.949834254143648,0.43446906581509054
14.983204419889503,0.3878742804597038
15.016574585635361,0.3347485923767882
15.049944751381217,0.27484098062276935
15.083314917127073,0.20570061040087925
15.116685082872928,0.12273442695319264
15.150055248618786,0.02004976372335541
15.183425414364642,-0.10698544441023444
15.216795580110498,-0.2574684266067785
15.250165745856355,-0.42057503601034213
15.283535911602211,-0.5738529387385607
15.316906077348067,-0.6866813046288495
15.350276243093925,-0.7292668130143509
15.38364640883978,-0.6844683351887234
15.417016574585636,-0.5573870717076258
15.450386740331492,-0.3775994684235889
15.48375690607735,-0.19161212956821766
15.517127071823205,-0.04749939689731197
15.550497237569061,0.022423191075921688
15.583867403314919,0.013712936872387737
15.617237569060775,-0.04845515485708679
15.65060773480663,-0.118708798853145
15.683977900552488,-0.14832228635744185
15.717348066298344,-0.10307124132258332
15.7507182320442,0.024244579105980404
15.784088397790056,0.21062899098364662
15.817458563535913,0.40975179571338655
15.85082872928177,0.566406516910943
15.884198895027625,0.6339834738622293
15.917569060773483,0.5895641713382165
15.950939226519338,0.4418629893479865
15.984309392265194,0.22923942302022754
16.01767955801105,0.008032777251922037
16.051049723756908,-0.16525803657445096
16.084419889502765,-0.25206089688631117
16.11779005524862,-0.2437907703863104
16.151160220994477,-0.16352886555718152
16.18453038674033,-0.056634826170902645
16.21790055248619,0.026364655260403776
16.251270718232046,0.048410396275064646
16.2846408839779,-0.0007388675341674108
16.318011049723758,-0.10134861268616739
16.351381215469615,-0.2118844163093428
16.38475138121547,-0.2853680784192665
16.418121546961327,-0.28756002518800994
16.451491712707185,-0.20982625098490718
16.48486187845304,-0.07162050640116484
16.518232044198896,0.08826694646418276
16.551602209944754,0.2278605481258384
16.584972375690608,0.3185809721862616
16.618342541436466,0.35513991627517844
16.651712707182323,0.3546286737600111
16.685082872928177,0.3455299287967761
16.718453038674035,0.3518963123397207
16.751823204419892,0.38007251931091035
16.785193370165747,0.4141432191928369
16.818563535911604,0.4223158897973256
16.851933701657458,0.37145569541960693
16.885303867403316,0.24319392852439323
16.918674033149173,0.044188515927864845
16.952044198895027,-0.19427340626437822
16.985414364640885,-0.42719052958208686
17.018784530386743,-0.612209525254594
17.052154696132597,-0.7239318361499802
17.085524861878454,-0.7599709074884793
17.118895027624312,-0.7368681868294703
17.152265193370166,-0.6789371924711011
17.185635359116024,-0.6061433448882747
17.21900552486188,-0.5268606777040306
17.252375690607735,-0.43824470997843984
17.285745856353593,-0.33288852846515726
17.31911602209945,-0.20748943378721266
