Frequency (Hz),Amplitude
0.0,0.7845291930431442
0.01978021978021978,0.7867751689217598
0.03956043956043956,0.7934662281606303
0.05934065934065934,0.8044656839355457
0.07912087912087912,0.8195580215802407
0.0989010989010989,0.8384649264928257
0.11868131868131868,0.8608636892492493
0.13846153846153844,0.8864054320504294
0.15824175824175823,0.9147312358677788
0.17802197802197803,0.945485091144614
0.1978021978021978,0.9783233668636185
0.21758241758241756,1.0129210415144871
0.23736263736263735,1.0489752377645354
0.2571428571428572,1.0862066986535615
0.2769230769230769,1.1243598096702334
0.2967032967032967,1.1632016734196962
0.31648351648351647,1.202520627300497
0.3362637362637363,1.2421244855612747
0.35604395604395606,1.2818386966772541
0.3758241758241758,1.321504537710944
0.3956043956043956,1.3609774172731688
0.4153846153846154,1.4001253242647234
0.4351648351648351,1.4388274369502418
0.45494505494505494,1.4769728927754149
0.4747252747252747,1.5144597110575353
0.4945054945054945,1.5511938563008894
0.5142857142857143,1.5870884280165056
0.5340659340659341,1.6220629625980367
0.5538461538461538,1.6560428333775246
0.5736263736263736,1.6889587360365108
0.5934065934065934,1.7207462478133735
0.6131868131868132,1.7513454502656334
0.6329670329670329,1.7807006066212994
0.6527472527472528,1.808759885937018
0.6725274725274726,1.835475127348808
0.6923076923076923,1.86080163864837
0.7120879120879121,1.8846980242466707
0.7318681318681318,1.9071260383059523
0.7516483516483516,1.9280504594419252
0.7714285714285715,1.9474389839312154
0.7912087912087912,1.9652621348168149
0.810989010989011,1.9814931846964838
0.8307692307692308,1.9961080903152755
0.8505494505494506,2.0090854373727147
0.8703296703296702,2.0204063942040578
0.8901098901098901,2.030054673210907
0.9098901098901099,2.038016499104252
0.9296703296703297,2.0442805831879394
0.9494505494505494,2.0488381030564726
0.9692307692307692,2.051682687212285
0.989010989010989,2.052810404226508
1.0087912087912088,2.052219756177546
1.0285714285714287,2.049911676205755
1.0483516483516484,2.045889530122377
1.0681318681318681,2.040159122109628
1.087912087912088,2.0327287046481963
1.1076923076923075,2.0236089929108037
1.1274725274725275,2.012813183968776
1.1472527472527472,2.000356981274591
1.1670329670329669,1.9862586250106136
1.1868131868131868,1.970538929035418
1.2065934065934065,1.9532213253178072
1.2263736263736265,1.9343319169290127
1.2461538461538462,1.913899540870142
1.2659340659340659,1.8919558422497345
1.2857142857142858,1.868535361602044
1.3054945054945055,1.843675637456538
1.3252747252747252,1.8174173266417872
1.3450549450549452,1.7898043452409496
1.3648351648351649,1.760884033621306
1.3846153846153846,1.7307073495479108
1.4043956043956045,1.6993290940714798
1.4241758241758242,1.6668081756643458
1.443956043956044,1.633207918973231
1.4637362637362636,1.598596425567824
1.4835164835164834,1.563046995184712
1.5032967032967033,1.5266386171776236
1.523076923076923,1.4894565431428581
1.542857142857143,1.4515929529109501
1.5626373626373626,1.4131477271372823
1.5824175824175823,1.3742293403509152
1.6021978021978023,1.33495588815734
1.621978021978022,1.295456260764441
1.6417582417582417,1.2558714712523795
1.6615384615384616,1.2163561397910574
1.6813186813186813,1.177080122566611
1.7010989010989013,1.1382302541397713
1.720879120879121,1.1000121412949329
1.7406593406593405,1.0626519016066192
1.7604395604395604,1.026397677420604
1.7802197802197801,0.991520673429443
1.7999999999999998,0.9583153647904724
1.8197802197802198,0.9270984114073908
1.8395604395604395,0.8982057136652185
1.8593406593406594,0.871986994305188
1.879120879120879,0.8487973482737006
1.8989010989010988,0.8289854364179147
1.9186813186813187,0.8128784648131746
1.9384615384615385,0.8007647858417571
1.9582417582417584,0.7928757686293145
1.978021978021978,0.7893692774093614
1.9978021978021978,0.7903173589181355
2.0175824175824175,0.7957003372764618
2.0373626373626372,0.8054084441571449
2.0571428571428574,0.8192506684793734
2.076923076923077,0.8369691725820628
2.096703296703297,0.8582568164379881
2.1164835164835165,0.8827752292905091
2.1362637362637362,0.9101713502302646
2.1560439560439564,0.9400911375271158
2.175824175824176,0.9721899301349967
2.195604395604396,1.0061395481939717
2.215384615384615,1.0416325823371766
2.2351648351648348,1.0783844719308109
2.254945054945055,1.1161339754494894
2.2747252747252746,1.1546425583756685
2.2945054945054943,1.1936931153743904
2.314285714285714,1.2330883347318882
2.3340659340659338,1.2726489192568078
2.353846153846154,1.3122118039545323
2.3736263736263736,1.3516284561819887
2.3934065934065933,1.3907633056420656
2.413186813186813,1.4294923258479288
2.4329670329670328,1.467701772216884
2.452747252747253,1.5052870719894589
2.4725274725274726,1.5421518556122606
2.4923076923076923,1.5782071165488716
2.512087912087912,1.6133704856239324
2.5318681318681318,1.6475656062356845
2.5516483516483515,1.6807215976125414
2.5714285714285716,1.7127725944310048
2.5912087912087913,1.7436573523630252
2.610989010989011,1.7733189103671045
2.6307692307692307,1.801704301714038
2.6505494505494505,1.8287643068132564
2.6703296703296706,1.854453241867224
2.6901098901098903,1.8787287782281754
2.70989010989011,1.9015517880702493
2.7296703296703297,1.9228862126294317
2.7494505494505495,1.9426989498153358
2.769230769230769,1.9609597584725724
2.7890109890109893,1.9776411769764155
2.808791208791209,1.9927184541970524
2.8285714285714287,2.006169491166884
2.8483516483516484,2.0179747920444657
2.8681318681318677,2.0281174231928487
2.887912087912088,2.0365829793851553
2.9076923076923076,2.043359556321015
2.9274725274725273,2.048437728788892
2.947252747252747,2.051810533944279
2.9670329670329667,2.053473459296352
2.986813186813187,2.0534244351084796
3.0065934065934066,2.0516638310237245
3.0263736263736263,2.04819445682788
3.046153846153846,2.043021567361641
3.0659340659340657,2.0361528716928263
3.085714285714286,2.027598546761282
3.1054945054945056,2.017371255815498
3.1252747252747253,2.005486172073715
3.145054945054945,1.9919610081659884
3.1648351648351647,1.9768160520500129
3.184615384615385,1.9600742102463313
3.2043956043956046,1.9417610594110453
3.2241758241758243,1.9219049074607073
3.243956043956044,1.9005368656899093
3.2637362637362637,1.8776909335819172
3.2835164835164834,1.8534040983138371
3.3032967032967036,1.827716451306317
3.3230769230769233,1.8006713245725083
3.342857142857143,1.772315450089732
3.3626373626373627,1.7426991459598709
3.3824175824175824,1.711876533749393
3.4021978021978025,1.6799057921159848
3.4219780219780223,1.646849452641238
3.441758241758242,1.6127747447001024
3.4615384615384617,1.5777539971996792
3.481318681318681,1.541865106092317
3.501098901098901,1.5051920776666656
3.520879120879121,1.467825658665641
3.5406593406593405,1.429864065137954
3.5604395604395602,1.3914138223823984
3.58021978021978,1.352590728052776
3.5999999999999996,1.3135209489418067
3.61978021978022,1.2743422583943846
3.6395604395604395,1.2352054146207936
3.659340659340659,1.1962756688652996
3.679120879120879,1.1577343743953608
3.6989010989010986,1.1197806400294903
3.718681318681319,1.0826329324198705
3.7384615384615385,1.0465304765747503
3.758241758241758,1.0117342321999685
3.7780219780219784,0.9785271353229177
3.7978021978021976,0.9472131972543487
3.8175824175824173,0.9181149632605661
3.8373626373626375,0.8915687827600369
3.8571428571428568,0.8679173789872745
3.876923076923077,0.847499387079721
3.896703296703296,0.8306359055945075
3.916483516483517,0.8176146853423514
3.936263736263736,0.8086732852397783
3.956043956043956,0.8039831754919347
3.9758241758241755,0.8036371073076729
3.9956043956043956,0.8076418677866181
4.015384615384615,0.8159177372329487
4.035164835164835,0.8283047507242589
4.054945054945055,0.8445746171562732
4.0747252747252745,0.8644462642636251
4.094505494505494,0.8876026818622619
4.114285714285715,0.9137070025979934
4.134065934065934,0.9424163791955413
4.153846153846154,0.9733929291009433
4.173626373626373,1.0063116238052427
4.193406593406594,1.040865409047162
4.213186813186813,1.0767680508717508
4.232967032967033,1.1137552573372103
4.252747252747253,1.1515845850969355
4.2725274725274724,1.1900345540026263
4.292307692307692,1.2289032952073309
4.312087912087913,1.2680069680010841
4.331868131868132,1.307178105986001
4.351648351648352,1.3462639958565645
4.371428571428571,1.3851251503490376
4.391208791208792,1.423633907963538
4.410989010989011,1.4616731728080976
4.43076923076923,1.4991352957041868
4.450549450549451,1.5359210904023266
4.4703296703296695,1.5719389747851333
4.49010989010989,1.6071042251283727
4.50989010989011,1.6413383310432175
4.52967032967033,1.6745684390860132
4.549450549450549,1.7067268738341175
4.569230769230769,1.7377507262536638
4.589010989010989,1.7675815002827038
4.608791208791209,1.7961648096334921
4.628571428571428,1.8234501178336942
4.648351648351649,1.8493905154522206
4.6681318681318675,1.8739425292843581
4.687912087912088,1.8970659590020325
4.707692307692308,1.9187237374139354
4.7274725274725276,1.93888181103586
4.747252747252747,1.9575090381513625
4.767032967032967,1.9745771019576384
4.786813186813187,1.9900604367487675
4.806593406593407,2.0039361653967704
4.826373626373626,2.016184046657568
4.846153846153847,2.0267864310600547
4.8659340659340655,2.035728224337913
4.885714285714286,2.042996857540307
4.905494505494506,2.0485822631139645
4.9252747252747255,2.0524768563883518
4.945054945054945,2.054675522021847
4.964835164835165,2.055175605082666
4.984615384615385,2.053976906546316
5.004395604395604,2.051081683094258
5.024175824175824,2.0464946511987625
5.043956043956045,2.040222995578293
5.0637362637362635,2.032276382209126
5.083516483516483,2.0226669761838383
5.103296703296703,2.011409464818923
5.123076923076923,1.9985210865337142
5.142857142857143,1.9840216661545556
5.162637362637362,1.967933657444499
5.182417582417583,1.9502821938225907
5.2021978021978015,1.931095148422742
5.221978021978022,1.9104032048538813
5.241758241758242,1.8882399402650978
5.2615384615384615,1.864641922598317
5.281318681318681,1.839648824231058
5.301098901098901,1.8133035545807523
5.320879120879121,1.7856524146663084
5.340659340659341,1.7567452771084615
5.36043956043956,1.7266357956054328
5.380219780219781,1.6953816485486293
5.3999999999999995,1.663044822146965
5.41978021978022,1.6296919392052729
5.43956043956044,1.5953946405400248
5.4593406593406595,1.5602300268887672
5.479120879120879,1.5242811700308514
5.498901098901099,1.4876377026050367
5.518681318681319,1.4503964966531275
5.538461538461538,1.4126624410336523
5.558241758241758,1.3745493272242688
5.578021978021979,1.3361808512067324
5.5978021978021975,1.2976917354389421
5.617582417582418,1.2592289684303775
5.637362637362637,1.220953148877848
5.6571428571428575,1.1830399050248936
5.676923076923077,1.1456813358327982
5.696703296703297,1.1090873863964907
5.716483516483517,1.0734870236459249
5.736263736263735,1.039129018543672
5.756043956043956,1.0062820689526752
5.775824175824176,0.9752339190506811
5.795604395604395,0.9462890602856693
5.815384615384615,0.9197645598092856
5.835164835164835,0.8959835913532421
5.854945054945055,0.8752663846778502
5.874725274725275,0.8579186016734411
5.894505494505494,0.8442175990703642
5.914285714285715,0.8343975994015974
5.934065934065933,0.8286353352092511
5.953846153846154,0.827038066641149
5.973626373626374,0.8296358143694719
5.993406593406593,0.836379116116186
6.013186813186813,0.8471427009592026
6.032967032967033,0.8617344408104005
6.052747252747253,0.8799080983069231
6.072527472527473,0.9013779713493432
6.092307692307692,0.9258335855390772
6.112087912087913,0.9529529906437536
6.131868131868131,0.9824137810522513
6.151648351648352,1.0139015039483066
6.171428571428572,1.0471155337380247
6.191208791208791,1.0817727439883909
6.210989010989011,1.1176094178299527
6.230769230769231,1.1543818462534206
6.2505494505494505,1.191866013956944
6.270329670329671,1.2298566978674657
6.29010989010989,1.26816622574144
6.309890109890111,1.3066230728414479
6.329670329670329,1.345070418125053
6.349450549450549,1.383364738127867
6.36923076923077,1.4213744852341124
6.3890109890109885,1.4589788750527333
6.408791208791209,1.4960667928963947
6.428571428571428,1.5325358199321808
6.4483516483516485,1.5682913738716744
6.468131868131868,1.6032459559097558
6.487912087912088,1.6373184941431558
6.507692307692308,1.6704337732924737
6.527472527472527,1.7025219407964451
6.547252747252747,1.7335180799623167
6.567032967032967,1.7633618416583494
6.5868131868131865,1.7919971269053305
6.606593406593407,1.8193718135931922
6.626373626373626,1.845437521374336
6.6461538461538465,1.8701494095457196
6.665934065934065,1.893466003418209
6.685714285714286,1.9153490452822923
6.705494505494506,1.9357633666175496
6.725274725274725,1.9546767786643333
6.745054945054945,1.9720599788866275
6.764835164835165,1.9878864712123459
6.7846153846153845,2.002132498247414
6.804395604395605,2.0147769839296923
6.824175824175824,2.0258014853242328
6.8439560439560445,2.035190152466667
6.863736263736263,2.0429296953425875
6.883516483516484,2.049009357250892
6.903296703296704,2.053420893942314
6.923076923076923,2.0561585580536414
6.942857142857143,2.057219088476827
6.962637362637362,2.056601704412562
6.9824175824175825,2.054308103962411
7.002197802197802,2.050342467214909
7.021978021978022,2.044711463880718
7.041758241758242,2.03742426563271
7.061538461538461,2.0284925634103086
7.081318681318681,2.017930590056364
7.101098901098901,2.005755148770921
7.1208791208791204,1.9919856479925038
7.140659340659341,1.9766441434559643
7.16043956043956,1.9597553883306071
7.1802197802197805,1.9413468925146133
7.199999999999999,1.921448992357366
7.21978021978022,1.9000949323021856
7.23956043956044,1.877320960193589
7.259340659340659,1.8531664382795352
7.279120879120879,1.827673972264743
7.298901098901099,1.8008895611410523
7.318681318681318,1.7728627709387097
7.338461538461539,1.7436469360116116
7.358241758241758,1.7132993919907726
7.3780219780219785,1.6818817451114767
7.397802197802197,1.6494601832313807
7.417582417582418,1.616105834492711
7.437362637362638,1.5818951802091505
7.457142857142857,1.5469105291242329
7.476923076923077,1.511240560610055
7.496703296703297,1.474980944522079
7.516483516483516,1.4382350451068655
7.536263736263736,1.401114715290912
7.556043956043957,1.3637411854579113
7.575824175824176,1.3262460468848807
7.595604395604395,1.2887723235889137
7.615384615384615,1.2514756164302043
7.635164835164835,1.2145252886608842
7.654945054945055,1.1781056412249635
7.674725274725275,1.1424169974525378
7.694505494505494,1.1076765790797753
7.7142857142857135,1.0741190084166155
7.734065934065935,1.0419962166422627
7.753846153846154,1.0115764808868992
7.7736263736263735,0.9831422637383479
7.793406593406592,0.9569865061407301
7.813186813186814,0.933407053929321
7.832967032967034,0.9126990094454617
7.852747252747252,0.8951450182642142
7.872527472527472,0.8810038325947597
7.892307692307693,0.870497904405754
7.912087912087912,0.8638011690900171
7.931868131868132,0.8610284583493119
7.951648351648351,0.862227998611055
7.971428571428572,0.8673781348333461
7.991208791208791,0.876388804484302
8.010989010989011,0.8891075246325749
8.03076923076923,0.9053289601265387
8.05054945054945,0.9248066979466197
8.07032967032967,0.9472657450512237
8.09010989010989,0.9724144582897604
8.10989010989011,0.9999549890601849
8.129670329670331,1.0295917483399335
8.149450549450549,1.0610377668400113
8.169230769230769,1.094019088378978
8.189010989010988,1.1282774849490724
8.20879120879121,1.163571839273144
8.22857142857143,1.1996785346013918
8.248351648351647,1.2363911500230012
8.268131868131867,1.2735197037493877
8.287912087912087,1.3108896300955697
8.307692307692308,1.3483406253972545
8.327472527472528,1.3857254566911117
8.347252747252746,1.42290879492783
8.367032967032966,1.4597661107656401
8.386813186813187,1.4961826541075345
8.406593406593407,1.5320525269646836
8.426373626373627,1.5672778515953454
8.446153846153845,1.6017680310770632
8.465934065934066,1.6354390966647274
8.485714285714286,1.6682131348311207
8.505494505494505,1.7000177863192685
8.525274725274725,1.7307858095323707
8.545054945054945,1.7604547009229883
8.564835164835165,1.7889663655675905
8.584615384615384,1.8162668317258601
8.604395604395604,1.8423060038228634
8.624175824175826,1.8670374489175783
8.643956043956043,1.890418212310708
8.663736263736263,1.9124086584870745
8.683516483516483,1.932972334078098
8.703296703296704,1.9520758499685875
8.723076923076924,1.9696887800607386
8.742857142857142,1.98578357455158
8.762637362637362,2.00033548588187
8.782417582417583,2.0133225057798225
8.802197802197803,2.024725312056312
8.821978021978023,2.0345272240137113
8.84175824175824,2.0427141655125363
8.86153846153846,2.049274634901741
8.881318681318682,2.0541996811637704
8.901098901098901,2.0574828857567757
8.920879120879121,2.059120349756861
8.940659340659339,2.0591106860149764
8.96043956043956,2.057455016148808
8.98021978021978,2.054156972291507
9.0,2.049222703618572
9.01978021978022,2.042660887773687
9.03956043956044,2.0344827474154643
9.05934065934066,2.0247020722124125
9.079120879120879,2.0133352467243326
9.098901098901099,2.0004012847273156
9.11868131868132,1.985921870668932
9.138461538461538,1.9699214090819446
9.158241758241758,1.9524270829416652
9.178021978021977,1.933468922127109
9.197802197802199,1.91307988334101
9.217582417582419,1.8912959430628278
9.237362637362637,1.8681562053536835
9.257142857142856,1.843703026606007
9.276923076923078,1.81798215963574
9.296703296703297,1.7910429198512914
9.316483516483517,1.762938376601956
9.336263736263735,1.7337255732044117
9.356043956043957,1.7034657795623818
9.375824175824176,1.6722247817175673
9.395604395604396,1.6400732130755258
9.415384615384616,1.6070869324016237
9.435164835164835,1.5733474539222418
9.454945054945055,1.5389424349100518
9.474725274725275,1.5039662258563942
9.494505494505495,1.4685204875620974
9.514285714285714,1.432714877964244
9.534065934065934,1.3966678089236175
9.553846153846154,1.3605072690739763
9.573626373626373,1.3243717025966675
9.593406593406593,1.2884109247012092
9.613186813186815,1.2527870418054643
9.632967032967032,1.2176753269890654
9.652747252747252,1.1832649783929818
9.672527472527472,1.1497596593743298
9.692307692307693,1.1173776847655703
9.712087912087913,1.0863516794726704
9.731868131868131,1.0569274983625507
9.75164835164835,1.0293621680164686
9.771428571428572,1.0039206038898287
9.791208791208792,0.9808708871861901
9.810989010989012,0.9604779723990456
9.83076923076923,0.9429958531067262
9.850549450549451,0.9286584415202025
9.87032967032967,0.9176696948835712
9.89010989010989,0.9101937983209254
9.90989010989011,0.906346413547917
9.92967032967033,0.906188045682419
9.94945054945055,0.9097204135608259
9.96923076923077,0.9168863386807965
9.989010989010989,0.9275731697219937
10.008791208791209,0.9416192570366251
10.028571428571428,0.9588226097546962
10.048351648351648,0.9789506869989982
10.068131868131868,1.0017503049367882
10.08791208791209,1.0269568334114303
10.107692307692307,1.054302130070883
10.127472527472527,1.0835209395240775
10.147252747252747,1.1143557173575205
10.167032967032966,1.1465600004099934
10.186813186813188,1.1799005356267425
10.206593406593406,1.2141584136782253
10.226373626373626,1.2491294483767499
10.246153846153845,1.2846240154515087
10.265934065934067,1.3204665271805864
10.285714285714286,1.3564946810858596
10.305494505494504,1.3925585860648928
10.325274725274724,1.4285198400415096
10.345054945054946,1.4642506099060704
10.364835164835165,1.4996327467432176
10.384615384615385,1.534556956271273
10.404395604395603,1.5689220351134952
10.424175824175824,1.6026341771181303
10.443956043956044,1.6356063497015705
10.463736263736264,1.6677577375118904
10.483516483516484,1.6990132491388579
10.503296703296703,1.729303081787153
10.523076923076923,1.7585623385295026
10.542857142857143,1.7867306927862379
10.562637362637362,1.8137520949099983
10.582417582417584,1.8395745161028114
10.602197802197802,1.8641497252981698
10.621978021978022,1.8874330950652543
10.641758241758241,1.9093834330115493
