Frequency (Hz),Amplitude
0.0,6.035930301255208
0.01993355481727575,6.033013154582591
0.0398671096345515,6.024264779748658
0.059800664451827246,6.009694371256756
0.079734219269103,5.9893172498269385
0.09966777408637874,5.963154857367426
0.11960132890365449,5.931234750239204
0.13953488372093023,5.893590591130167
0.159468438538206,5.850262139963527
0.17940199335548174,5.801295244387772
0.19933554817275748,5.746741830537457
0.21926910299003324,5.686659894921414
0.23920265780730898,5.621113498494076
0.25913621262458475,5.55017276420679
0.27906976744186046,5.473913879629849
0.29900332225913623,5.392419106598317
0.318936877076412,5.305776800284809
0.3388704318936877,5.214081440666168
0.3588039867109635,5.117433680062216
0.37873754152823924,5.015940411329265
0.39867109634551495,4.90971486244909
0.4186046511627907,4.798876724748655
0.4385382059800665,4.6835523239289305
0.4584717607973422,4.56387484562731
0.47840531561461797,4.4399846306024235
0.49833887043189373,4.3120295591123625
0.5182724252491695,4.180165550083139
0.5382059800664452,4.044557208840211
0.5581395348837209,3.9053786683781864
0.5780730897009968,3.7628146846504946
0.5980066445182725,3.617062068056922
0.6179401993355482,3.468331564006707
0.637873754152824,3.316850339385977
0.6578073089700996,3.1628652954526877
0.6777408637873754,3.0066475211518995
0.6976744186046512,2.848498339766068
0.717607973421927,2.688757610916395
0.7375415282392027,2.5278152684802775
0.7574750830564785,2.3661275654561864
0.7774086378737541,2.2042402578290385
0.7973421926910299,2.042822142866891
0.8172757475083057,1.8827141917200187
0.8372093023255814,1.7250022448848445
0.8571428571428572,1.5711250047207481
0.877076411960133,1.423033172308337
0.8970099667774087,1.2834163096344955
0.9169435215946844,1.155998654524903
0.9368770764119602,1.0458404387359037
0.9568106312292359,0.9594104009189051
0.9767441860465116,0.9039251754065095
0.9966777408637875,0.8854563313439727
1.0166112956810631,0.9063446623615572
1.036544850498339,0.9639613071086327
1.0564784053156147,1.0520907458300717
1.0764119601328903,1.1635226405297556
1.0963455149501662,1.2918675360765568
1.1162790697674418,1.432154366924271
1.1362126245847177,1.580732199946502
1.1561461794019936,1.73496502132213
1.176079734219269,1.8929394546003966
1.196013289036545,2.05324244471583
1.2159468438538206,2.2148058019495287
1.2358803986710964,2.3768008146907587
1.255813953488372,2.538567308036916
1.275747508305648,2.6995656731277267
1.2956810631229239,2.859344098209964
1.3156146179401993,3.0175158980057386
1.3355481727574752,3.173743615143976
1.3554817275747508,3.3277277190185415
1.3754152823920267,3.4791984679576604
1.3953488372093024,3.627909978016531
1.4152823920265782,3.773635851970567
1.435215946843854,3.916165925897972
1.4551495016611296,4.055303826251487
1.4750830564784054,4.190865121567039
1.495016611295681,4.322675915185174
1.514950166112957,4.450571768334315
1.5348837209302328,4.574396872963009
1.5548172757475083,4.694003414952429
1.5747508305647842,4.80925108353397
1.5946843853820598,4.920006693720132
1.6146179401993357,5.02614389657804
1.6345514950166113,5.127542958089865
1.6544850498338872,5.224090591747148
1.6744186046511629,5.31567983333158
1.6943521594684385,5.402209948838767
1.7142857142857144,5.483586368412322
1.73421926910299,5.559720640627026
1.754152823920266,5.630530402599551
1.7740863787375416,5.695939362296538
1.7940199335548175,5.755877290110528
1.8139534883720931,5.810280017330175
1.8338870431893688,5.859089439575301
1.8538205980066447,5.902253523624324
1.8737541528239203,5.939726316352742
1.893687707641196,5.971467954738462
1.9136212624584719,5.9974446760875635
1.9335548172757475,6.0176288277990375
1.9534883720930232,6.03199887612765
1.9734219269102993,6.0405394135259565
1.993355481727575,6.043241164253403
2.0132890365448506,6.0401009880378025
2.0332225913621262,6.03112188166382
2.0531561461794023,6.016312978449776
2.073089700996678,5.9956895456577515
2.0930232558139537,5.969272979968922
2.1129568106312293,5.937090801246229
2.132890365448505,5.899176644904161
2.1528239202657806,5.855570253314423
2.1727574750830567,5.806317466799358
2.1926910299003324,5.7514702149079175
2.212624584717608,5.691086508837537
2.2325581395348837,5.625230436065859
2.25249169435216,5.553972158499668
2.2724252491694354,5.477387915744904
2.292358803986711,5.395560035467479
2.312292358803987,5.308576953269424
2.332225913621263,5.2165332450748005
2.352159468438538,5.11952967573932
2.3720930232558137,5.017673268512507
2.39202657807309,4.911077401154249
2.4119601328903655,4.799861936021448
2.431893687707641,4.684153393409985
2.4518272425249172,4.564085180020081
2.471760797342193,4.439797887827628
2.4916943521594686,4.311439683196263
2.511627906976744,4.179166812190304
2.5315614617940203,4.043144256364748
2.551495016611296,3.903546584713756
2.5714285714285716,3.7605590632598567
2.5913621262458477,3.6143791058958468
2.611295681063123,3.4652181814361973
2.6312292358803986,3.313304336760799
2.6511627906976742,3.1588855611175415
2.6710963455149503,3.0022343124303936
2.691029900332226,2.8436536690114034
2.7109634551495017,2.6834857849593288
2.7308970099667778,2.522123655401412
2.7508305647840534,2.3600277033923946
2.770764119601329,2.1977494862001787
2.7906976744186047,2.03596604277849
2.810631229235881,1.8755302939533607
2.8305647840531565,1.7175457347491623
2.850498338870432,1.5634775538522492
2.870431893687708,1.4153165225843016
2.8903654485049834,1.2758124963248612
2.910299003322259,1.1487775256603983
2.9302325581395348,1.0393889756587869
2.950166112956811,0.9542417408452578
2.9700996677740865,0.900621731556265
2.990033222591362,0.8845138226466869
3.0099667774086383,0.9079881127697205
3.029900332225914,0.9680921767508319
3.0498338870431896,1.058402353538286
3.0697674418604657,1.171654750961137
3.089700996677741,1.3014987014088781
3.1096345514950166,1.4430298493520277
3.129568106312292,1.5926598013049493
3.1495016611295683,1.7478016672135945
3.169435215946844,1.9065780501072573
3.1893687707641196,2.0676015509409322
3.2093023255813957,2.229822149196217
3.2292358803986714,2.39242403189257
3.249169435215947,2.5547562400143464
3.2691029900332227,2.7162857986857065
3.289036544850499,2.8765657041802672
3.3089700996677744,3.035212773318798
3.32890365448505,3.1918921053617773
3.3488372093023258,3.346306033373607
3.3687707641196014,3.4981861654083564
3.388704318936877,3.6472875818237482
3.4086378737541527,3.793384557722243
3.428571428571429,3.936267378336733
3.4485049833887045,4.075739947385493
3.46843853820598,4.211617977463803
3.4883720930232562,4.343727612284319
3.508305647840532,4.471904372541349
3.5282392026578075,4.595992346518178
3.548172757475083,4.7158435673182755
3.5681063122923593,4.831317533455775
3.588039867109635,4.942280840283579
3.60797342192691,5.0486068975860485
3.6279069767441863,5.150175714453413
3.647840531561462,5.24687373686656
3.6677740863787376,5.338593726659308
3.6877076411960132,5.42523467297915
3.7076411960132893,5.5067017292409846
3.727574750830565,5.582906170011318
3.7475083056478407,5.653765363378802
3.7674418604651168,5.7192027552417155
3.787375415282392,5.779147862631073
3.807308970099668,5.833536273734002
3.8272425249169437,5.882309652718402
3.8471760797342194,5.925415747811273
3.867109634551495,5.962808401368603
3.887043189368771,5.994447560909082
3.9069767441860463,6.020299290277736
3.9269102990033224,6.040335780268753
3.9468438538205985,6.054535358175193
3.9667774086378738,6.062882495853492
3.98671096345515,6.065367815996605
4.0066445182724255,6.06198809640573
4.026578073089701,6.052746272139398
4.046511627906977,6.037651435504214
4.0664451827242525,6.016718833935543
4.086378737541528,5.989969865902432
4.106312292358805,5.957432075061016
4.1262458471760795,5.919139142978895
4.146179401993356,5.875130880861196
4.166112956810632,5.825453220832834
4.186046511627907,5.770158207474882
4.205980066445183,5.709303990481539
4.225913621262459,5.642954819506446
4.245847176079734,5.571181042511029
4.26578073089701,5.494059109226152
4.2857142857142865,5.411671581706402
4.305647840531561,5.324107154414332
4.325581395348838,5.2314606868461295
4.345514950166113,5.133833252435366
4.365448504983389,5.031332208394909
4.385382059800665,4.924071292340577
4.40531561461794,4.812170753069593
4.425249169435216,4.695757524857822
4.445182724252492,4.574965457252543
4.465116279069767,4.449935615794509
4.485049833887043,4.320816673716495
4.50498338870432,4.187765420877674
4.524916943521594,4.050947424637676
4.544850498338871,3.9105378889664335
4.5647840531561465,3.766722774165856
4.584717607973422,3.6197002621288097
4.604651162790698,3.4696826840451624
4.624584717607974,3.316899073376981
4.644518272425249,3.1615985736528454
4.664451827242526,3.0040550288607046
4.6843853820598005,2.844573230716122
4.704318936877076,2.6834975184135605
4.724252491694353,2.5212237650296263
4.7441860465116275,2.3582163083502197
4.764119601328904,2.195032200247435
4.78405315614618,2.0323564246478467
4.803986710963455,1.8710537115288646
4.823920265780731,1.7122455460109502
4.8438538205980075,1.5574250833282626
4.863787375415282,1.4086271377153003
4.883720930232559,1.268670913673651
4.9036544850498345,1.1414749676142553
4.92358803986711,1.032368691160515
4.943521594684386,0.9481293685767708
4.963455149501661,0.896182723219933
4.983388704318937,0.8824812271303666
5.003322259136213,0.908824350007014
5.023255813953488,0.9718796860164128
5.043189368770764,1.0649400354144758
5.063122923588041,1.1806276749271054
5.083056478405315,1.312594522649612
5.102990033222592,1.455985088419546
5.122923588039868,1.6072662599423442
5.142857142857143,1.7638982239948253
5.162790697674419,1.9240397744393343
5.182724252491695,2.086330195283855
5.20265780730897,2.2497388293037903
5.222591362126246,2.4134638584496755
5.242524916943522,2.5768644489222976
5.262458471760797,2.739414969059501
5.282392026578074,2.900673749170317
5.3023255813953485,3.060261477274757
5.322259136212625,3.217846048468539
5.342192691029901,3.373131793163557
5.362126245847176,3.5258517180685516
5.382059800664452,3.6757618492585777
5.4019933554817285,3.822637062167889
5.421926910299003,3.9662679772566563
5.44186046511628,4.106458628980189
5.4617940199335555,4.243024702463423
5.48172757475083,4.375792191472367
5.501661129568107,4.504596372161458
5.5215946843853825,4.6292810156695205
5.541528239202658,4.749697782870076
5.561461794019934,4.865705759060699
5.5813953488372094,4.9771710968493
5.601328903654485,5.083966743148725
5.621262458471762,5.185972231838326
5.641196013289036,5.283073527857416
5.661129568106313,5.375162911655932
5.681063122923589,5.462138895322482
5.700996677740864,5.543906163539731
5.72093023255814,5.620375533925727
5.740863787375416,5.691463932412849
5.760797342192691,5.757094380170558
5.780730897009967,5.817195989250809
5.800664451827243,5.871703964668921
5.820598006644518,5.920559611059423
5.840531561461795,5.963710342390385
5.8604651162790695,6.001109693499134
5.880398671096346,6.032717332441943
5.900332225913622,6.058499072840187
5.920265780730897,6.07842688556554
5.940199335548173,6.0924789092427405
5.960132890365449,6.100639459166472
5.980066445182724,6.102899034333219
6.0,6.099254322383608
6.0199335548172765,6.089708202338515
6.039867109634551,6.074269745096491
6.059800664451828,6.052954211743566
6.0797342192691035,6.0257830498114116
6.099667774086379,5.992783887709707
6.119601328903655,5.953990527655707
6.139534883720931,5.909442937532271
6.159468438538206,5.8591872422290825
6.179401993355482,5.80327571516455
6.1993355481727574,5.74176677085494
6.219269102990033,5.674724959599109
6.23920265780731,5.602220965591645
6.259136212624584,5.524331610076144
6.279069767441861,5.441139861519466
6.299003322259137,5.352734855246908
6.318936877076412,5.259211925554731
6.338870431893688,5.160672654044942
6.3588039867109645,5.057224938855112
6.378737541528239,4.948983090646994
6.398671096345516,4.836067962757379
6.418604651162791,4.718607124920871
6.438538205980066,4.596735092609893
6.458471760797343,4.4705936275274345
6.4784053156146175,4.340332129451442
6.498338870431894,4.206108145916379
6.51827242524917,4.068088034773901
6.538205980066445,3.9264478264372547
6.558139534883721,3.7813743489549014
6.578073089700998,3.633066702011979
6.598006644518272,3.4817381985753264
6.617940199335549,3.32761893981217
6.6378737541528245,3.1709592572499106
6.6578073089701,3.012034356993794
6.677740863787376,2.8511506516447125
6.6976744186046515,2.688654494147642
6.717607973421927,2.524944378717177
6.737541528239203,2.360488218925767
6.7574750830564785,2.1958481666981293
6.777408637873754,2.0317167776226626
6.797342192691031,1.8689704211946554
6.8172757475083055,1.7087490064592437
6.837209302325582,1.5525755318074108
6.857142857142858,1.4025338759656927
6.877076411960133,1.2615240494129019
6.897009966777409,1.133594798814502
6.9169435215946855,1.0242716690023381
6.93687707641196,0.9405845202151057
6.956810631229236,0.8901831618103629
6.9767441860465125,0.8790430570665684
6.996677740863787,0.908674018196493
7.016611295681064,0.9752803164696613
7.036544850498339,1.0717789991250124
7.056478405315615,1.190614609147208
7.076411960132891,1.32540847462927
7.096345514950166,1.471340478925266
7.116279069767442,1.624929188579332
7.136212624584719,1.7836824646887863
7.156146179401993,1.9457973269910098
7.17607973421927,2.1099420172120675
7.196013289036546,2.275107296219225
7.21594684385382,2.4405070396060653
7.235880398671097,2.605511876408302
7.2558139534883725,2.7696045363725466
7.275747508305648,2.9323494355077333
7.295681063122924,3.0933716685221353
7.3156146179402,3.2523422890152394
7.335548172757475,3.4089678502849448
7.355481727574752,3.5629828748663597
7.3754152823920265,3.7141443663218237
7.395348837209303,3.8622277650705783
7.415282392026579,4.007023938911986
7.435215946843854,4.148336924267853
7.45514950166113,4.285982218512554
7.475083056478406,4.419785481254893
7.495016611295681,4.549581542137574
7.514950166112956,4.675213640477148
7.5348837209302335,4.79653284170499
7.554817275747508,4.913397589621871
7.574750830564784,5.025673363642857
7.5946843853820605,5.13323241763682
7.614617940199336,5.235953582446373
7.634551495016611,5.333722118256801
7.6544850498338874,5.426429606050735
7.674418604651163,5.513973869710775
7.694352159468439,5.596258922108963
7.714285714285715,5.673194929890502
7.73421926910299,5.744698192720931
7.754152823920266,5.810691133596342
7.774086378737542,5.871102297470021
7.794019933554818,5.9258663559681715
7.813953488372093,5.974924116382316
7.83388704318937,6.018222533460557
7.853820598006645,6.055714722792128
7.8737541528239205,6.087359974803047
7.893687707641197,6.113123768565993
7.913621262458472,6.1329777847835
7.9335548172757475,6.146899917436365
7.953488372093024,6.154874283704326
7.9734219269103,6.156891231868496
7.9933554817275745,6.152947346997315
8.013289036544851,6.143045454304081
8.033222591362128,6.1271946201474226
8.053156146179402,6.105410150727371
8.073089700996679,6.0777135886144125
8.093023255813954,6.0441327073371225
8.11295681063123,6.004701504350318
8.132890365448505,5.959460192812935
8.152823920265782,5.908455192727323
8.172757475083056,5.851739122133468
8.192691029900331,5.7893707892196264
8.21262458471761,5.721415186411782
8.232558139534884,5.6479434877476615
8.252491694352159,5.569033051138865
8.272425249169435,5.484767427493032
8.292358803986712,5.395236379125841
8.312292358803987,5.300535910468832
8.332225913621263,5.200768314807063
8.352159468438538,5.096042241709293
8.372093023255815,4.986472791006
8.392026578073091,4.872181640714372
8.411960132890366,4.75329721832295
8.43189368770764,4.629954927496753
8.451827242524917,4.502297445775156
8.471760797342194,4.370475113532885
8.491694352159469,4.234646440816574
8.511627906976745,4.09497876731594
8.53156146179402,3.95164912263493
8.551495016611296,3.8048453506009103
8.571428571428573,3.65476758467726
8.591362126245848,3.5016301947704584
8.611295681063122,3.3456643736364744
8.6312292358804,3.187121601084891
8.651162790697676,3.0262783278088814
8.67109634551495,2.863442376221317
8.691029900332227,2.6989617924181215
8.710963455149502,2.533237248574217
8.730897009966778,2.3667396653607238
8.750830564784053,2.2000356232609626
8.77076411960133,2.033824556340951
8.790697674418604,1.868993966779632
8.81063122923588,1.7067023440024165
8.830564784053157,1.548504384547341
8.850498338870432,1.3965387451726363
8.870431893687707,1.2538001001341792
8.890365448504983,1.1244971158991073
8.91029900332226,1.0144082450554712
8.930232558139535,0.9309071231809705
8.950166112956811,0.8819751213560991
8.970099667774086,0.8736725479606225
8.990033222591363,0.9071768125541126
9.00996677740864,0.9781083427566278
9.029900332225914,1.0788916743495616
9.049833887043189,1.2017228706980745
9.069767441860467,1.340161892814078
9.089700996677742,1.489415155121524
9.109634551495017,1.6460534502468827
9.129568106312293,1.8076360127763098
9.14950166112957,1.9724023159781758
9.169435215946844,2.1390533653286745
9.189368770764121,2.3066044698236787
9.209302325581396,2.4742876612515325
9.22923588039867,2.64148691883028
9.249169435215949,2.8076947523006552
9.269102990033224,2.9724827094981836
9.289036544850498,3.135481045335942
9.308970099667773,3.296364496549074
9.328903654485051,3.454842185072403
9.348837209302326,3.6106503551300246
9.368770764119601,3.7635470841411274
9.388704318936878,3.9133083881524655
9.408637873754152,4.059725325894669
9.428571428571429,4.202601827067789
9.448504983388705,4.341753052089433
9.46843853820598,4.477004146124206
9.488372093023255,4.608189288564784
9.508305647840533,4.735150965931355
9.528239202657808,4.857739415105989
9.548172757475083,4.975812197373194
9.56810631229236,5.089233873540351
9.588039867109636,5.197875757573771
9.60797342192691,5.301615731470943
9.627906976744187,5.400338108025883
9.647840531561462,5.493933531102521
9.667774086378738,5.582298905273029
9.687707641196015,5.665337348391252
9.70764119601329,5.742958161990943
9.727574750830565,5.815076815422572
9.747508305647841,5.881614940443505
9.767441860465118,5.942500333607199
9.787375415282392,5.997666964298031
9.807308970099669,6.047054986659011
9.827242524916944,6.090610753982877
9.84717607973422,6.128286834399844
9.867109634551497,6.160042026911381
9.887043189368772,6.185841376998629
9.906976744186046,6.205656191184942
9.926910299003321,6.219464050060808
9.9468438538206,6.22724881939117
9.966777408637874,6.229000659024391
9.986710963455149,6.224716029412168
10.006644518272426,6.214397695633735
10.026578073089702,6.198054728898585
10.046511627906977,6.175702505582164
10.066445182724253,6.147362703931254
10.086378737541528,6.113063298662659
10.106312292358805,6.072838553773485
10.126245847176081,6.02672901398668
10.146179401993356,5.97478149537608
10.16611295681063,5.917049075855318
10.186046511627907,5.853591086380434
10.205980066445184,5.784473103914547
10.225913621262459,5.7097669474436215
10.245847176079735,5.629550678626966
10.26578073089701,5.543908609030784
10.285714285714286,5.452931316347126
10.305647840531563,5.356715672572179
10.325581395348838,5.255364887840634
10.345514950166113,5.148988574536411
10.36544850498339,5.037702837486767
10.385382059800666,4.921630397585132
10.40531561461794,4.800900758197064
10.425249169435217,4.675650426349483
10.445182724252492,4.546023204217198
10.465116279069768,4.412170571129123
10.485049833887045,4.274252182685051
10.50498338870432,4.132436522272318
10.524916943521594,3.9869017522758936
10.544850498338871,3.8378368290235554
10.564784053156147,3.6854429691440433
10.584717607973422,3.52993558877961
10.604651162790697,3.3715468859419655
10.624584717607974,3.2105293079195336
10.64451827242525,3.047160252118496
10.664451827242525,2.88174850929567
10.684385382059801,2.714643203853231
10.704318936877076,2.5462463672755167
10.724252491694353,2.377030880827336
10.74418604651163,2.207566478233902
10.764119601328904,2.0385580277648523
10.784053156146179,1.8709027547921997
10.803986710963457,1.7057768822626158
10.823920265780732,1.5447677565542313
10.843853820598007,1.3900742942897502
10.863787375415283,1.2448015448814633
