Time (s),Filtered Signal
0.0,0.01846009139342432
0.03337028824833703,0.1388410103196589
0.06674057649667406,0.30592957220245
0.10011086474501109,0.532203260591622
0.13348115299334812,0.7809546541864097
0.16685144124168516,0.9796528758941536
0.20022172949002218,1.0550499866579164
0.2335920177383592,0.9714744890004345
0.26696230598669624,0.7515588116338943
0.3003325942350333,0.46771734963466044
0.3337028824833703,0.2083153730697125
0.3670731707317073,0.036177479875748694
0.40044345898004435,-0.03875902408388945
0.4338137472283814,-0.05862589502131226
0.4671840354767184,-0.08994923040578981
0.5005543237250555,-0.18463964857634732
0.5339246119733925,-0.3505068171115077
0.5672949002217295,-0.5462050061404085
0.6006651884700666,-0.7021619865785622
0.6340354767184035,-0.755745674561984
0.6674057649667406,-0.6824017842837661
0.7007760532150776,-0.5074533260588131
0.7341463414634146,-0.2935497964597244
0.7675166297117517,-0.11093954605208795
0.8008869179600887,-0.005835443996987187
0.8342572062084257,0.017625714659658957
0.8676274944567628,-0.006129684445564158
0.9009977827050998,-0.0258162429460763
0.9343680709534368,-0.0007547354012087315
0.9677383592017739,0.08027258794307605
1.001108647450111,0.19718570111087014
1.0344789356984478,0.3122485419466962
1.067849223946785,0.38978612550309194
1.101219512195122,0.41104248695272483
1.134589800443459,0.37793221856296083
1.167960088691796,0.3065674733664376
1.2013303769401331,0.2165434397119571
1.23470066518847,0.12268040190926699
1.268070953436807,0.03285840374063146
1.3014412416851442,-0.04875988061867253
1.3348115299334813,-0.11685512039546418
1.3681818181818182,-0.1625480215297918
1.4015521064301553,-0.17558025677274264
1.4349223946784924,-0.1501594589160437
1.4682926829268292,-0.09113104204533104
1.5016629711751663,-0.016500045523565862
1.5350332594235034,0.04626605219705
1.5684035476718403,0.06987633263616569
1.6017738359201774,0.03940568931839974
1.6351441241685145,-0.03839745057377785
1.6685144124168514,-0.13393851092167613
1.7018847006651885,-0.20412215195091732
1.7352549889135256,-0.20978487650108382
1.7686252771618625,-0.13415258451440035
1.8019955654101996,0.006503205775100202
1.8353658536585367,0.16612599823286237
1.8687361419068735,0.2858276319169234
1.9021064301552106,0.3175312147528987
1.9354767184035477,0.24381971830360435
1.9688470066518848,0.08528002825095773
2.002217294900222,-0.10737993765283235
2.035587583148559,-0.27228293821590416
2.0689578713968957,-0.35799533427103947
2.102328159645233,-0.339489223269857
2.13569844789357,-0.22377194608588746
2.1690687361419068,-0.04519502392084601
2.202439024390244,0.14620152024276603
2.235809312638581,0.2989438012932719
2.269179600886918,0.3733177217364862
2.302549889135255,0.3509819480065157
2.335920177383592,0.2392690908020601
2.369290465631929,0.06904508293623635
2.4026607538802662,-0.1139279816444711
2.436031042128603,-0.2623246336121801
2.46940133037694,-0.34143334852346513
2.5027716186252773,-0.33933310453625193
2.536141906873614,-0.269292791080161
2.569512195121951,-0.1635853661795735
2.6028824833702884,-0.061330405172423594
2.6362527716186253,0.004930201269861962
2.6696230598669626,0.01931994449232391
2.7029933481152995,-0.013460770803550562
2.7363636363636363,-0.07103598143119232
2.7697339246119737,-0.12188486164426275
2.8031042128603105,-0.13692138566396136
2.8364745011086474,-0.10043077512379008
2.8698447893569847,-0.016252199233618907
2.9032150776053216,0.09379531214878982
2.9365853658536585,0.19930620491347123
2.969955654101996,0.2747945947696152
3.0033259423503327,0.3110485880595447
3.0366962305986696,0.31851531612516226
3.070066518847007,0.3205743645632618
3.1034368070953438,0.33973685220752503
3.1368070953436806,0.38370904741708983
3.170177383592018,0.43864161599530416
3.203547671840355,0.4733951957269796
3.2369179600886917,0.45309951369165646
3.270288248337029,0.3556220985484319
3.303658536585366,0.18317876684463846
3.337028824833703,-0.036282265024498946
3.37039911308204,-0.2585519697881807
3.403769401330377,-0.43938337758458096
3.437139689578714,-0.5505965601659092
3.470509977827051,-0.5892978711172004
3.503880266075388,-0.5762510549064053
3.537250554323725,-0.5439773029179901
3.5706208425720622,-0.5198226981735892
3.603991130820399,-0.5120174039216495
3.637361419068736,-0.5059767820925918
3.6707317073170733,-0.47344298199757867
3.70410199556541,-0.39031110252145934
3.737472283813747,-0.25359824992302127
3.7708425720620844,-0.08745196608831114
3.8042128603104213,0.06647612761414047
3.8375831485587586,0.17000710509100264
3.8709534368070955,0.20917581718642406
3.9043237250554323,0.20233861683411478
3.9376940133037697,0.19005393929373401
3.9710643015521065,0.21183156925508875
4.004434589800444,0.2829554958722784
4.037804878048781,0.38498207440184257
4.071175166297118,0.4757245513712718
4.1045454545454545,0.5131335365044903
4.137915742793791,0.4793092043885297
4.171286031042128,0.3908256410910346
4.204656319290466,0.2895770315447403
4.238026607538803,0.2196094540584419
4.27139689578714,0.2032335818731285
4.304767184035477,0.22970153442461558
4.3381374722838135,0.2621957030998697
4.371507760532151,0.25846805927459043
4.404878048780488,0.19323497328642855
4.438248337028825,0.07025381518466706
4.471618625277162,-0.08149383726530689
4.504988913525499,-0.22403326311897803
4.538359201773836,-0.3291925210848635
4.571729490022173,-0.3897254888732644
4.60509977827051,-0.4177791631590595
4.638470066518847,-0.4331660722590935
4.671840354767184,-0.4491992977508068
4.705210643015521,-0.4643010819154642
4.738580931263858,-0.4635020139453722
4.771951219512196,-0.4280995010817528
4.8053215077605325,-0.34754353096796015
4.838691796008869,-0.22706887420302582
4.872062084257206,-0.0874161657786355
4.905432372505543,0.04279820833870281
4.93880266075388,0.13816572846090855
4.972172949002218,0.1860221362997538
5.005543237250555,0.19058922720850105
5.0389135254988915,0.17034986982204456
5.072283813747228,0.1499207416478189
5.105654101995565,0.14964170157234957
5.139024390243902,0.17693085300588418
5.17239467849224,0.22294767307586638
5.205764966740577,0.26625412826360506
5.239135254988914,0.2823821347555125
5.2725055432372505,0.2554969681690653
5.305875831485587,0.18697919295025364
5.339246119733925,0.09663970546610841
5.372616407982262,0.015318841841207012
5.405986696230599,-0.02844179283470243
5.439356984478936,-0.021939014704756298
5.472727272727273,0.02427329845611118
5.5060975609756095,0.07914362646015431
5.539467849223947,0.10373991753400895
5.572838137472284,0.06875578138198783
5.606208425720621,-0.03080757509795958
5.639578713968958,-0.17083043842043782
5.672949002217295,-0.30612298992676656
5.706319290465632,-0.3885628128790339
5.7396895787139695,-0.38771563685385746
5.773059866962306,-0.3047373300541406
5.806430155210643,-0.17290932177968746
5.83980044345898,-0.043900138487021706
5.873170731707317,0.034701698712782024
5.906541019955654,0.04078721414563643
5.939911308203992,-0.011755471980802979
5.9732815964523285,-0.0788032305919828
6.006651884700665,-0.10632493094369469
6.040022172949002,-0.056709708593028665
6.073392461197339,0.07102307644542538
6.106762749445676,0.23754367479765232
6.140133037694014,0.3794943703279462
6.173503325942351,0.43939190334590056
6.2068736141906875,0.3948095403541091
6.240243902439024,0.2711031903482663
6.273614190687361,0.12927116628170768
6.306984478935698,0.033750475200684305
6.340354767184036,0.01692339934733009
6.373725055432373,0.06037544353757648
6.40709534368071,0.10466118797241777
6.4404656319290465,0.0836091456321769
6.473835920177383,-0.03506559351004806
6.507206208425721,-0.2255223189261024
6.540576496674058,-0.410472832829946
6.573946784922395,-0.49696015129404775
6.607317073170732,-0.42371833527799907
6.640687361419069,-0.19593565720829426
6.674057649667406,0.11090868696183916
6.707427937915743,0.3811822472969873
6.74079822616408,0.5093863701405653
6.774168514412417,0.44683011228729475
6.807538802660754,0.22278235131267524
6.840909090909091,-0.0693658801910028
6.874279379157428,-0.31379537318499817
6.9076496674057655,-0.4220658903373929
6.941019955654102,-0.36845335154095554
6.974390243902439,-0.19598134475090456
7.007760532150776,0.007541991123007415
7.041130820399113,0.1505771724781352
7.07450110864745,0.17637563261679812
7.107871396895788,0.08221948459379698
7.1412416851441245,-0.08697032409348801
7.174611973392461,-0.2646136398009714
7.207982261640798,-0.3936738993293837
7.241352549889135,-0.44804413555692857
7.274722838137472,-0.43562261636711724
7.30809312638581,-0.38449465302026753
7.341463414634147,-0.32176205444757444
7.3748337028824835,-0.2570665926038688
7.40820399113082,-0.17902858611577754
7.441574279379157,-0.06521403719563584
7.474944567627494,0.10090760936182401
7.508314855875832,0.31565935321380567
7.541685144124169,0.5510606300054263
7.575055432372506,0.7628101378885668
7.6084257206208425,0.9061379865845247
7.641796008869179,0.9518327707715976
7.675166297117517,0.8952518148986088
7.708536585365854,0.7549942759721608
7.741906873614191,0.5630334937069006
7.775277161862528,0.3518975793673479
7.808647450110865,0.14515386840767108
7.842017738359202,-0.045141789688731976
7.875388026607539,-0.21460506010972985
7.908758314855876,-0.3602658375411521
7.942128603104213,-0.476550589163511
7.97549889135255,-0.5559601426566333
8.008869179600888,-0.5934001453047807
8.042239467849225,-0.5906175552448123
8.075609756097561,-0.5572220685103071
8.108980044345898,-0.5071609341613335
8.142350332594235,-0.4525776909203356
8.175720620842572,-0.3986779377138394
8.209090909090909,-0.3425320662743757
8.242461197339246,-0.2762841255671369
8.275831485587583,-0.1927016798704837
8.30920177383592,-0.08993594243004217
8.342572062084257,0.026794868359497508
8.375942350332595,0.14688393171070968
8.409312638580932,0.2578134896431257
8.442682926829269,0.348234730126668
8.476053215077606,0.409272097728074
8.509423503325943,0.4342812405620415
8.54279379157428,0.418536327407764
8.576164079822616,0.36031385704423946
8.609534368070953,0.26353417913932725
8.64290465631929,0.1403859816324905
8.676274944567627,0.011444515557095443
8.709645232815964,-0.09844472015570531
8.743015521064303,-0.16795438547214334
8.77638580931264,-0.18757530842228753
8.809756097560976,-0.16406439017276295
8.843126385809313,-0.11797709057114644
8.87649667405765,-0.07463293466875502
8.909866962305987,-0.052514260346601074
8.943237250554324,-0.054778467396524894
8.97660753880266,-0.0682127770810537
9.009977827050998,-0.07035352490680773
9.043348115299334,-0.04160767996109449
9.076718403547671,0.02309440630062574
9.110088691796008,0.10852110087034078
9.143458980044347,0.1824681491615228
9.176829268292684,0.20793942706610008
9.21019955654102,0.16010619557928205
9.243569844789358,0.0410474892245561
9.276940133037694,-0.11524906065805182
9.310310421286031,-0.2521180140954617
9.343680709534368,-0.31197349040290506
9.377050997782705,-0.262101410916816
9.410421286031042,-0.11243764495572234
9.443791574279379,0.08434552069919231
9.477161862527716,0.25232489098989885
9.510532150776053,0.32381207117759264
9.543902439024391,0.2690649797550343
9.577272727272728,0.1107128044507425
9.610643015521065,-0.08401738966149293
9.644013303769402,-0.2304032944054102
9.677383592017739,-0.26128024463544014
9.710753880266076,-0.15511953259163133
9.744124168514412,0.05489838210959334
9.77749445676275,0.2947239263785229
9.810864745011086,0.48014433383939653
9.844235033259423,0.5508254692665323
9.87760532150776,0.492645385775055
9.910975609756099,0.3387493796533232
9.944345898004435,0.14992189956198432
9.977716186252772,-0.015167080632424328
10.01108647450111,-0.12469049590368621
10.044456762749446,-0.18155660999569162
10.077827050997783,-0.21221206715253996
10.11119733924612,-0.24461968202923454
10.144567627494457,-0.2892410346983276
10.177937915742794,-0.3343018647086941
10.21130820399113,-0.3574444884111572
10.244678492239467,-0.34549496039021454
10.278048780487804,-0.30874971514666044
10.311419068736143,-0.2792856873946544
10.34478935698448,-0.2926508596458846
10.378159645232817,-0.36303518866558804
10.411529933481154,-0.46706776731971406
10.44490022172949,-0.5474530890220749
10.478270509977827,-0.5368259153017604
10.511640798226164,-0.3906795393392149
10.545011086474501,-0.11262994580185286
10.578381374722838,0.2412190140868293
10.611751662971175,0.5814786857255814
10.645121951219512,0.8191893187612456
10.67849223946785,0.8983807477726364
10.711862527716187,0.8134497936563411
10.745232815964524,0.605636771199414
10.778603104212861,0.34292970860474764
10.811973392461198,0.09427685938069001
10.845343680709535,-0.09060520153184184
10.878713968957872,-0.1893872574651227
10.912084257206208,-0.20359223938559246
10.945454545454545,-0.14882305507070875
10.978824833702882,-0.045510155490823954
11.012195121951219,0.08548285633231702
11.045565410199556,0.22229781531971576
11.078935698447895,0.33997582768201595
11.112305986696231,0.4111156627417705
11.145676274944568,0.4115698149832374
11.179046563192905,0.3297664276826112
11.212416851441242,0.17507001764540464
11.245787139689579,-0.020182837860459803
11.279157427937916,-0.20807188474382068
11.312527716186253,-0.34062556977600805
11.34589800443459,-0.3877873467064648
11.379268292682926,-0.34990486939310916
11.412638580931263,-0.2583162852216255
11.4460088691796,-0.1625832672319305
11.479379157427939,-0.10931268885995712
11.512749445676276,-0.12210767076160566
11.546119733924613,-0.19225582364055918
11.57949002217295,-0.28474500935020086
11.612860310421286,-0.35643400625487714
11.646230598669623,-0.37689608651084133
11.67960088691796,-0.3412387658993168
11.712971175166297,-0.26884681673574223
11.746341463414634,-0.18980967728597598
11.77971175166297,-0.12728569700799933
11.813082039911308,-0.08567354112663152
11.846452328159646,-0.050611513416380774
11.879822616407983,2.4207930261297207e-05
11.91319290465632,0.08091291113050375
11.946563192904657,0.18864082221065986
11.979933481152994,0.30156948547463314
12.01330376940133,0.39026728696419544
12.046674057649668,0.43270895731167686
12.080044345898004,0.4257781909585602
12.113414634146341,0.38658481875724293
12.146784922394678,0.34270386907302514
12.180155210643015,0.3165524741817667
12.213525498891352,0.31230129249473376
12.24689578713969,0.31227714812133955
12.280266075388028,0.2847730956529869
12.313636363636364,0.19946211979529202
12.347006651884701,0.04315603496138461
12.380376940133038,-0.17114148207511706
12.413747228381375,-0.4056254520279799
12.447117516629712,-0.6086956752255521
12.480487804878049,-0.7310187105623198
12.513858093126386,-0.7406059043970913
12.547228381374723,-0.6319176634664484
12.58059866962306,-0.426767791097579
12.613968957871396,-0.1678585446784575
12.647339246119735,0.09217980954761065
12.680709534368072,0.30291841971989275
12.714079822616409,0.4268722845779531
12.747450110864746,0.447334060891994
12.780820399113082,0.37228656759187007
12.81419068736142,0.233375492681706
12.847560975609756,0.07913594587819611
12.880931263858093,-0.037206000462723994
12.91430155210643,-0.07306114645451088
12.947671840354767,-0.010700828652074338
12.981042128603104,0.134633695733814
13.014412416851442,0.3166441042775139
13.04778270509978,0.4708655295931015
13.081152993348116,0.5354861617820316
13.114523281596453,0.4733918141854986
13.14789356984479,0.2870722330365101
13.181263858093127,0.019649340992716997
13.214634146341464,-0.25969159750779164
13.2480044345898,-0.48081999587580293
13.281374722838137,-0.5979131442204673
13.314745011086474,-0.6036609894167839
13.348115299334811,-0.5262563680917485
13.381485587583148,-0.411676049957358
13.414855875831487,-0.30131494534468095
13.448226164079824,-0.2168435810269658
13.48159645232816,-0.15893055480528925
13.514966740576497,-0.11749825324174733
13.548337028824834,-0.08433899007324605
13.581707317073171,-0.05868272550309545
13.615077605321508,-0.04261079375456747
13.648447893569845,-0.03144817596322775
13.681818181818182,-0.008483644671766943
13.715188470066519,0.04954180891047766
13.748558758314855,0.15776956155928998
13.781929046563192,0.30841749827714265
13.815299334811531,0.46640515081046463
13.848669623059868,0.5803920807890675
13.882039911308205,0.6050530249635461
13.915410199556542,0.5233980933982705
13.948780487804878,0.357223861361917
13.982150776053215,0.15963642047804072
14.015521064301552,-0.007324365194235302
14.048891352549889,-0.0994366110819349
14.082261640798226,-0.10873310505464831
14.115631929046563,-0.06500799850878414
14.1490022172949,-0.01996903595804863
14.182372505543238,-0.021883450625131945
14.215742793791575,-0.09291506154177964
14.249113082039912,-0.2196826464429629
14.282483370288249,-0.3607604488842765
14.315853658536586,-0.4664071187029249
14.349223946784923,-0.5001462684244842
14.38259423503326,-0.4518081723268438
14.415964523281596,-0.33701073509508883
14.449334811529933,-0.18559448797955003
14.48270509977827,-0.02696336197983451
14.516075388026607,0.1192719620703808
14.549445676274944,0.2434208450544864
14.582815964523283,0.3391075158873922
14.61618625277162,0.3967209067980701
14.649556541019956,0.40313179697873924
14.682926829268293,0.34887450090526584
14.71629711751663,0.23795758670205283
14.749667405764967,0.0926540364500706
14.783037694013304,-0.05180233007118385
14.81640798226164,-0.16120356045279147
14.849778270509978,-0.21749573745945633
14.883148558758315,-0.2259540249838713
14.916518847006651,-0.20966175816930693
14.949889135254988,-0.1942362711521717
14.983259423503327,-0.19186703786242648
15.016629711751664,-0.19426238460051787
15.05,-0.17861319760044292
15.083370288248338,-0.1227089817032496
15.116740576496674,-0.019987191562852245
15.150110864745011,0.11423735655357084
15.183481152993348,0.2485473255341884
15.216851441241685,0.349517764785001
15.250221729490022,0.396348007813108
15.283592017738359,0.3887143429219112
15.316962305986696,0.34452394317504825
15.350332594235034,0.28922686590989305
15.383702882483371,0.24199579054679599
15.417073170731708,0.2052641854492542
15.450443458980045,0.1627140434746836
15.483813747228382,0.08734105785271673
15.517184035476719,-0.04325113067853175
15.550554323725056,-0.2310009933244073
15.583924611973393,-0.4489178252451025
15.61729490022173,-0.645459924651042
15.650665188470066,-0.7616306130483842
15.684035476718403,-0.7543395292340682
15.71740576496674,-0.6157153951365125
15.750776053215079,-0.3789383695430037
15.784146341463416,-0.10685886064966373
15.817516629711752,0.1322489013181543
15.85088691796009,0.29095820688875196
15.884257206208426,0.35878733690752296
15.917627494456763,0.3607639018598359
15.9509977827051,0.33984114741424293
15.984368070953437,0.33260862533923635
16.017738359201775,0.3507643466577811
16.05110864745011,0.3772418695902176
16.08447893569845,0.37786133029760544
16.117849223946784,0.32145279809568383
16.151219512195123,0.19778563102124616
16.184589800443458,0.024758182329212473
16.217960088691797,-0.15769168996135138
16.251330376940132,-0.3031710610727644
16.28470066518847,-0.3764803345658419
16.31807095343681,-0.3659585803694279
16.351441241685144,-0.2861250460504426
16.384811529933483,-0.17042386232230422
16.418181818181818,-0.05768854585344516
16.451552106430157,0.021904532872537717
16.48492239467849,0.0558612526207113
16.51829268292683,0.050390640974429524
16.551662971175165,0.024169859340110237
16.585033259423504,-0.001351651357405698
16.61840354767184,-0.0105068274008563
16.651773835920178,0.002188580491933812
16.685144124168513,0.03218905965735798
16.71851441241685,0.06818171986336538
16.75188470066519,0.09673126280613054
16.785254988913525,0.10718302290919023
16.818625277161864,0.09595664770760064
16.8519955654102,0.06886632829228051
16.885365853658538,0.039730375610187996
16.918736141906873,0.024509750545404146
16.95210643015521,0.03268539065719117
16.985476718403547,0.060104572294795336
17.018847006651885,0.08803643699046193
17.05221729490022,0.09063900740550045
17.08558758314856,0.048426877900291
17.118957871396898,-0.03878153908214221
17.152328159645233,-0.14690263304165183
17.18569844789357,-0.23479355214507516
17.219068736141907,-0.26165768948512164
17.252439024390245,-0.20686887690080233
