Time (s),Filtered Signal
0.0,-0.014334518512628321
0.03337000366703337,0.3087043047367064
0.06674000733406674,0.6239575843806641
0.1001100110011001,0.9137244599034777
0.13348001466813347,1.1472221676956602
0.16685001833516683,1.2876555458942796
0.2002200220022002,1.3060170998189373
0.2335900256692336,1.1940122993665976
0.26696002933626695,0.9688438962678111
0.3003300330033003,0.6672931629884588
0.33370003667033366,0.3326576922041352
0.36707004033736707,0.0018489819838643493
0.4004400440044004,-0.30089429156648184
0.4338100476714338,-0.56190892047081
0.4671800513384672,-0.7712323747059748
0.5005500550055005,-0.9171643393692537
0.5339200586725339,-0.986800366627696
0.5672900623395672,-0.9724535836785783
0.6006600660066006,-0.8795350014237144
0.634030069673634,-0.7302540291139883
0.6674000733406673,-0.5600093618494432
0.7007700770077008,-0.4076209822890088
0.7341400806747341,-0.3037124972275506
0.7675100843417675,-0.26186620174383796
0.8008800880088008,-0.2751041635335889
0.8342500916758342,-0.31772318848170855
0.8676200953428675,-0.35122746628610874
0.9009900990099009,-0.3332641674674363
0.9343601026769344,-0.22886510691833908
0.9677301063439677,-0.022582785042365595
1.001100110011001,0.2717994083898744
1.0344701136780343,0.6088581364883084
1.0678401173450678,0.9204127915659746
1.1012101210121013,1.1355376537559903
1.1345801246791345,1.2056609940015055
1.167950128346168,1.1244292866668286
1.2013201320132012,0.932413984849222
1.2346901356802347,0.7025297037996473
1.268060139347268,0.5108430998762864
1.3014301430143014,0.40494972149441727
1.3348001466813346,0.3842560447930678
1.368170150348368,0.40176320838633706
1.4015401540154016,0.38718780177408907
1.4349101576824348,0.2810762621341747
1.4682801613494683,0.06408590092892827
1.5016501650165015,-0.23226096243931607
1.535020168683535,-0.5382584810424541
1.5683901723505682,-0.7760175381185227
1.6017601760176017,-0.8928263873457805
1.6351301796846351,-0.8827941062320079
1.6685001833516684,-0.7873818194407225
1.7018701870187019,-0.6749811284823372
1.735240190685735,-0.6089043595031174
1.7686101943527686,-0.61824292936866
1.8019801980198018,-0.6849062712003615
1.8353502016868353,-0.7530093421452655
1.8687202053538687,-0.7564437959437028
1.902090209020902,-0.6515808688424578
1.9354602126879354,-0.4391037153897367
1.9688302163549687,-0.16388993236903165
2.002200220022002,0.10733909337133042
2.0355702236890356,0.31945977921722357
2.0689402273560686,0.4561965656792016
2.102310231023102,0.5465193270243404
2.1356802346901356,0.6459633790127157
2.169050238357169,0.8017927174377018
2.2024202420242025,1.0199853456288006
2.2357902456912355,1.2520210790437727
2.269160249358269,1.4099929339682817
2.3025302530253025,1.4042368990037593
2.335900256692336,1.1858330122274174
2.369270260359369,0.7732609732266118
2.4026402640264024,0.25000684406000884
2.436010267693436,-0.265799559528446
2.4693802713604693,-0.6651200091981162
2.502750275027503,-0.8849005305931418
2.536120278694536,-0.9228253981282396
2.5694902823615693,-0.8267435829239915
2.6028602860286028,-0.6677254699608576
2.636230289695636,-0.5114549911841371
2.6696002933626692,-0.40004678354835654
2.7029702970297027,-0.3484570488034105
2.736340300696736,-0.3518061681635572
2.7697103043637696,-0.3961828786726449
2.803080308030803,-0.46653694233686577
2.836450311697836,-0.5490121506990823
2.8698203153648696,-0.6287833791890788
2.903190319031903,-0.6865120346464302
2.9365603226989365,-0.6967972966882706
2.96993032636597,-0.6310844459592954
3.003300330033003,-0.4658149206357545
3.0366703337000365,-0.19419970516643956
3.07004033736707,0.16282246896512087
3.1034103410341034,0.5528097622160937
3.1367803447011364,0.9006422116255659
3.17015034836817,1.130476359803494
3.2035203520352034,1.1940632603137227
3.236890355702237,1.0929982927142239
3.2702603593692703,0.8826391886681195
3.3036303630363033,0.6527218560918397
3.3370003667033368,0.49105135535694333
3.3703703703703702,0.4460258721417207
3.4037403740374037,0.5056669325889063
3.4371103777044367,0.6036596475938535
3.47048038137147,0.6500475320711505
3.5038503850385037,0.5722968157673872
3.537220388705537,0.34763638620665777
3.5705903923725706,0.012267736277815211
3.6039603960396036,-0.3554364142187056
3.637330399706637,-0.6683877003711483
3.6707004033736705,-0.864731427937462
3.704070407040704,-0.9276440709183401
3.7374404107077375,-0.8845138064667513
3.7708104143747705,-0.7890423453485857
3.804180418041804,-0.6965477332006423
3.8375504217088374,-0.6435964672736553
3.870920425375871,-0.6388414600653859
3.904290429042904,-0.6657571516533438
3.9376604327099374,-0.6932269172129157
3.971030436376971,-0.6883911231405131
4.004400440044004,-0.6273696562020714
4.037770443711038,-0.5016826785707456
4.071140447378071,-0.3198343070767373
4.104510451045105,-0.10422213496289207
4.137880454712137,0.11598870642773319
4.171250458379171,0.3143575609156253
4.204620462046204,0.47594491112398446
4.237990465713238,0.6016486924809807
4.271360469380271,0.7056025859619826
4.304730473047305,0.8061488473032961
4.338100476714338,0.9142086839146675
4.3714704803813715,1.0245479217647286
4.404840484048405,1.1143980791934436
4.438210487715438,1.1506004198033206
4.471580491382471,1.1025230366493928
4.5049504950495045,0.9552865398799342
4.538320498716538,0.7174967686624334
4.571690502383571,0.4198938373823017
4.605060506050605,0.10527280149989537
4.638430509717638,-0.18590351622235082
4.671800513384672,-0.4275656732202524
4.705170517051705,-0.61220335752971
4.738540520718738,-0.7457414052551147
4.771910524385771,-0.8369110118034625
4.805280528052805,-0.8880290971834504
4.838650531719838,-0.893102794255782
4.872020535386872,-0.8444934863283222
4.905390539053905,-0.7438282218446461
4.938760542720939,-0.6098376761715227
4.972130546387972,-0.47713025761393807
5.005500550055006,-0.3847746896652783
5.038870553722038,-0.35923677096221923
5.072240557389072,-0.39972864622615023
5.105610561056105,-0.4736540215852351
5.138980564723139,-0.5257337112550029
5.172350568390172,-0.4983813783608665
5.2057205720572055,-0.3555809393465912
5.239090575724239,-0.1002516575528475
5.272460579391272,0.22293803089075123
5.305830583058306,0.5416392507958975
5.3392005867253385,0.7818579997525016
5.372570590392372,0.8954450208873062
5.405940594059405,0.8774076412937593
5.439310597726439,0.7656683435366869
5.472680601393472,0.623717669687194
5.506050605060506,0.5141828191762885
5.539420608727539,0.4748668151720171
5.572790612394573,0.5067185334509663
5.606160616061606,0.5770092569221389
5.63953061972864,0.6343391306506436
5.672900623395672,0.6283111874587526
5.706270627062706,0.5268276262557291
5.739640630729739,0.32654759110406717
5.773010634396773,0.05482386134121977
5.806380638063806,-0.2367990918464615
5.83975064173084,-0.4862800273785987
5.873120645397873,-0.6391894696074216
5.9064906490649065,-0.6664504513630795
5.93986065273194,-0.5756374152828079
5.9732306563989725,-0.4106980463350405
6.006600660066006,-0.23862808440119104
6.0399706637330395,-0.12681569875325963
6.073340667400073,-0.11908999834283875
6.106710671067106,-0.21971438310253874
6.14008067473414,-0.3918399442642734
6.173450678401173,-0.5713346205541117
6.206820682068207,-0.6908011156819069
6.24019068573524,-0.7045247261083718
6.273560689402273,-0.6046775461350483
6.306930693069306,-0.4225051719876173
6.34030069673634,-0.21414000450314385
6.373670700403373,-0.036851173932474376
6.407040704070407,0.07449268726889788
6.44041070773744,0.12090781359082428
6.473780711404474,0.13693297350390735
6.507150715071507,0.17326535407485535
6.540520718738541,0.2717353687326297
6.573890722405573,0.44348553622202197
6.607260726072607,0.6601170915870649
6.64063072973964,0.8621592224108082
6.6740007334066735,0.981727480813574
6.707370737073707,0.969901105276138
6.7407407407407405,0.8170326384838218
6.774110744407774,0.557121771593161
6.807480748074807,0.25441027835114816
6.840850751741841,-0.021662537542198122
6.8742207554088735,-0.2218566721452273
6.907590759075907,-0.3318311791600646
6.94096076274294,-0.3706193072332555
6.974330766409974,-0.37532704760325486
7.007700770077007,-0.3808063648335527
7.041070773744041,-0.4045017513359152
7.074440777411074,-0.4428021193094467
7.107810781078108,-0.4785411752536203
7.141180784745141,-0.49368429226143995
7.174550788412174,-0.4796656042727224
7.207920792079207,-0.4405812819299892
7.241290795746241,-0.38920169155771916
7.274660799413274,-0.33940636123551843
7.308030803080308,-0.2993627360243278
7.341400806747341,-0.2680361103072128
7.3747708104143745,-0.2353538746582991
7.408140814081408,-0.1851503012972278
7.4415108177484415,-0.10001618200659043
7.474880821415475,0.03263722491463596
7.5082508250825075,0.2144703765897839
7.541620828749541,0.4321435446770964
7.5749908324165744,0.6576309986425942
7.608360836083608,0.8540785882813071
7.641730839750641,0.9859709101577878
7.675100843417675,1.030053313547091
7.708470847084708,0.9826160416623596
7.741840850751742,0.8600131072607864
7.775210854418775,0.6921016858897865
7.808580858085808,0.5112698557590968
7.841950861752841,0.34146459580486405
7.875320865419875,0.1914330100247457
7.908690869086908,0.054511690806293145
7.942060872753942,-0.08530033718150837
7.975430876420975,-0.2435037011026556
8.008800880088009,-0.4252502997222311
8.042170883755041,-0.6192929060698047
8.075540887422076,-0.7985043581209367
8.108910891089108,-0.9277103091297751
8.142280894756142,-0.976802877895203
8.175650898423175,-0.9343566457510625
8.20902090209021,-0.8156358005037443
8.242390905757242,-0.6602531256775527
8.275760909424275,-0.5189128326987784
8.309130913091309,-0.43397165275643695
8.342500916758341,-0.422210819693464
8.375870920425376,-0.46794456088262926
8.409240924092408,-0.5300989555339155
8.442610927759443,-0.5602291145425484
8.475980931426475,-0.5229953910785654
8.50935093509351,-0.40931271347198883
8.542720938760542,-0.23605941097438218
8.576090942427575,-0.03310975712910576
8.60946094609461,0.1749800849937061
8.642830949761642,0.3824798799257355
8.676200953428676,0.6034715489237273
8.709570957095709,0.859106940056913
8.742940960762743,1.1572751851908645
8.776310964429776,1.4753801410685856
8.80968096809681,1.756395113400228
8.843050971763843,1.9227067363538537
8.876420975430875,1.9038049819202771
8.90979097909791,1.6664779922809219
8.943160982764942,1.233630732212646
8.976530986431976,0.6819735752698092
9.009900990099009,0.11811736373454183
9.043270993766043,-0.35736931727788823
9.076640997433076,-0.6827412330426218
9.11001100110011,-0.8511024534280761
9.143381004767143,-0.9039591397123878
9.176751008434175,-0.9066168210351956
9.21012101210121,-0.9171460419731121
9.243491015768242,-0.9624045275596304
9.276861019435277,-1.0305692042116725
9.31023102310231,-1.0820218524169316
9.343601026769344,-1.0725714219266353
9.376971030436376,-0.9779932780754464
9.41034103410341,-0.8086094329208453
9.443711037770443,-0.6071793233422369
9.477081041437476,-0.43085554636959655
9.51045104510451,-0.32521350499400575
9.543821048771543,-0.3021637567552495
9.577191052438577,-0.3320790389286112
9.61056105610561,-0.35425263694808073
9.643931059772644,-0.30162706317127114
9.677301063439677,-0.1293519142376005
9.710671067106711,0.1649186576651329
9.744041070773743,0.5373310881247666
9.777411074440776,0.9118426529304428
9.81078107810781,1.2057465368659048
9.844151081774843,1.3563766283617396
9.877521085441877,1.3391232811885292
9.91089108910891,1.1712364975854235
9.944261092775944,0.9018383880120983
9.977631096442977,0.5935182678667776
10.011001100110011,0.3030650053463357
10.044371103777044,0.0679078723793581
10.077741107444076,-0.09842721105742672
10.11111111111111,-0.20247594093903132
10.144481114778143,-0.26220118188540403
10.177851118445178,-0.2980673363713859
10.21122112211221,-0.3270613964310168
10.244591125779245,-0.36036661736878084
10.277961129446277,-0.4031335768806311
10.311331133113312,-0.45418347562929573
10.344701136780344,-0.50486795201806
10.378071140447377,-0.5386206012804513
10.411441144114411,-0.5340039600754084
10.444811147781444,-0.4727691119303349
10.478181151448478,-0.35083565275772643
10.51155115511551,-0.18638661020230307
10.544921158782545,-0.018454524988250825
10.578291162449577,0.10683956366602444
10.611661166116612,0.1580588271165893
10.645031169783644,0.13740013488806807
10.678401173450677,0.08487546232638316
10.711771177117711,0.06217466073370212
10.745141180784744,0.12193799305380977
10.778511184451778,0.2778514310798263
10.81188118811881,0.4925678765234007
10.845251191785845,0.6918827979070975
10.878621195452878,0.7991373292319939
10.911991199119912,0.7719164234385969
10.945361202786945,0.6211795514474584
10.978731206453979,0.4026046868564093
11.012101210121012,0.18564210543978368
11.045471213788044,0.018224238744232128
11.078841217455079,-0.09313704854591401
11.112211221122111,-0.17788727619582242
11.145581224789145,-0.27579177477618805
11.178951228456178,-0.40768289651292977
11.212321232123212,-0.5601409768660327
11.245691235790245,-0.6922747403618393
11.27906123945728,-0.7592760246237832
11.312431243124312,-0.738124306261788
11.345801246791344,-0.6408020744440563
11.379171250458379,-0.5087177509768126
11.412541254125411,-0.39294921317855125
11.445911257792446,-0.331849712844818
11.479281261459478,-0.33714391719504533
11.512651265126513,-0.39327753226214496
11.546021268793545,-0.46709756405936376
11.57939127246058,-0.5205728233526785
11.612761276127612,-0.5200979512125993
11.646131279794645,-0.44037404534178415
11.67950128346168,-0.26537838699436794
11.712871287128712,0.009514107022074017
11.746241290795746,0.3723612912461507
11.779611294462779,0.7886903391507442
11.812981298129813,1.2001374565050285
11.846351301796846,1.5327548114448173
11.87972130546388,1.7157636758477248
11.913091309130913,1.7052841754270804
11.946461312797945,1.5029450520310674
11.97983131646498,1.1594880638224878
12.013201320132012,0.7593131938051191
12.046571323799046,0.39086291582997
12.079941327466079,0.11515122266048389
12.113311331133113,-0.053626629134546036
12.146681334800146,-0.14686567739352374
12.18005133846718,-0.22097402779394915
12.213421342134213,-0.32782869025928685
12.246791345801245,-0.4903248650118621
12.28016134946828,-0.6936143782167908
12.313531353135312,-0.8942435017208427
12.346901356802347,-1.0408400804599034
12.38027136046938,-1.095667478970388
12.413641364136414,-1.047837968496578
12.447011367803446,-0.9144889969006651
12.48038137147048,-0.7321876265240309
12.513751375137513,-0.5441648379160138
12.547121378804546,-0.38870035537751013
12.58049138247158,-0.2912861590142638
12.613861386138613,-0.2603978023193368
12.647231389805647,-0.28566297779827343
12.68060139347268,-0.338234468618771
12.713971397139714,-0.37487322895931896
12.747341400806746,-0.3475942605715886
12.78071140447378,-0.2185949907877556
12.814081408140813,0.023604883855684853
12.847451411807846,0.35386180769818765
12.88082141547488,0.712601729806313
12.914191419141913,1.022556421199739
12.947561422808947,1.2150217038747182
12.98093142647598,1.254802470478097
13.014301430143014,1.1521589090056201
13.047671433810047,0.9555275193007008
13.081041437477081,0.7282294049372482
13.114411441144114,0.5206920810753395
13.147781444811146,0.351978109732025
13.18115144847818,0.20910699113104655
13.214521452145213,0.06281284746941582
13.247891455812248,-0.11022683686388736
13.28126145947928,-0.31114472841992247
13.314631463146315,-0.5164430587956851
13.348001466813347,-0.6887463908101531
13.381371470480381,-0.7932015389981301
13.414741474147414,-0.8103973606130592
13.448111477814447,-0.7405547742673515
13.481481481481481,-0.5997811198319593
13.514851485148514,-0.41324361370112306
13.548221488815548,-0.20999617451139066
13.58159149248258,-0.020815357914354262
13.614961496149615,0.12322177599025559
13.648331499816647,0.19474147292199595
13.681701503483682,0.17778333029106863
13.715071507150714,0.07661537961181471
13.748441510817747,-0.07943828769186939
13.781811514484781,-0.23965151086853023
13.815181518151814,-0.3449889505747584
13.848551521818848,-0.34697469441066053
13.88192152548588,-0.22533372595714732
13.915291529152915,0.0029701351143834142
13.948661532819948,0.2877355031679394
13.982031536486982,0.5618264177936245
14.015401540154015,0.7637717231887704
14.048771543821047,0.8576845407836731
14.082141547488082,0.8424224999958783
14.115511551155114,0.7465279837837312
14.148881554822148,0.611818071533219
14.182251558489181,0.4735380256180147
14.215621562156215,0.34629579763726387
14.248991565823248,0.22195080590099203
14.282361569490282,0.07975674344898663
14.315731573157315,-0.0968406281372872
14.349101576824348,-0.3055481011367506
14.382471580491382,-0.5205252681259227
14.415841584158414,-0.7006362777754201
14.449211587825449,-0.8071123440398325
14.482581591492481,-0.8219542784427305
14.515951595159516,-0.7574444680106137
14.549321598826548,-0.6512287269756373
14.582691602493583,-0.5487924563368406
14.616061606160615,-0.48201406186966533
14.649431609827648,-0.4549823662004733
14.682801613494682,-0.4446906119991041
14.716171617161715,-0.4161841818148313
14.749541620828749,-0.34360324198525655
14.782911624495782,-0.22510385396425703
14.816281628162816,-0.08315835038749629
14.849651631829849,0.04962959162424762
14.883021635496883,0.1504435863421566
14.916391639163916,0.21983910105392854
14.94976164283095,0.28093222826675485
14.983131646497982,0.36489798061015766
15.016501650165015,0.491558247286479
15.04987165383205,0.6563888147186991
15.083241657499082,0.8310420272388082
15.116611661166116,0.9763529222995676
15.149981664833149,1.0597996242283638
15.183351668500183,1.067539926170986
15.216721672167216,1.0051479738868374
15.25009167583425,0.8882688777580854
15.283461679501283,0.7302463155372578
15.316831683168315,0.5350173888976003
15.35020168683535,0.2997021407629203
15.383571690502382,0.02483271941675775
15.416941694169417,-0.27494163568321106
15.45031169783645,-0.5674397556793672
15.483681701503484,-0.8103079328560296
15.517051705170516,-0.9661176831955681
15.55042170883755,-1.0174399537549224
15.583791712504583,-0.9740490707947494
15.617161716171616,-0.8688167648388229
15.65053171983865,-0.7448109339517709
15.683901723505683,-0.6399678197231171
15.717271727172717,-0.5755948811339741
15.75064173083975,-0.5518560035281692
15.784011734506784,-0.54997455063698
15.817381738173816,-0.5392590314547467
15.85075174184085,-0.48719503442067535
15.884121745507883,-0.3711042121992318
15.917491749174916,-0.18887965213349217
15.95086175284195,0.03544084208278743
15.984231756508983,0.2558675557773004
16.017601760176017,0.4201055268046807
16.05097176384305,0.4924980566046984
16.084341767510082,0.4743733690577973
16.117711771177117,0.41031143127235703
16.15108177484415,0.37370180522846735
16.184451778511182,0.43485449526033937
16.217821782178216,0.6249808510267763
16.25119178584525,0.9137425871378159
16.284561789512285,1.213417696498043
16.317931793179316,1.4105334766172317
16.35130179684635,1.412050855496394
16.384671800513384,1.1852133953667507
16.41804180418042,0.7725359869131685
16.45141180784745,0.275084623531034
16.484781811514484,-0.18787247578969843
16.51815181518152,-0.5242243959177206
16.55152181884855,-0.6996151942852199
16.584891822515583,-0.7416294803817127
16.618261826182618,-0.7186488063342592
16.651631829849652,-0.7053855080053285
16.685001833516683,-0.7513317366485931
16.718371837183717,-0.8647169783798113
16.75174184085075,-1.0157681248741923
16.785111844517782,-1.154027435405575
16.818481848184817,-1.2296057827898212
16.85185185185185,-1.2091722271500374
16.885221855518886,-1.0825303478176378
16.918591859185916,-0.8611585610613198
16.95196186285295,-0.5728381257329306
16.985331866519985,-0.25554830611798807
17.01870187018702,0.049031247969208686
17.05207187385405,0.30380001723705463
17.085441877521085,0.4864585774049533
17.11881188118812,0.5984864929494181
17.15218188485515,0.6672210192966731
17.185551888522184,0.7366508234081975
17.21892189218922,0.8478890655843002
17.252291895856253,1.0169050294334308
17.285661899523284,1.220661343259123
17.319031903190318,1.4003853140864655
17.352401906857352,1.4828513287188845
17.385771910524387,1.4112443254004905
