Time (s),Filtered Signal
0.0,-0.011530197621704855
0.03337008452774715,0.3209705125912329
0.0667401690554943,0.5723119526282718
0.10011025358324147,0.6899482586430602
0.1334803381109886,0.6664039245354317
0.16685042263873576,0.5372261898664021
0.20022050716648293,0.3626178531407918
0.23359059169423008,0.2019002126875183
0.2669606762219772,0.09216193534835825
0.30033076074972437,0.03936736357981766
0.3337008452774715,0.023849549643792513
0.36707092980521866,0.015694243204456552
0.40044101433296586,-0.0082442258230398
0.433811098860713,-0.053808131538459626
0.46718118338846015,-0.10990405446452894
0.5005512679162073,-0.1586318760085952
0.5339213524439544,-0.18906205003258686
0.5672914369717016,-0.20658070149070157
0.6006615214994487,-0.23196629864747226
0.6340316060271959,-0.2899184344880237
0.667401690554943,-0.3927931937665949
0.7007717750826902,-0.5284693155276029
0.7341418596104373,-0.6596447303073232
0.7675119441381845,-0.7361327052837608
0.8008820286659317,-0.7149206507808463
0.8342521131936789,-0.5785907918570575
0.867622197721426,-0.34346996736547075
0.9009922822491732,-0.054085143677989354
0.9343623667769203,0.23283998843643766
0.9677324513046675,0.46717316814175963
1.0011025358324146,0.6191615143549071
1.0344726203601617,0.6840484380385751
1.0678427048879089,0.6780766695282492
1.101212789415656,0.6295829612901456
1.1345828739434032,0.5693329041059735
1.1679529584711503,0.5227126494765721
1.2013230429988975,0.5045174729685977
1.2346931275266446,0.5161193143795009
1.2680632120543918,0.5449568041177117
1.301433296582139,0.5668454771315908
1.334803381109886,0.5516071728331073
1.3681734656376332,0.47155445903765303
1.4015435501653803,0.31087165394869914
1.4349136346931275,0.07286912650535056
1.4682837192208746,-0.21775263722598776
1.5016538037486218,-0.5190189361456569
1.535023888276369,-0.7814035073590138
1.568393972804116,-0.9604238036836472
1.6017640573318634,-1.0283003483506343
1.6351341418596106,-0.9810001031065997
1.6685042263873577,-0.8383381855754122
1.7018743109151049,-0.6371192379156887
1.735244395442852,-0.4198395173924514
1.7686144799705992,-0.22312571753952404
1.8019845644983463,-0.0699021561269608
1.8353546490260935,0.032752860015087044
1.8687247335538406,0.0908086890806219
1.9020948180815878,0.11807357250265321
1.935464902609335,0.1311116716104572
1.968834987137082,0.14550729089029107
2.002205071664829,0.17332451162664175
2.0355751561925763,0.22116091812465413
2.0689452407203235,0.28867866131746117
2.1023153252480706,0.36815757344238836
2.1356854097758178,0.44571956372308774
2.169055494303565,0.5043296017533921
2.202425578831312,0.5279748743033141
2.235795663359059,0.5060539542088184
2.2691657478868064,0.43701271529269897
2.3025358324145535,0.3303317314479294
2.3359059169423007,0.20592569112585282
2.369276001470048,0.09013174042447498
2.402646085997795,0.008237908620370587
2.436016170525542,-0.024917171593398915
2.4693862550532892,-0.012954415209963245
2.5027563395810364,0.019569239005637853
2.5361264241087835,0.033180920867279064
2.5694965086365307,-0.012328220143551546
2.602866593164278,-0.14011911563455975
2.636236677692025,-0.342458819751205
2.669606762219772,-0.5780672562794255
2.7029768467475193,-0.7837279723624454
2.7363469312752664,-0.8966996584474765
2.7697170158030135,-0.8788103440318557
2.8030871003307607,-0.7315527231693137
2.836457184858508,-0.4952378398894476
2.869827269386255,-0.23259778885903654
2.903197353914002,-0.004399178722206528
2.9365674384417493,0.15202756818040988
2.9699375229694964,0.23245594496807886
3.0033076074972436,0.26079500999613836
3.0366776920249907,0.2734496862168079
3.070047776552738,0.30114275225180404
3.103417861080485,0.35620110235406044
3.136787945608232,0.42961001342571414
3.1701580301359793,0.49727372218110283
3.203528114663727,0.531378793340774
3.236898199191474,0.5117711283884976
3.270268283719221,0.43348595945937957
3.3036383682469683,0.3087598843131091
3.3370084527747155,0.16380038487407914
3.3703785373024626,0.03172380502631127
3.4037486218302098,-0.05650990939143508
3.437118706357957,-0.08122084715067612
3.470488790885704,-0.041098514611932875
3.503858875413451,0.04397029030435373
3.5372289599411983,0.13623391580497743
3.5705990444689455,0.19013463576748404
3.6039691289966926,0.167235766296121
3.63733921352444,0.05142495168755779
3.670709298052187,-0.14173477572996762
3.704079382579934,-0.3665577229495296
3.7374494671076812,-0.5608100312273082
3.7708195516354284,-0.6671043601456861
3.8041896361631755,-0.6538300312383992
3.8375597206909227,-0.526806721211079
3.87092980521867,-0.3264804564109194
3.904299889746417,-0.11171271789176644
3.937669974274164,0.06288533990546334
3.9710400588019112,0.16636192763523822
4.004410143329658,0.19954810656833732
4.0377802278574055,0.18917045951661476
4.071150312385153,0.17162189812903833
4.1045203969129,0.17452595405607277
4.137890481440647,0.20470845041973196
4.171260565968394,0.24757330919705564
4.204630650496141,0.2770648652127246
4.238000735023888,0.270344026348491
4.2713708195516356,0.21951076345273107
4.304740904079383,0.13490592493080655
4.33811098860713,0.03931086112732658
4.371481073134877,-0.043003450677579484
4.404851157662624,-0.0964107040636703
4.438221242190371,-0.11865515953126031
4.471591326718118,-0.11909719473170781
4.504961411245866,-0.11277157191768865
4.538331495773613,-0.11394712414654797
4.57170158030136,-0.13199405555306692
4.605071664829107,-0.17028489346390843
4.638441749356854,-0.22707005316476858
4.671811833884601,-0.2966894437051316
4.7051819184123485,-0.3700852809750868
4.738552002940096,-0.43471649170832816
4.771922087467843,-0.4748740585535983
4.80529217199559,-0.4735397540659254
4.838662256523337,-0.4162156325179861
4.872032341051084,-0.29592692315026975
4.905402425578831,-0.11752966211831338
4.9387725101065785,0.10081305581463154
4.972142594634326,0.33031488166172895
5.005512679162073,0.5381342722234354
5.03888276368982,0.6958460899489814
5.072252848217567,0.7868175988958399
5.105622932745314,0.8096893013625178
5.138993017273061,0.7766145538516868
5.1723631018008085,0.7070820310431052
5.205733186328556,0.6200679885900872
5.239103270856303,0.5279621442638587
5.27247335538405,0.43473739934523686
5.305843439911797,0.338625603872059
5.339213524439544,0.23726800782687593
5.372583608967291,0.13215058892804527
5.4059536934950385,0.029700016135333525
5.439323778022786,-0.06164953136673723
5.472693862550533,-0.1368612353223326
5.50606394707828,-0.19920151332838415
5.539434031606027,-0.2617361259883412
5.572804116133774,-0.34392332164559236
5.606174200661521,-0.4639080935467629
5.6395442851892685,-0.6290676255644757
5.672914369717016,-0.8284760751543571
5.706284454244763,-1.0308223211453564
5.73965453877251,-1.1897961567673605
5.773024623300257,-1.2563477585563647
5.806394707828004,-1.1943471255675182
5.839764792355751,-0.9942272424061152
5.873134876883499,-0.6792518269274487
5.906504961411246,-0.3013957306072951
5.939875045938993,0.07234475059838301
5.97324513046674,0.37869684745674087
6.006615214994487,0.5754547493175155
6.039985299522234,0.6516031705459038
6.073355384049981,0.6272911792064438
6.106725468577729,0.5445781577366535
6.140095553105476,0.45302504842212044
6.173465637633223,0.39536224765908623
6.20683572216097,0.39736352510211875
6.240205806688717,0.4636146127660773
6.273575891216464,0.5786145323802582
6.3069459757442115,0.711690074518698
6.340316060271959,0.8244820179990476
6.373686144799706,0.880231837141233
6.407056229327454,0.8537191543841822
6.440426313855201,0.7394587729727851
6.473796398382948,0.5548382571597983
6.507166482910695,0.3356889787265974
6.540536567438442,0.12466833569359612
6.5739066519661895,-0.04356220301471119
6.607276736493937,-0.15429715037589006
6.640646821021684,-0.21677139940193804
6.674016905549431,-0.2586368354335376
6.707386990077178,-0.31356384874340326
6.740757074604925,-0.4071433957685378
6.774127159132672,-0.5462709617757887
6.8074972436604195,-0.7153186130015972
6.840867328188167,-0.8799631772245137
6.874237412715914,-0.9974161238353795
6.907607497243661,-1.0301391982621169
6.940977581771408,-0.9589056804436202
6.974347666299155,-0.7906843452190737
7.007717750826902,-0.5579718437533103
7.0410878353546495,-0.30906604841621643
7.074457919882397,-0.09243369909638789
7.107828004410144,0.05897125210296814
7.141198088937891,0.13735129562917844
7.174568173465638,0.16007936027269437
7.207938257993385,0.16052038956665987
7.241308342521132,0.17376133237822566
7.27467842704888,0.22310264675189662
7.308048511576627,0.3124616480899441
7.341418596104374,0.42715126530696945
7.374788680632121,0.5419693141930958
7.408158765159868,0.6325789502577294
7.441528849687615,0.6850179704182034
7.4748989342153624,0.6993527141000391
7.50826901874311,0.6864068263382646
7.541639103270857,0.6596987998908321
7.575009187798604,0.6267106113797493
7.608379272326351,0.5836224158747505
7.641749356854098,0.5159095122541479
7.675119441381845,0.4045950509351109
7.7084895259095925,0.23555351743995687
7.74185961043734,0.007964093666208288
7.775229694965087,-0.2616865474860166
7.808599779492834,-0.5418566841324092
7.841969864020581,-0.7937109779102691
7.875339948548328,-0.9814510193565015
7.908710033076075,-1.0813967244641052
7.9420801176038225,-1.086761319168346
7.97545020213157,-1.0070175489784639
8.008820286659317,-0.862939656963868
8.042190371187063,-0.6798219409502679
8.075560455714811,-0.48146034878396626
8.108930540242557,-0.28640410128476756
8.142300624770305,-0.10653080211809213
8.175670709298052,0.05290850811757108
8.2090407938258,0.1925502282946334
8.242410878353546,0.31753668898581844
8.275780962881294,0.43501441194484763
8.30915104740904,0.5503674152853879
8.342521131936788,0.6631467193745485
8.375891216464534,0.7646720902223062
8.409261300992283,0.8391973918621751
8.442631385520029,0.8690232343275255
8.476001470047777,0.8417446447147924
8.509371554575523,0.7563062767191473
8.542741639103271,0.6247669931985326
8.57611172363102,0.4686513117839679
8.609481808158765,0.31141151073130224
8.642851892686513,0.1703921287620711
8.67622197721426,0.05183255058227171
8.709592061742008,-0.04911605785184636
8.742962146269754,-0.14379091140376785
8.776332230797502,-0.24333090556313544
8.809702315325248,-0.353148486027404
8.843072399852996,-0.4709170032134131
8.876442484380743,-0.5884059076954276
8.90981256890849,-0.6954481316398613
8.943182653436237,-0.7833894876119855
8.976552737963985,-0.8460514947395098
9.009922822491731,-0.8780952962023191
9.04329290701948,-0.8725719006728567
9.076662991547225,-0.8202161084593308
9.110033076074973,-0.7121586434390856
9.14340316060272,-0.5456085085468958
9.176773245130468,-0.32984616608968786
9.210143329658214,-0.08885388803407868
9.243513414185962,0.14216302419095964
9.276883498713708,0.3264624589753512
9.310253583241456,0.43854029265071814
9.343623667769203,0.47467130982215333
9.37699375229695,0.4559685579270142
9.410363836824697,0.42136501339883714
9.443733921352445,0.4122398063306494
9.477104005880191,0.4545621117189077
9.51047409040794,0.5463831615838418
9.543844174935685,0.6569915314871186
9.577214259463434,0.7392848817341483
9.61058434399118,0.7507857981642061
9.643954428518928,0.6740987665011411
9.677324513046674,0.5269781541443702
9.710694597574422,0.3563452473877371
9.744064682102168,0.2179683952615258
9.777434766629916,0.15066736612426268
9.810804851157663,0.157153474467209
9.84417493568541,0.20102053166341777
9.877545020213157,0.22193600062857727
9.910915104740905,0.16235393246719962
9.944285189268651,-0.006476505972028867
9.9776552737964,-0.27092747481561075
10.011025358324146,-0.5793476396730339
10.044395442851894,-0.8613813198320324
10.07776552737964,-1.0529915441447186
10.111135611907388,-1.116749839053381
10.144505696435134,-1.050651370176821
10.177875780962882,-0.8844613131292713
10.211245865490628,-0.6671494624028634
10.244615950018376,-0.4507222901847404
10.277986034546123,-0.27523989609409616
10.31135611907387,-0.15849262557091495
10.344726203601617,-0.09262374686239326
10.378096288129365,-0.04874563640465576
10.411466372657111,0.011260748855971843
10.44483645718486,0.11900751242960135
10.478206541712606,0.28521464087358234
10.511576626240354,0.4923369325495608
10.5449467107681,0.6978507708216624
10.578316795295848,0.8479289533815869
10.611686879823594,0.896929448762231
10.645056964351342,0.8253436291273729
10.678427048879088,0.6489817212541085
10.711797133406836,0.4153808644553118
10.745167217934583,0.1884526078682471
10.77853730246233,0.027075953637582816
10.811907386990077,-0.03437737184696763
10.845277471517825,0.003335655850214354
10.878647556045571,0.10573279507926768
10.91201764057332,0.2166423534581138
10.945387725101066,0.2761209050032534
10.978757809628814,0.23844333134310491
11.01212789415656,0.08534380286534432
11.045497978684308,-0.16838753374731333
11.078868063212054,-0.4779741859604391
11.112238147739802,-0.7797948447684618
11.145608232267548,-1.0082569284704241
11.178978316795297,-1.114073202901499
11.212348401323043,-1.0781824170420873
11.24571848585079,-0.9160545423549639
11.279088570378537,-0.6702798110733033
11.312458654906285,-0.39421519453098885
11.345828739434031,-0.13361583875260263
11.37919882396178,0.08586916645815718
11.412568908489526,0.26052571460787927
11.445938993017274,0.4004582138405318
11.47930907754502,0.5172013289954263
11.512679162072768,0.614332857252779
11.546049246600514,0.6858399452795201
11.579419331128262,0.7219799859328925
11.612789415656009,0.7179034592268562
11.646159500183757,0.6789794810664511
11.679529584711503,0.6192411118162485
11.71289966923925,0.5539810865332467
11.746269753766997,0.49133043855722186
11.779639838294745,0.42825336738486647
11.813009922822491,0.3534836043457693
11.84638000735024,0.2554746878256042
11.879750091877986,0.13035366062243925
11.913120176405734,-0.01493251444273089
11.94649026093348,-0.16590257284019863
11.979860345461228,-0.3078727880356326
12.013230429988974,-0.43261851115329036
12.046600514516722,-0.5402847656265721
12.079970599044469,-0.635502371943544
12.113340683572217,-0.7201997924490587
12.146710768099963,-0.7875911390769706
12.180080852627711,-0.8212366249274696
12.213450937155457,-0.8003515834714894
12.246821021683205,-0.7092022152452938
12.280191106210951,-0.5461807054331718
12.3135611907387,-0.32807313007843864
12.346931275266446,-0.08714240876468302
12.380301359794194,0.13804656805455529
12.41367144432194,0.3142203246696628
12.447041528849688,0.42251645503594665
12.480411613377434,0.4615988983545688
12.513781697905182,0.4442657303840471
12.547151782432929,0.3900691549895615
12.580521866960677,0.31789099356804956
12.613891951488423,0.2416659959484962
12.647262036016171,0.17020745194831904
12.680632120543917,0.10976134451929025
12.714002205071665,0.06671280187505686
12.747372289599411,0.0482160177591497
12.78074237412716,0.060013829127747956
12.814112458654908,0.10251452210136304
12.847482543182654,0.1674606394308187
12.880852627710402,0.23767927416444112
12.914222712238148,0.29125222033506104
12.947592796765896,0.309293845125188
12.980962881293642,0.28424833538240346
13.01433296582139,0.22445005787411185
13.047703050349137,0.15162781407116652
13.081073134876885,0.09111412590803149
13.114443219404631,0.058504312360398894
13.147813303932379,0.04930926921922958
13.181183388460125,0.037884822522825504
13.214553472987873,-0.011909594402471479
13.24792355751562,-0.12782311325511692
13.281293642043368,-0.3107108405439896
13.314663726571114,-0.5262704846633485
13.348033811098862,-0.7129201927020288
13.381403895626608,-0.8040689671236109
13.414773980154356,-0.7555132180919983
13.448144064682102,-0.5654573823253148
13.48151414920985,-0.2776997153555495
13.514884233737597,0.033633327989967335
13.548254318265345,0.2909323311456466
13.581624402793091,0.43987617028024417
13.614994487320839,0.4654552204150505
13.648364571848585,0.39216921341782796
13.681734656376333,0.2702838734407778
13.71510474090408,0.15508120714024748
13.748474825431828,0.08749595401489405
13.781844909959574,0.08263862498829291
13.815214994487322,0.12891572883994587
13.848585079015068,0.19645435024921704
13.881955163542816,0.25060775740547775
13.915325248070562,0.2651579977246687
13.94869533259831,0.2305693502979535
13.982065417126057,0.15489387900778037
14.015435501653805,0.057860121282312174
14.048805586181551,-0.038771107830390325
14.082175670709299,-0.12026373856355264
14.115545755237045,-0.1835859521097351
14.148915839764793,-0.23597592273463336
14.18228592429254,-0.28839118925776774
14.215656008820288,-0.3471315234028601
14.249026093348034,-0.4078022056695658
14.282396177875782,-0.45479979564085526
14.315766262403528,-0.4669749603367403
14.349136346931276,-0.4271194963924104
14.382506431459023,-0.33086668928803775
14.41587651598677,-0.1906109668164519
14.449246600514517,-0.03230103302942481
14.482616685042265,0.11360601950645213
14.515986769570011,0.22291017845519137
14.54935685409776,0.2853349350473077
14.582726938625505,0.3060506887497165
14.616097023153253,0.3011780355667606
14.649467107681,0.2901204636844409
14.682837192208748,0.2884285204898959
14.716207276736494,0.30370306873343533
14.749577361264242,0.3348972945597463
14.782947445791988,0.373797344289935
14.816317530319736,0.40731267493377016
14.849687614847483,0.420141920968121
14.88305769937523,0.39823234748824515
14.916427783902977,0.3332549371132187
14.949797868430725,0.22712238463684709
14.983167952958471,0.09439687284192541
15.01653803748622,-0.03959406509189952
15.049908122013965,-0.14562272358879658
15.083278206541713,-0.20073259533189192
15.11664829106946,-0.19802017971117117
15.150018375597208,-0.15173983505094146
15.183388460124954,-0.09474639544583575
15.216758544652702,-0.06814389501332023
15.250128629180448,-0.10634167960119165
15.283498713708196,-0.2230784109539949
15.316868798235943,-0.40413658687344384
15.35023888276369,-0.6101008222898442
15.383608967291437,-0.7884923767733948
15.416979051819185,-0.8907310282853731
15.450349136346931,-0.887456501867916
15.48371922087468,-0.7766500739786317
15.517089305402425,-0.5821629727983327
15.550459389930174,-0.34406029840772456
15.58382947445792,-0.10493860547638781
15.617199558985668,0.10279906310622608
15.650569643513414,0.26466976974640916
15.683939728041162,0.3847843553528921
15.717309812568908,0.4797425657089063
15.750679897096656,0.568223228417846
15.784049981624403,0.6603470927426971
15.81742006615215,0.7512499860481999
15.850790150679897,0.8218711740265957
15.884160235207645,0.8469192698290375
15.917530319735391,0.8065686075457096
15.95090040426314,0.6964659465078792
15.984270488790886,0.5313294834429488
16.017640573318634,0.34055122849009506
16.05101065784638,0.1580693996512894
16.084380742374126,0.011240957564775327
16.117750826901876,-0.08669496932488015
16.151120911429622,-0.1383127483634957
16.18449099595737,-0.15851780941646887
16.217861080485115,-0.16835195297510328
16.251231165012864,-0.18861051235806278
16.28460124954061,-0.23474003072117763
16.317971334068357,-0.3134633471695407
16.351341418596103,-0.4212497417233214
16.384711503123853,-0.5448808636380624
16.4180815876516,-0.6642810164827261
16.451451672179346,-0.757129631046722
16.484821756707092,-0.8039088066421209
16.51819184123484,-0.7917118043068825
16.551561925762588,-0.7157950881693069
16.584932010290334,-0.5791598081098142
16.61830209481808,-0.39146417893229046
16.65167217934583,-0.16849131026151024
16.685042263873576,0.06777040925295631
16.718412348401323,0.28976158091742116
16.75178243292907,0.46749381075177676
16.78515251745682,0.574966048522661
16.818522601984565,0.5985305570098111
16.85189268651231,0.5439297855884951
16.885262771040058,0.4381736122613547
16.918632855567807,0.3238714286369546
16.952002940095554,0.24664618218363313
16.9853730246233,0.23954513628296087
17.018743109151046,0.3103378288730237
17.052113193678796,0.43712333356115907
17.085483278206542,0.5746986599517864
17.11885336273429,0.6698351652478657
17.15222344726204,0.679868255567856
17.185593531789785,0.587521819909474
17.21896361631753,0.40631454478513374
17.252333700845277,0.1745909940465196
17.285703785373027,-0.05933673557149049
17.319073869900773,-0.25497075418367043
17.35244395442852,-0.39316704372679534
