Frequency (Hz),Amplitude
0.0,1.1944716012467456
0.020066889632107024,1.1945296778130075
0.04013377926421405,1.194703669787394
0.060200668896321065,1.1949928651796011
0.0802675585284281,1.1953960812723783
0.10033444816053512,1.1959116704877668
0.12040133779264213,1.196537528532997
0.14046822742474915,1.197271104760521
0.1605351170568562,1.198109414659617
0.1806020066889632,1.199049054381306
0.20066889632107024,1.2000862171841107
0.22073578595317725,1.201216711675445
0.24080267558528426,1.2024359817127026
0.2608695652173913,1.2037391278191312
0.2809364548494983,1.205120929962453
0.3010033444816054,1.206575871539271
0.3210702341137124,1.2080981644049036
0.34113712374581934,1.2096817747872888
0.3612040133779264,1.211320449923633
0.3812709030100334,1.2130077452610661
0.4013377926421405,1.214737052065671
0.42140468227424743,1.2165016252895384
0.4414715719063545,1.2182946115513906
0.4615384615384615,1.220109077093462
0.4816053511705685,1.2219380355851412
0.5016722408026756,1.2237744756524098
0.5217391304347826,1.2256113880208588
0.5418060200668896,1.2274417921695346
0.5618729096989966,1.2292587624018083
0.5819397993311036,1.231055453248906
0.6020066889632107,1.2328251241308381
0.6220735785953176,1.2345611632081812
0.6421404682274248,1.2362571103667197
0.6622073578595318,1.2379066792848377
0.6822742474916387,1.2395037785412797
0.7023411371237458,1.2410425317275566
0.7224080267558528,1.2425172965359135
0.7424749163879598,1.2439226827993486
0.7625418060200668,1.2452535694654143
0.7826086956521738,1.246505120490019
0.802675585284281,1.2476727996413879
0.8227424749163879,1.248752384207731
0.8428093645484949,1.2497399776048446
0.862876254180602,1.2506320208823067
0.882943143812709,1.2514253031284541
0.903010033444816,1.2521169707759137
0.923076923076923,1.2527045358100852
0.9431438127090299,1.2531858828836808
0.963210702341137,1.2535592753405616
0.983277591973244,1.2538233601518827
1.0033444816053512,1.2539771717674348
1.0234113712374582,1.2540201348843143
1.0434782608695652,1.25395206613445
1.0635451505016722,1.253773174691721
1.0836120401337792,1.253484061798394
1.1036789297658862,1.2530857192098779
1.1237458193979932,1.252579526555723
1.1438127090301002,1.25196724761415
1.1638795986622072,1.251251025496574
1.1839464882943145,1.2504333767380207
1.2040133779264215,1.2495171842891688
1.2240802675585283,1.2485056894054245
1.2441471571906353,1.2474024824287158
1.2642140468227423,1.246211492458312
1.2842809364548495,1.244936975907773
1.3043478260869565,1.243583503946449
1.3244147157190636,1.242155948825885
1.3444816053511706,1.2406594690936332
1.3645484949832773,1.2390994936999513
1.3846153846153846,1.2374817050061488
1.4046822742474916,1.2358120207074443
1.4247491638795986,1.2340965746878185
1.4448160535117056,1.232341696829582
1.4648829431438126,1.230553891806221
1.4849498327759196,1.2287398168936867
1.5050167224080266,1.2269062588423856
1.5250836120401337,1.225060109859755
1.5451505016722407,1.2232083427615863
1.5652173913043477,1.2213579853589587
1.5852842809364547,1.2195160941565784
1.605351170568562,1.2176897274478762
1.625418060200669,1.2158859179014703
1.6454849498327757,1.2141116447433662
1.6655518394648827,1.212373805648643
1.6856187290969897,1.2106791884655248
1.705685618729097,1.209034442903572
1.725752508361204,1.2074460523257242
1.745819397993311,1.2059203057914143
1.765886287625418,1.2044632705041416
1.7859531772575248,1.2030807648221151
1.806020066889632,1.2017783319942414
1.826086956521739,1.2005612147861515
1.846153846153846,1.199434331161249
1.866220735785953,1.198402251180712
1.8862876254180598,1.1974691752830038
1.9063545150501673,1.1966389140985425
1.926421404682274,1.1959148699477598
1.9464882943143813,1.195300020161774
1.966555183946488,1.194796902353923
1.9866220735785953,1.1944076017572263
2.0066889632107023,1.1941337407285755
2.026755852842809,1.1939764705041334
2.0468227424749164,1.193936465273073
2.0668896321070234,1.1940139186184668
2.0869565217391304,1.1942085423548008
2.1070234113712374,1.1945195677720555
2.1270903010033444,1.1949457492765247
2.1471571906354514,1.1954853703986739
2.1672240802675584,1.1961362521195371
2.1872909698996654,1.1968957634485446
2.2073578595317724,1.1977608341681654
2.2274247491638794,1.1987279696451605
2.2474916387959865,1.1997932675931684
2.267558528428094,1.2009524366589417
2.2876254180602005,1.20220081669316
2.3076923076923075,1.2035334005580405
2.3277591973244145,1.2049448573164467
2.3478260869565215,1.206429556642503
2.367892976588629,1.2079815942902066
2.3879598662207355,1.209594818455646
2.408026755852843,1.2112628568686774
2.4280936454849495,1.2129791444523605
2.4481605351170566,1.2147369513921138
2.468227424749164,1.216529411461803
2.4882943143812706,1.218349550460128
2.508361204013378,1.2201903146179582
2.5284280936454846,1.222044598845571
2.548494983277592,1.223905274697219
2.568561872909699,1.2257652179396006
2.5886287625418056,1.2276173356204034
2.608695652173913,1.2294545925422735
2.6287625418060196,1.231270037057258
2.648829431438127,1.2330568261058736
2.668896321070234,1.2348082494340025
2.688963210702341,1.236517752929313
2.709030100334448,1.2381789610271938
2.7290969899665547,1.2397856981435211
2.749163879598662,1.2413320090988909
2.769230769230769,1.2428121785051385
2.789297658862876,1.2442207490908446
2.809364548494983,1.2455525389476798
2.82943143812709,1.2468026576839544
2.849498327759197,1.247966521475673
2.869565217391304,1.249039867008589
2.8896321070234112,1.2500187643077079
2.9096989966555182,1.2508996284526286
2.9297658862876252,1.2516792301789605
2.9498327759197323,1.2523547053673192
2.9698996655518393,1.2529235634219775
2.9899665551839463,1.253383694541906
3.0100334448160533,1.2537333758869333
3.0301003344481603,1.2539712766413724
3.0501672240802673,1.2540964619773665
3.0702341137123748,1.2541083959190482
3.0903010033444813,1.254006943108321
3.1103678929765888,1.2537923694715576
3.1304347826086953,1.2534653417860646
3.1505016722408024,1.2530269261437101
3.1705685618729094,1.2524785853083131
3.1906354515050164,1.2518221749624623
3.210702341137124,1.2510599388385606
3.2307692307692304,1.250194502728292
3.250836120401338,1.249228867364272
3.270903010033445,1.2481664001674346
3.2909698996655514,1.2470108258539891
3.311036789297659,1.245766215896067
3.3311036789297654,1.2444369768313368
3.351170568561873,1.2430278374179085
3.3712374581939795,1.241543834633058
3.391304347826087,1.2399902985164466
3.411371237458194,1.238372835861466
3.4314381270903005,1.2366973127621395
3.451505016722408,1.2349698360269967
3.471571906354515,1.233196733476382
3.491638795986622,1.2313845331451068
3.511705685618729,1.2295399414187331
3.531772575250836,1.2276698201385619
3.551839464882943,1.2257811627182325
3.5719063545150496,1.2238810693226927
3.591973244147157,1.2219767211693604
3.612040133779264,1.220075354020629
3.632107023411371,1.2181842309463369
3.652173913043478,1.216310614445072
3.672240802675585,1.2144617380233762
3.692307692307692,1.2126447773420774
3.712374581939799,1.2108668210494797
3.732441471571906,1.20913484143062
3.752508361204013,1.2074556650116617
3.7725752508361197,1.2058359432669168
3.7926421404682276,1.2042821235842838
3.8127090301003346,1.2028004206513552
3.832775919732441,1.2013967884302188
3.852842809364548,1.2000768928929437
3.872909698996655,1.1988460856922982
3.8929765886287626,1.197709378942571
3.9130434782608696,1.1966714212842262
3.933110367892976,1.1957364754024848
3.953177257525083,1.1949083971644838
3.9732441471571907,1.194190616531738
3.9933110367892977,1.193586120394883
4.013377926421405,1.1930974374655114
4.033444816053511,1.192726625346206
4.053511705685618,1.1924752598837571
4.073578595317726,1.1923444268935532
4.093645484949833,1.1923347163240452
4.113712374581939,1.1924462189106602
4.133779264214047,1.1926785253476362
4.153846153846153,1.1930307279854604
4.173913043478261,1.1935014250403042
4.193979933110368,1.194088727280838
4.214046822742475,1.1947902671375321
4.234113712374581,1.1956032101601872
4.254180602006689,1.1965242687307331
4.274247491638796,1.1975497179219525
4.294314381270903,1.1986754133773994
4.314381270903009,1.199896811074303
4.334448160535117,1.2012089888203554
4.354515050167224,1.2026066693256754
4.374581939799331,1.2040842446845477
4.394648829431437,1.2056358020963749
4.414715719063545,1.2072551506525886
4.434782608695651,1.2089358490157123
4.454849498327759,1.2106712338175032
4.474916387959866,1.2124544486064632
4.494983277591973,1.2142784731792302
4.5150501672240795,1.216136153136418
4.535117056856188,1.2180202295106026
4.555183946488294,1.2199233683220951
4.575250836120401,1.2218381899274346
4.595317725752508,1.2237572980345761
4.615384615384615,1.225673308269021
4.635451505016722,1.2275788761850688
4.655518394648829,1.2294667246265916
4.6755852842809364,1.2313296703516021
4.695652173913043,1.233160649845033
4.71571906354515,1.2349527442532582
4.735785953177258,1.2366992033829523
4.7558528428093645,1.2383934687155298
4.775919732441471,1.2400291953959308
4.795986622073578,1.2416002731620392
4.816053511705686,1.2431008461874324
4.8361204013377925,1.2445253318159115
4.856187290969899,1.2458684381717728
4.8762541806020065,1.247125180633916
4.896321070234113,1.2482908971659363
4.916387959866221,1.2493612624975448
4.936454849498328,1.2503323011551404
4.956521739130435,1.25120039934154
4.976588628762541,1.2519623156662436
4.996655518394649,1.2526151907286556
5.016722408026756,1.253156555557406
5.036789297658863,1.2535843389087447
5.056856187290969,1.253896873427209
5.076923076923077,1.2540929006709687
5.096989966555184,1.254171575003796
5.117056856187291,1.2541324663543691
5.137123745819398,1.2539755618428345
5.157190635451505,1.2537012662732387
5.177257525083611,1.25331040148905
5.197324414715719,1.25280420458798
5.217391304347826,1.2521843249910178
5.237458193979933,1.2514528203591635
5.257525083612039,1.2506121513510242
5.277591973244148,1.249665175212734
5.297658862876254,1.2486151381920112
5.317725752508361,1.2474656667672128
5.337792642140468,1.2462207576826698
5.357859531772575,1.2448847667819487
5.377926421404682,1.2434623966316964
5.397993311036789,1.2419586829301386
5.418060200668896,1.2403789796960836
5.438127090301003,1.2387289432372806
5.458193979933109,1.2370145148998404
5.478260869565218,1.2352419026046149
5.498327759197324,1.233417561180813
5.518394648829431,1.2315481715127934
5.538461538461538,1.2296406185220279
5.558528428093646,1.227701968012946
5.578595317725752,1.225739442419579
5.598662207357859,1.2237603954976322
5.618729096989966,1.2217722860165146
5.638795986622073,1.219782650515076
5.65886287625418,1.217799075195387
5.678929765886288,1.2158291670397223
5.698996655518394,1.2138805242470838
5.719063545150501,1.2119607060970432
5.739130434782608,1.2100772023599582
5.759197324414716,1.2082374023842533
5.7792642140468224,1.2064485640021456
5.799331103678929,1.204717782405932
5.8193979933110365,1.2030519591563578
5.839464882943144,1.201457771493481
5.8595317725752505,1.1999416421278306
5.879598662207358,1.1985097096955277
5.8996655518394645,1.1971678000652832
5.919732441471571,1.1959213986876756
5.9397993311036785,1.1947756241772711
5.959866220735786,1.1937352033159867
5.9799331103678925,1.1928044476622413
5.999999999999999,1.1919872319430764
6.020066889632107,1.1912869743977959
6.040133779264214,1.1907066192297264
6.060200668896321,1.1902486213090278
6.080267558528428,1.1899149332532521
6.100334448160535,1.1897069949945798
6.120401337792642,1.1896257259225538
6.1404682274247495,1.1896715196703411
6.160535117056856,1.1898442415899562
6.180602006688963,1.1901432289391254
6.200668896321069,1.1905672937789475
6.2207357859531776,1.1911147285580979
6.240802675585284,1.1917833143366225
6.260869565217391,1.192570331580035
6.280936454849498,1.193472573433522
6.301003344481605,1.1944863613664736
6.321070234113712,1.195607563059999
6.341137123745819,1.196831612393971
6.361204013377926,1.1981535313769738
6.381270903010033,1.1995679538509667
6.40133779264214,1.2010691507936533
6.421404682274248,1.2026510570353042
6.441471571906354,1.2043072992024513
6.461538461538461,1.2060312246993807
6.481605351170568,1.2078159315386532
6.501672240802676,1.2096542988346277
6.521739130434782,1.2115390177780334
6.54180602006689,1.2134626229161154
6.561872909698996,1.2154175235698976
6.581939799331103,1.217396035229286
6.60200668896321,1.2193904107758875
6.622073578595318,1.221392871394289
6.642140468227424,1.2233956370428978
6.662207357859531,1.2253909563673486
6.682274247491639,1.2273711359498423
6.702341137123746,1.2293285687998246
6.722408026755852,1.2312557620018585
6.742474916387959,1.233145363447351
6.762541806020066,1.2349901875866587
6.782608695652174,1.236783240147983
6.80267558528428,1.2385177417778632
6.822742474916388,1.2401871505665323
6.842809364548494,1.2417851834286466
6.862876254180601,1.243305836316565
6.882943143812709,1.2447434032491957
6.903010033444816,1.2460924941443594
6.9230769230769225,1.2473480514474338
6.94314381270903,1.2485053655517733
6.963210702341137,1.2495600890104175
6.983277591973244,1.2505082495398554
7.0033444816053505,1.2513462618190803
7.023411371237458,1.2520709380877912
7.0434782608695645,1.2526794975482076
7.063545150501672,1.253169574575738
7.083612040133779,1.2535392257424496
7.103678929765886,1.2537869356577565
7.123745819397993,1.2539116216289812
7.143812709030099,1.2539126371439087
7.1638795986622075,1.2537897741758148
7.183946488294314,1.2535432643098374
7.204013377926421,1.25317377868849
7.224080267558528,1.252682426771942
7.2441471571906355,1.2520707539074347
7.264214046822742,1.2513407377006618
7.2842809364548495,1.2504947831802882
7.304347826086956,1.2495357167460053
7.324414715719063,1.2484667788891017
7.34448160535117,1.2472916156739802
7.364548494983278,1.2460142689688947
7.384615384615384,1.2446391654139681
7.404682274247491,1.2431711041152604
7.424749163879598,1.2416152430545817
7.444816053511706,1.2399770842065205
7.464882943143812,1.2382624573564394
7.48494983277592,1.2364775026160204
7.505016722408026,1.2346286516368303
7.525083612040134,1.2327226075269326
7.545150501672239,1.2307663234807946
7.565217391304348,1.2287669801391035
7.585284280936455,1.226731961702098
7.605351170568561,1.2246688308282132
7.625418060200669,1.222585302358417
7.645484949832775,1.2204892159166456
7.665551839464882,1.2183885074470948
7.685618729096991,1.216291179760353
7.705685618729096,1.2142052721723955
7.725752508361204,1.2121388293326758
7.74581939799331,1.2100998693505396
7.765886287625418,1.2080963513418705
7.785953177257525,1.2061361425311685
7.806020066889631,1.2042269850567955
7.826086956521739,1.2023764626394389
7.846153846153847,1.2005919672855758
7.866220735785952,1.198880666208154
7.88628762541806,1.197249469156133
7.906354515050166,1.1957049963522932
7.926421404682274,1.19425354724476
7.946488294314381,1.192901070281502
7.966555183946488,1.1916531339189094
7.986622073578595,1.1905148990744907
8.006688963210701,1.1894910932304266
8.02675585284281,1.1885859863884514
8.046822742474916,1.1878033690673553
8.066889632107022,1.1871465325229704
8.08695652173913,1.186618251355632
8.107023411371236,1.1862207686532302
8.127090301003344,1.1859557837984904
8.147157190635452,1.1858244430476867
8.167224080267557,1.1858273329644475
8.187290969899665,1.1859644767679864
8.207357859531772,1.1862353336289275
8.227424749163879,1.1866388009201374
8.247491638795987,1.1871732194031765
8.267558528428093,1.1878363813052826
8.2876254180602,1.188625541216329
8.307692307692307,1.1895374297114485
8.327759197324415,1.1905682695824147
8.347826086956522,1.1917137945405214
8.367892976588628,1.192969270235475
8.387959866220736,1.1943295174190933
8.408026755852843,1.1957889370694692
8.42809364548495,1.197341537281005
8.448160535117056,1.1989809617178924
8.468227424749163,1.2007005194243017
8.488294314381271,1.2024932157818367
8.508361204013378,1.2043517844056137
8.528428093645484,1.2062687197730269
8.548494983277592,1.2082363103840512
8.568561872909697,1.210246672259033
8.588628762541806,1.2122917825882158
8.608695652173914,1.2143635133571256
8.628762541806019,1.2164536647832218
8.648829431438127,1.2185539984105527
8.668896321070234,1.2206562697219694
8.68896321070234,1.22275226014087
8.709030100334449,1.2248338083073809
8.729096989966555,1.2268928405265913
8.749163879598662,1.228921400298573
8.769230769230768,1.2309116768522421
8.789297658862875,1.2328560326161557
8.809364548494983,1.2347470295701146
8.82943143812709,1.2365774544313104
8.849498327759196,1.2383403426378703
8.869565217391303,1.2400290011007342
8.889632107023411,1.2416370297021935
8.909698996655518,1.2431583415258318
8.929765886287624,1.244587181808115
8.949832775919733,1.2459181456065995
8.96989966555184,1.2471461941836064
8.989966555183946,1.2482666701071925
9.010033444816054,1.2492753110738575
9.030100334448159,1.250168262458711
9.050167224080267,1.250942088600364
9.070234113712376,1.2515937828277983
9.09030100334448,1.2521207762368183
9.110367892976589,1.252520945222937
9.130434782608695,1.2527926177770248
9.150501672240802,1.2529345785482522
9.17056856187291,1.2529460726781179
9.190635451505017,1.2528268084069407
9.210702341137123,1.2525769584528321
9.23076923076923,1.2521971601609423
9.250836120401337,1.2516885144187107
9.270903010033445,1.251052583331031
9.290969899665551,1.2502913866470942
9.311036789297658,1.249407396928893
9.331103678929765,1.2484035334497126
9.351170568561873,1.2472831548095644
9.37123745819398,1.2460500502533722
9.391304347826086,1.2447084296769015
9.411371237458194,1.243262912305231
9.4314381270903,1.2417185140288436
9.451505016722408,1.2400806333827903
9.471571906354516,1.2383550361563438
9.49163879598662,1.2365478386221709
9.511705685618729,1.2346654893772049
9.531772575250837,1.2327147497910922
9.551839464882942,1.230702673062446
9.57190635451505,1.2286365818890852
9.591973244147155,1.2265240447645178
9.612040133779264,1.2243728509207497
9.632107023411372,1.2221909839458944
9.652173913043477,1.2199865941146417
9.672240802675585,1.2177679694803207
9.692307692307692,1.215543505788529
9.712374581939798,1.2133216752850917
9.732441471571907,1.2111109945038618
9.752508361204013,1.2089199911341335
9.77257525083612,1.2067571700814896
9.792642140468226,1.2046309788506822
9.812709030100335,1.202549772394025
9.832775919732441,1.2005217775830772
9.852842809364548,1.1985550574760944
9.872909698996656,1.196657475566591
9.89297658862876,1.1948366602114344
9.91304347826087,1.1930999694474722
9.933110367892976,1.1914544564154843
9.953177257525082,1.189906835617389
9.97324414715719,1.1884634502380726
9.993311036789297,1.1871302407654245
10.013377926421404,1.1859127151421724
10.033444816053512,1.184815920679662
10.053511705685617,1.1838444179574386
10.073578595317725,1.1830022569227305
10.093645484949834,1.1822929553912638
10.113712374581938,1.1817194801345712
10.133779264214047,1.1812842307204712
10.153846153846153,1.1809890262510914
10.17391304347826,1.1808350951191846
10.193979933110368,1.180823067876848
10.214046822742475,1.180952973283248
10.234113712374581,1.1812242375686006
10.254180602006688,1.1816356869220974
10.274247491638796,1.1821855531818035
10.294314381270903,1.1828714826748976
10.31438127090301,1.1836905481283457
10.334448160535118,1.1846392635430782
10.354515050167223,1.1857136018994519
10.37458193979933,1.1869090155391413
10.394648829431437,1.188220459048107
10.414715719063544,1.189642414448221
10.434782608695652,1.1911689184904541
10.454849498327757,1.1927935918318804
10.474916387959865,1.1945096698703377
10.494983277591974,1.1963100350063844
10.515050167224079,1.1981872500999418
10.535117056856187,1.2001335928907821
10.555183946488295,1.2021410911554922
10.5752508361204,1.204201558380128
10.595317725752508,1.2063066297359173
10.615384615384615,1.2084477981560078
10.635451505016722,1.2106164503225212
10.65551839464883,1.2128039023864454
10.675585284280936,1.2150014352563032
10.695652173913043,1.217200329306195
10.71571906354515,1.219391898367951
10.735785953177256,1.2215675228869256
10.755852842809364,1.223718682135218
10.775919732441471,1.2258369853900406
10.795986622073578,1.2279142019981186
