Frequency (Hz),Amplitude
0.0,3.6211022264891217
0.019867549668874173,3.619425783128946
0.039735099337748346,3.6143984029617235
0.059602649006622516,3.6060259368275105
0.07947019867549669,3.5943181398509227
0.09933774834437085,3.579288677230452
0.11920529801324503,3.560955132755153
0.13907284768211922,3.539339020475338
0.15894039735099338,3.514465800098531
0.17880794701986755,3.486364896844446
0.1986754966887417,3.4550697266795933
0.2185430463576159,3.420617728069335
0.23841059602649006,3.3830504016421066
0.2582781456953642,3.3424133594664767
0.27814569536423844,3.2987563860107016
0.2980132450331126,3.252133513301275
0.31788079470198677,3.202603113344046
0.33774834437086093,3.150228011543122
0.3576158940397351,3.0950756256840406
0.3774834437086093,3.037218136081264
0.3973509933774834,2.9767326937812477
0.4172185430463576,2.913701675335297
0.4370860927152318,2.8482129947039514
0.45695364238410596,2.780360485451887
0.4768211920529801,2.7102443697007956
0.49668874172185434,2.6379718345403913
0.5165562913907285,2.5636577420353097
0.5364238410596026,2.4874255059751484
0.5562913907284769,2.4094081775790666
0.5761589403973509,2.3297497941116507
0.5960264900662252,2.2486070596004706
0.6158940397350993,2.1661514465867238
0.6357615894039735,2.0825718333324006
0.6556291390728477,1.9980778235799705
0.6754966887417219,1.912903937266259
0.695364238410596,1.8273149115736524
0.7152317880794702,1.741612412009835
0.7350993377483444,1.6561435190360885
0.7549668874172186,1.5713114157382104
0.7748344370860927,1.4875887294003025
0.7947019867549668,1.4055339184707314
0.8145695364238411,1.3258108376428344
0.8344370860927152,1.2492109633968798
0.8543046357615894,1.1766764080510856
0.8741721854304636,1.10931937366725
0.8940397350993378,1.0484297487290353
0.9139072847682119,0.9954574137395901
0.9337748344370861,0.9519515642141824
0.9536423841059603,0.9194411104923566
0.9735099337748344,0.8992552683741579
0.9933774834437087,0.8923144568143829
1.0132450331125828,0.8989552761751878
1.033112582781457,0.9188602721789833
1.0529801324503312,0.9511245616657967
1.0728476821192052,0.9944288131721032
1.0927152317880795,1.0472483242615458
1.1125827814569538,1.1080337542492127
1.1324503311258278,1.1753324217265138
1.1523178807947019,1.2478504068429346
1.1721854304635762,1.3244711893515835
1.1920529801324504,1.4042485668626168
1.2119205298013245,1.48638742263995
1.2317880794701985,1.5702207639409644
1.2516556291390728,1.655187464992143
1.271523178807947,1.7408126369260848
1.2913907284768211,1.8266911686915084
1.3112582781456954,1.9124743183427009
1.3311258278145695,1.9978589677165803
1.3509933774834437,2.0825790884000153
1.370860927152318,2.166398992636463
1.390728476821192,2.249108002242048
1.410596026490066,2.330516234375664
1.4304635761589404,2.4104512634657476
1.4503311258278146,2.4887554697910352
1.4701986754966887,2.5652839267297916
1.4900662251655628,2.6399027115508846
1.5099337748344372,2.7124875502655503
1.5298013245033113,2.7829227269223784
1.5496688741721854,2.85110020305795
1.5695364238410596,2.9169189048354105
1.5894039735099337,2.980284144524518
1.609271523178808,3.0411071500304665
1.6291390728476822,3.0993046816499477
1.6490066225165563,3.1547987194916245
1.6688741721854303,3.2075162083264503
1.6887417218543048,3.2573888492458285
1.7086092715231789,3.3043529295650242
1.728476821192053,3.3483491840411777
1.7483443708609272,3.38932268177348
1.7682119205298013,3.427222734192305
1.7880794701986755,3.462002820379154
1.8079470198675496,3.493620526634509
1.8278145695364238,3.522037497759755
1.847682119205298,3.5472193979684765
1.8675496688741722,3.5691358797120776
1.8874172185430464,3.5877605590121617
1.9072847682119205,3.603070996148832
1.9271523178807946,3.6150486807720017
1.9470198675496688,3.623679020689218
1.9668874172185429,3.6289513337456767
1.9867549668874174,3.6308588423561385
2.0066225165562916,3.629398670378174
2.0264900662251657,3.6245718421370463
2.0463576158940397,3.6163832835274197
2.066225165562914,3.6048418252298684
2.086092715231788,3.5899602081944906
2.1059602649006623,3.5717550916630056
2.1258278145695364,3.550247064128343
2.1456953642384105,3.5254606577713887
2.165562913907285,3.4974243670725493
2.185430463576159,3.466170672476961
2.205298013245033,3.4317360702031894
2.2251655629139075,3.3941611095344375
2.2450331125827816,3.3534904392282123
2.2649006622516556,3.3097728650386893
2.2847682119205297,3.2630614207807453
2.3046357615894038,3.213413455896438
2.324503311258278,3.160890743139717
2.3443708609271523,3.105559610806131
2.364238410596027,3.0474911049445925
2.384105960264901,2.986761188253492
2.403973509933775,2.923450983956112
2.423841059602649,2.857647074965685
2.443708609271523,2.7894418712132416
2.463576158940397,2.7189340612862996
2.4834437086092715,2.6462291687312485
2.5033112582781456,2.571440238794811
2.52317880794702,2.4946886884026096
2.543046357615894,2.416105361300979
2.562913907284768,2.3358318421883553
2.5827814569536423,2.2540220992079805
2.6026490066225163,2.1708445444899507
2.622516556291391,2.086484628938145
2.642384105960265,2.0011481218709872
2.662251655629139,1.9150652703563928
2.6821192052980134,1.828496088905237
2.7019867549668874,1.7417370983986977
2.7218543046357615,1.6551299116496954
2.741721854304636,1.5690721429489722
2.76158940397351,1.4840311767900223
2.781456953642384,1.400561313814825
2.801324503311258,1.3193246118927011
2.821192052980132,1.2411151540696617
2.8410596026490067,1.166885156695723
2.8609271523178808,1.0977687750509426
2.8807947019867552,1.03509514857761
2.9006622516556293,0.9803761922885379
2.9205298013245033,0.9352488339977831
2.9403973509933774,0.901351508212256
2.9602649006622515,0.8801299304656736
2.9801324503311255,0.8726026531311349
3.0,0.8791588653187272
3.0198675496688745,0.8994731624955941
3.0397350993377485,0.9325780393783043
3.0596026490066226,0.9770591638338778
3.0794701986754967,1.0312901803510077
3.0993377483443707,1.0936319132158594
3.119205298013245,1.1625618737461312
3.1390728476821192,1.2367368388103641
3.1589403973509933,1.3150081004885497
3.1788079470198674,1.3964099818865563
3.198675496688742,1.4801366315232538
3.218543046357616,1.565515989412509
3.23841059602649,1.6519853508411806
3.2582781456953644,1.739070273142687
3.2781456953642385,1.8263671720465295
3.2980132450331126,1.913529322802287
3.3178807947019866,2.0002557581178224
3.3377483443708607,2.086282527228336
3.3576158940397347,2.1713758341287637
3.3774834437086096,2.255326651909908
3.3973509933774837,2.337946488957247
3.4172185430463577,2.4190640517537405
3.437086092715232,2.4985226057091388
3.456953642384106,2.57617788045102
3.47682119205298,2.6518964010809447
3.4966887417218544,2.725554153931242
3.5165562913907285,2.79703551608493
3.5364238410596025,2.866232393782683
3.556291390728477,2.9330435269832407
3.576158940397351,2.9973739266560666
3.596026490066225,3.059134418548132
3.615894039735099,3.1182412726959003
3.6357615894039736,3.1746159022401295
3.6556291390728477,3.22818461843788
3.6754966887417218,3.278878431377018
3.695364238410596,3.326632887950078
3.7152317880794703,3.3713879402654325
3.7350993377483444,3.4130878389604264
3.754966887417219,3.4516810469082637
3.774834437086093,3.4871201696340823
3.794701986754967,3.5193618994204483
3.814569536423841,3.548366970621807
3.834437086092715,3.5741001241474466
3.854304635761589,3.5965300794347765
3.8741721854304636,3.615629512534364
3.8940397350993377,3.6313750391786215
3.9139072847682117,3.6437472019177437
3.9337748344370858,3.652730460587256
3.9536423841059607,3.6583131855282374
3.9735099337748347,3.6604876531200623
3.993377483443709,3.6592500433100468
4.013245033112583,3.6546004389399656
4.033112582781457,3.6465428267787354
4.052980132450331,3.63508510027763
4.072847682119205,3.620239064172379
4.0927152317880795,3.6020204411685355
4.112582781456953,3.58044888106659
4.132450331125828,3.555547972814928
4.152317880794702,3.5273452601268045
4.172185430463576,3.4958722614671376
4.19205298013245,3.4611644954121497
4.211920529801325,3.4232615126187094
4.231788079470199,3.382206935918364
4.251655629139073,3.3380485103879205
4.271523178807947,3.2908381656574495
4.291390728476821,3.2406320932186343
4.311258278145695,3.187490842115849
4.33112582781457,3.1314794371723673
4.3509933774834435,3.07266752486594
4.370860927152318,3.0111295531776627
4.390728476821192,2.946944993267199
4.410596026490066,2.8801986127710864
4.43046357615894,2.8109808130062426
4.450331125827815,2.739388045554994
4.470198675496689,2.6655233278362607
4.490066225165563,2.5894968826315794
4.509933774834438,2.5114269335403074
4.529801324503311,2.43144069753252
4.549668874172186,2.349675627889627
4.569536423841059,2.26628097686278
4.589403973509934,2.1814197686663057
4.6092715231788075,2.095271301710481
4.629139072847682,2.0080343365328885
4.649006622516556,1.9199311755322457
4.66887417218543,1.8312129055983295
4.688741721854305,1.7421661582438202
4.708609271523179,1.6531218455467571
4.728476821192054,1.5644664508611845
4.748344370860927,1.476656575217098
4.768211920529802,1.3902375201403707
4.788079470198675,1.3058666239722487
4.80794701986755,1.2243416490610328
4.827814569536423,1.1466333357747798
4.847682119205298,1.0739186125048246
4.867549668874172,1.0076059575134133
4.887417218543046,0.9493364278860572
4.9072847682119205,0.9009343052073724
4.927152317880794,0.8642768003212159
4.947019867549669,0.8410666207167287
4.966887417218543,0.8325370778102109
4.986754966887418,0.839183512276197
5.006622516556291,0.8606427146821413
5.026490066225166,0.8957838423194846
5.04635761589404,0.9429622701511117
5.066225165562914,1.0003174793967549
5.086092715231788,1.0660133809809331
5.105960264900662,1.1383823892854845
5.125827814569536,1.215984809140055
5.14569536423841,1.2976134957436307
5.1655629139072845,1.3822709938419016
5.185430463576159,1.469136977374931
5.205298013245033,1.5575354528282193
5.225165562913908,1.6469057925286943
5.245033112582782,1.7367787588659669
5.264900662251656,1.826757340020152
5.28476821192053,1.916501717837973
5.304635761589404,2.0057175887393397
5.324503311258278,2.0941471245655663
5.344370860927152,2.1815619788106484
5.364238410596027,2.26775786518713
5.3841059602649,2.352550341482789
5.403973509933775,2.4357715176781474
5.4238410596026485,2.517267474511283
5.443708609271523,2.596896230141812
5.463576158940397,2.6745261315479767
5.483443708609272,2.7500345766696697
5.503311258278146,2.823306995421803
5.52317880794702,2.894236034362014
5.543046357615895,2.9627209023809753
5.562913907284768,3.028666844324592
5.582781456953643,3.091984716723125
5.602649006622516,3.152590645361202
5.622516556291391,3.2104057486985513
5.642384105960264,3.265355914457
5.662251655629139,3.317371619258729
5.682119205298013,3.3663877832095452
5.701986754966887,3.412343652899
5.7218543046357615,3.455182707536437
5.741721854304636,3.4948525839330866
5.7615894039735105,3.5313050168321443
5.781456953642384,3.564495791725027
5.801324503311259,3.59438470780671
5.821192052980132,3.620935549141538
5.841059602649007,3.6441160624538833
5.860927152317881,3.6638979402412186
5.880794701986755,3.6802568081430094
5.900662251655629,3.6931722156970856
5.920529801324503,3.70262762978426
5.940397350993377,3.7086104302077683
5.960264900662251,3.7111119069823686
5.980132450331126,3.710127259023062
6.0,3.7056555940290017
6.0198675496688745,3.697699929458001
6.039735099337749,3.686267194584124
6.059602649006623,3.671368233728012
6.079470198675497,3.653017810850462
6.099337748344371,3.6312346158069535
6.119205298013245,3.6060412726783766
6.139072847682119,3.577464350725083
6.158940397350993,3.5455343786621296
6.178807947019867,3.5102858631295315
6.198675496688741,3.471757312439222
6.218543046357616,3.429991266929032
6.23841059602649,3.3850343375549348
6.258278145695365,3.336937254719806
6.2781456953642385,3.285754929788564
6.298013245033113,3.2315465322989474
6.317880794701987,3.1743755865752474
6.337748344370861,3.114310092328654
6.357615894039735,3.051422674935583
6.377483443708609,2.985790772493129
6.397350993377484,2.9174968685528824
6.417218543046357,2.846628781753511
6.437086092715232,2.7732800265779147
6.456953642384105,2.697550263379132
6.47682119205298,2.619545860961051
6.496688741721854,2.539380601791764
6.516556291390729,2.45717656895536
6.5364238410596025,2.373065266025113
6.556291390728477,2.2871890372955375
6.5761589403973515,2.199702877810711
6.596026490066225,2.1107767525479972
6.6158940397351,2.0205985849649823
6.635761589403973,1.9293781309844888
6.655629139072848,1.8373520308205442
6.675496688741721,1.7447904347320182
6.695364238410596,1.6520057377493986
6.715231788079469,1.559364139681265
6.735099337748344,1.4673009708615317
6.754966887417219,1.3763409714294723
6.774834437086093,1.287124910563121
6.794701986754967,1.2004438900375818
6.814569536423841,1.11728194978985
6.8344370860927155,1.038865268558239
6.854304635761589,0.9667107144948234
6.874172185430464,0.902655611391866
6.894039735099337,0.8488335901606129
6.913907284768212,0.8075447288818601
6.933774834437086,0.7809741759542946
6.95364238410596,0.7707759807591115
6.973509933774834,0.7776569056584248
6.993377483443709,0.8011724906362905
7.013245033112583,0.8398603412896581
7.033112582781457,0.891627126955031
7.052980132450331,0.954179951603924
7.072847682119205,1.0253419479125827
7.0927152317880795,1.103212597681391
7.112582781456954,1.1862105859021796
7.132450331125828,1.2730525870768845
7.152317880794702,1.362707163696327
7.172185430463576,1.4543451241211416
7.19205298013245,1.547295437416555
7.211920529801324,1.6410092916281607
7.231788079470198,1.7350320216652708
7.251655629139073,1.8289816539808648
7.271523178807947,1.9225326704776873
7.291390728476822,2.015403759677579
7.311258278145695,2.1073485665180205
7.33112582781457,2.198148682547171
7.3509933774834435,2.2876083081400997
7.370860927152318,2.3755501652817337
7.390728476821192,2.4618123496325217
7.410596026490066,2.54624589189975
7.430463576158941,2.6287128581133636
7.450331125827814,2.709084861972958
7.470198675496689,2.787241894334443
7.490066225165562,2.863071398343114
7.509933774834438,2.936467536019334
7.52980132450331,3.007330604942859
7.549668874172186,3.075566573267028
7.569536423841059,3.1410867084963603
7.589403973509934,3.203807280906008
7.6092715231788075,3.263649326625453
7.629139072847682,3.3205384585821647
7.649006622516557,3.374404715947158
7.66887417218543,3.425182444621314
7.6887417218543055,3.4728102027817562
7.708609271523178,3.5172306866697065
7.728476821192054,3.558390672719972
7.748344370860927,3.5962409728610596
7.768211920529802,3.6307364003991416
7.788079470198675,3.661835744368102
7.80794701986755,3.6895017506080836
7.827814569536423,3.7137011081456506
7.847682119205298,3.734404439702858
7.8675496688741715,3.7515862953743753
7.887417218543046,3.7652251486887365
7.907284768211921,3.77530339441952
7.927152317880795,3.7818073476412963
7.9470198675496695,3.784727243637602
7.966887417218543,3.7840572383685944
7.986754966887418,3.779795409297314
8.006622516556291,3.7719437564593195
8.026490066225167,3.7605082037430946
8.046357615894038,3.745498600430763
8.066225165562914,3.7269287231332853
8.086092715231787,3.70481627834381
8.105960264900663,3.679182905930279
8.125827814569536,3.6500541839977623
8.14569536423841,3.6174596356751727
8.165562913907285,3.581432738526517
8.185430463576159,3.5420109374578623
8.205298013245034,3.499235662197242
8.225165562913906,3.4531523506732174
8.245033112582782,3.4038104799227926
8.264900662251655,3.3512636065353125
8.28476821192053,3.2955694191067377
8.304635761589404,3.2367898057650026
8.324503311258278,3.1749909405670604
8.344370860927151,3.110243393508538
8.364238410596027,3.0426222700908094
8.3841059602649,2.9722073879406516
8.403973509933774,2.899083499990951
8.42384105960265,2.823340576361809
8.443708609271523,2.7450741605466007
8.463576158940398,2.6643858201059407
8.483443708609272,2.581383718223266
8.503311258278146,2.496183340769341
8.52317880794702,2.408908424799873
8.543046357615895,2.3196921498727088
8.562913907284768,2.228678674954835
8.582781456953642,2.136025133513
8.602649006622515,2.041904241318513
8.62251655629139,1.9465077309202972
8.642384105960264,1.8500509114954349
8.66225165562914,1.7527787742475334
8.682119205298013,1.6549742378697225
8.701986754966887,1.5569693779305602
8.721854304635762,1.4591608360587733
8.741721854304636,1.3620310870104038
8.76158940397351,1.2661778600307294
8.781456953642383,1.1723546869741357
8.801324503311259,1.0815259578266363
8.821192052980132,0.9949390512787205
8.841059602649008,0.9142117290949446
8.86092715231788,0.8414202162127462
8.880794701986755,0.7791450699145737
8.90066225165563,0.7303860525456026
8.920529801324504,0.698222560125805
8.940397350993377,0.6851627446189937
8.960264900662251,0.6923742512332213
8.980132450331126,0.7192534987057647
9.0,0.7636600702305404
9.019867549668875,0.8226321601325396
9.039735099337747,0.893109983678776
9.059602649006623,0.9723748184016967
9.079470198675496,1.0582012335967994
9.099337748344372,1.1488412125007081
9.119205298013245,1.2429436306583155
9.139072847682119,1.3394647575233962
9.158940397350994,1.4375912251194978
9.178807947019868,1.5366801034261026
9.198675496688743,1.6362143774945566
9.218543046357615,1.7357705287252918
9.23841059602649,1.8349950870083245
9.258278145695364,1.9335876590253498
9.27814569536424,2.0312885845183004
9.298013245033111,2.1278698951371307
9.317880794701987,2.2231286383959343
9.33774834437086,2.3168819061408823
9.357615894039736,2.4089631011589767
9.37748344370861,2.499219110974279
9.397350993377483,2.5875081523133256
9.417218543046358,2.673698115832793
9.437086092715232,2.7576652872670073
9.456953642384107,2.8392933541914216
9.47682119205298,2.918472631229143
9.496688741721854,2.9950994535717133
9.516556291390728,3.0690757010842615
9.536423841059603,3.1403084243607227
9.556291390728477,3.2087095508233756
9.57615894039735,3.2741956539791524
9.596026490066224,3.3366877727171182
9.6158940397351,3.396111270388913
9.635761589403973,3.4523957255946107
9.655629139072847,3.50547484827233
9.675496688741722,3.5552864159874855
9.695364238410596,3.6017722263285576
9.715231788079471,3.6448780621095023
9.735099337748345,3.684553666705271
9.754966887417218,3.7207527273451206
9.774834437086092,3.7534328645865522
9.794701986754967,3.782555626514016
9.814569536423841,3.80808648646693
9.834437086092716,3.829994843314688
9.854304635761588,3.848254023471997
9.874172185430464,3.862841283994313
9.894039735099337,3.8737378162163507
9.913907284768213,3.8809287495017895
9.933774834437086,3.8844031547636066
9.95364238410596,3.8841540474948246
9.973509933774835,3.880178390122467
9.993377483443709,3.872477093564544
10.013245033112582,3.861055017934437
10.033112582781456,3.8459209724000507
10.052980132450331,3.8270877142692887
10.072847682119205,3.804571947440411
10.09271523178808,3.7783943204287906
10.112582781456952,3.7485794242614228
10.132450331125828,3.7151557906226436
10.152317880794701,3.67815589073971
10.172185430463577,3.637616135622727
10.192052980132452,3.593576878422322
10.211920529801324,3.5460824198503063
10.2317880794702,3.495181017830722
10.251655629139073,3.440924902823601
10.271523178807948,3.383370300606977
10.29139072847682,3.3225774647346196
10.311258278145695,3.258610721434448
10.331125827814569,3.191538530412358
10.350993377483444,3.121433565927529
10.370860927152318,3.048372823674441
10.390728476821192,2.9724377605365366
10.410596026490065,2.8937144762938347
10.43046357615894,2.812293949049211
10.450331125827816,2.7282723397384063
10.470198675496688,2.641751385963827
10.490066225165563,2.5528389120593524
10.509933774834437,2.461649491504028
10.529801324503312,2.3683053106644296
10.549668874172186,2.272937301007698
10.56953642384106,2.1756866328786164
10.589403973509933,2.076706701469192
10.609271523178808,1.9761657905917254
10.629139072847682,1.8742506814537976
10.649006622516556,1.771171596285537
10.66887417218543,1.6671690534016874
10.688741721854305,1.5625234978935565
10.70860927152318,1.4575690193117845
10.728476821192054,1.352713166385544
10.748344370860927,1.2484659566500855
10.7682119205298,1.1454828382465352
