Time (s),Filtered Signal
0.0,0.015437788466913438
0.033370165745856356,-0.5384252558800806
0.06674033149171271,-0.919860082201367
0.10011049723756907,-1.0123708221347516
0.13348066298342542,-0.7917579010702626
0.16685082872928178,-0.3291843619087434
0.20022099447513814,0.23867869649176324
0.2335911602209945,0.7598870076734452
0.26696132596685085,1.1179585640214122
0.30033149171270723,1.2641544452183269
0.33370165745856356,1.2210662846411928
0.3670718232044199,1.0597700553175082
0.4004419889502763,0.8633658601500617
0.43381215469613266,0.6937181474662588
0.467182320441989,0.5743776937350659
0.5005524861878453,0.4935812012469536
0.5339226519337017,0.4217440368456067
0.5672928176795581,0.3324726863363348
0.6006629834254145,0.2167158837227057
0.6340331491712707,0.08493610639078204
0.6674033149171271,-0.041228722924264834
0.7007734806629835,-0.14176470506753808
0.7341436464088398,-0.2086029210580562
0.7675138121546962,-0.2489120410750854
0.8008839779005525,-0.28071839399168
0.8342541436464089,-0.3236729177946733
0.8676243093922653,-0.3895170170481191
0.9009944751381216,-0.47645348927542175
0.934364640883978,-0.5696440503420392
0.9677348066298344,-0.64734918194301
1.0011049723756906,-0.689869666984972
1.0344751381215471,-0.6873454534004262
1.0678453038674034,-0.6430533131462559
1.1012154696132597,-0.5708936638128699
1.1345856353591162,-0.48840502349704323
1.1679558011049724,-0.40870638365612855
1.201325966850829,-0.33525559012402467
1.2346961325966852,-0.26192767881453405
1.2680662983425415,-0.1782623663787951
1.301436464088398,-0.07708816541623668
1.3348066298342542,0.03952979816665453
1.3681767955801105,0.1592234043721893
1.401546961325967,0.26376710328423314
1.4349171270718233,0.3367329586808789
1.4682872928176796,0.3703902045350669
1.501657458563536,0.36843143763744435
1.5350276243093923,0.3435212007093833
1.5683977900552488,0.3114869749735018
1.601767955801105,0.28551592439814366
1.6351381215469614,0.27312359680659104
1.6685082872928179,0.276461682443552
1.7018784530386741,0.2943103998401389
1.7352486187845306,0.3233871622099774
1.768618784530387,0.35779916353637903
1.8019889502762432,0.3875728435404484
1.8353591160220997,0.3985469422057824
1.868729281767956,0.3754077844206379
1.9020994475138122,0.3075164528577292
1.9354696132596687,0.19486377372815766
1.968839779005525,0.05064612718321801
2.0022099447513813,-0.10166982262180604
2.0355801104972375,-0.23603120778460177
2.0689502762430942,-0.3327907105194477
2.1023204419889505,-0.3847632204147258
2.135690607734807,-0.39768974834899834
2.169060773480663,-0.38545763542008693
2.2024309392265193,-0.36305692627128583
2.235801104972376,-0.341020331805091
2.2691712707182323,-0.32370000150065076
2.3025414364640886,-0.3111707034750714
2.335911602209945,-0.30243332976746334
2.369281767955801,-0.2971738759044117
2.402651933701658,-0.29475887307361714
2.436022099447514,-0.2914142465848198
2.4693922651933704,-0.27813318528033376
2.5027624309392267,-0.2417191863097672
2.536132596685083,-0.1695112221418263
2.5695027624309392,-0.055854250824899455
2.602872928176796,0.09319632893476873
2.636243093922652,0.260029867232363
2.6696132596685085,0.4212038822572043
2.7029834254143648,0.5563015078538704
2.736353591160221,0.6553949448133616
2.7697237569060777,0.7209413722360497
2.803093922651934,0.7628249842014617
2.8364640883977903,0.7892102331571743
2.8698342541436466,0.7985729394098368
2.903204419889503,0.7779246269277306
2.936574585635359,0.7087651104632197
2.969944751381216,0.5775957334686702
3.003314917127072,0.38478902481032645
3.0366850828729284,0.1463367439849261
3.0700552486187846,-0.11268965956782097
3.103425414364641,-0.36883221370646935
3.1367955801104976,-0.6081813663650777
3.170165745856354,-0.8264451371107853
3.20353591160221,-1.021431677645923
3.2369060773480665,-1.183598848957788
3.2702762430939227,-1.2919309650144855
3.3036464088397794,-1.3190360381824968
3.3370165745856357,-1.2432753699161545
3.370386740331492,-1.0610342276235694
3.4037569060773483,-0.7919388907277086
3.4371270718232045,-0.4739118745051696
3.4704972375690613,-0.1506823806810386
3.5038674033149175,0.14174936333215982
3.537237569060774,0.3832232808405155
3.57060773480663,0.569212314620292
3.6039779005524863,0.7041928516961609
3.6373480662983426,0.7936559785238888
3.6707182320441993,0.8396882390043783
3.7040883977900556,0.8420099197814608
3.737458563535912,0.8025304511709634
3.770828729281768,0.7293020079663397
3.8041988950276244,0.6364445135685037
3.837569060773481,0.5395120524639442
3.8709392265193374,0.44889607352832467
3.9043093922651937,0.3652695300461847
3.93767955801105,0.28002335918850985
3.9710497237569062,0.18088419505769399
4.0044198895027625,0.06006148512373044
4.037790055248619,-0.0791417835452741
4.071160220994475,-0.22068419793034275
4.104530386740332,-0.3402683931968137
4.1379005524861885,-0.4143177806754578
4.171270718232044,-0.4297268888469239
4.204640883977901,-0.3901657073559038
4.238011049723757,-0.31604009515667675
4.271381215469614,-0.2378385646942137
4.30475138121547,-0.18541564701772392
4.338121546961326,-0.17749008662377497
4.371491712707183,-0.21544302474527133
4.404861878453039,-0.28350727006956994
4.438232044198895,-0.35470213015055824
4.471602209944752,-0.39977245862879784
4.504972375690608,-0.3958085117692109
4.538342541436465,-0.3320654818828933
4.5717127071823205,-0.2119578675542883
4.605082872928177,-0.051420761001924525
4.638453038674034,0.12554034280533305
4.67182320441989,0.2930403962437035
4.7051933701657465,0.4299177935450492
4.738563535911602,0.5250290855705497
4.771933701657459,0.5793168951702373
4.805303867403316,0.603302176197543
4.8386740331491715,0.6102860923067085
4.872044198895028,0.607772317309237
4.905414364640884,0.5912073410170999
4.938784530386741,0.5438086719564909
4.972154696132597,0.4436800399346736
5.005524861878453,0.2756954467389679
5.03889502762431,0.0427714004762988
5.072265193370166,-0.22917476793442373
5.105635359116023,-0.495746194556388
5.1390055248618784,-0.7070564554752578
5.172375690607735,-0.824355290935434
5.205745856353592,-0.8336891068427263
5.239116022099448,-0.7509740583540037
5.272486187845304,-0.616153089300485
5.30585635359116,-0.47843677914059307
5.339226519337017,-0.3783061293972854
5.372596685082874,-0.33344905804719516
5.4059668508287295,-0.3343435836411791
5.439337016574586,-0.35122345746684075
5.472707182320442,-0.34925833067145107
5.506077348066299,-0.305094286818614
5.5394475138121555,-0.21718260968415004
5.572817679558011,-0.10507105073819573
5.606187845303868,0.002057754484439187
5.639558011049724,0.08212464897310644
5.672928176795581,0.1338627801201994
5.706298342541437,0.18018071495537993
5.739668508287293,0.25844114639122134
5.77303867403315,0.4011895128879277
5.806408839779006,0.6160256035745542
5.839779005524862,0.8747866553840413
5.873149171270718,1.1188459186908017
5.906519337016575,1.2801266643382916
5.939889502762432,1.3094529137407402
5.9732596685082875,1.199088764817315
6.006629834254144,0.9877278017787146
6.04,0.7438974787891833
6.073370165745857,0.5344102541146026
6.1067403314917135,0.3926860561678127
6.140110497237569,0.3027814169951416
6.173480662983426,0.2076530252962529
6.206850828729282,0.03805368377327804
6.240220994475139,-0.2520328678124849
6.273591160220995,-0.6606073365089948
6.306961325966851,-1.1348036354380797
6.340331491712708,-1.589846861512132
6.373701657458564,-1.9392129607026571
6.40707182320442,-2.1213428960006215
6.440441988950277,-2.1122128623943754
6.473812154696133,-1.921955991942907
6.50718232044199,-1.581978833825745
6.5405524861878455,-1.1319702456196647
6.573922651933702,-0.6130043261743472
6.607292817679559,-0.06678738671462925
6.640662983425415,0.4633512292963038
6.674033149171271,0.9341952517187582
6.707403314917127,1.3081451574014131
6.740773480662984,1.559768985095079
6.774143646408841,1.6794016481258887
6.8075138121546965,1.6716358681443984
6.840883977900553,1.549956972562264
6.874254143646409,1.3312995989883696
6.907624309392266,1.0341844852129807
6.9409944751381225,0.6813200556253824
6.974364640883978,0.30390999831407606
7.007734806629835,-0.057103335908367345
7.041104972375691,-0.35641214324109904
7.074475138121548,-0.5559011220205023
7.107845303867403,-0.6375876074566313
7.14121546961326,-0.6112343329852113
7.174585635359117,-0.5119360330662593
7.207955801104973,-0.38792589213375306
7.241325966850829,-0.28385134465715994
7.274696132596685,-0.22689691373681187
7.308066298342542,-0.2212744080803148
7.341436464088399,-0.2520934255169889
7.3748066298342545,-0.2952250270399562
7.408176795580111,-0.3278130689327637
7.441546961325967,-0.3351459522582217
7.474917127071824,-0.3124556070271339
7.5082872928176805,-0.2629039414454311
7.541657458563536,-0.19415614977677872
7.575027624309393,-0.11539337316257801
7.608397790055249,-0.03530040158443969
7.641767955801106,0.03937621452088784
7.675138121546962,0.10508678582535812
7.708508287292818,0.1622368053956314
7.741878453038675,0.214553306499036
7.775248618784531,0.26644254249510657
7.808618784530387,0.3189100628488057
7.841988950276244,0.3660030530324288
7.8753591160221,0.3942675537661257
7.908729281767957,0.3867150757211834
7.9420994475138125,0.3305192265916284
7.975469613259669,0.22527242597829228
8.008839779005525,0.08755687119855109
8.042209944751383,-0.05133846746356438
8.075580110497238,-0.15479749395892134
8.108950276243094,-0.1941665163434678
8.14232044198895,-0.16052876701722982
8.175690607734808,-0.0696758624028839
8.209060773480664,0.04241865183637475
8.24243093922652,0.13234551603444802
8.275801104972377,0.16534006612852062
8.309171270718233,0.128182205965065
8.342541436464089,0.0335117066790644
8.375911602209946,-0.0863909114198987
8.409281767955802,-0.19386365229236535
8.442651933701658,-0.26203854102979207
8.476022099447514,-0.2856212030314616
8.509392265193371,-0.2810260892022397
8.542762430939227,-0.27539989052355507
8.576132596685083,-0.2895879521569286
8.60950276243094,-0.32362621136594427
8.642872928176796,-0.3527560982728879
8.676243093922652,-0.33711302563355905
8.709613259668508,-0.24132698529281885
8.742983425414366,-0.05481947574284293
8.776353591160222,0.19745832222028467
8.809723756906077,0.45997514856824145
8.843093922651935,0.6659914226981664
8.87646408839779,0.7630165746447262
8.909834254143647,0.7327793110261219
8.943204419889504,0.596458993579567
8.97657458563536,0.4028568490745654
9.009944751381216,0.20544548219390119
9.043314917127072,0.039694148261579576
9.07668508287293,-0.08819467855957097
9.110055248618785,-0.19604881715750097
9.143425414364641,-0.30768707962972347
9.176795580110499,-0.4326187926995713
9.210165745856354,-0.5551506587350449
9.24353591160221,-0.6392877145437053
9.276906077348068,-0.6470037301837935
9.310276243093924,-0.5599790754729533
9.34364640883978,-0.3928649390553726
9.377016574585635,-0.19059358284889608
9.410386740331493,-0.010703502686785929
9.443756906077349,0.10054773447434377
9.477127071823205,0.12652728493458756
9.510497237569062,0.08454635105600869
9.543867403314918,0.015182353899924486
9.577237569060774,-0.03687422357303366
9.610607734806631,-0.04046230793946815
9.643977900552487,0.013782432500494664
9.677348066298343,0.11633760439086464
9.710718232044199,0.2484262839340517
9.744088397790057,0.39106893143479354
9.777458563535912,0.528199057703981
9.810828729281768,0.6436503704507072
9.844198895027626,0.7166955980597501
9.877569060773482,0.7221561362801354
9.910939226519337,0.6379776536060396
9.944309392265193,0.45758120872952485
9.97767955801105,0.1999430967640611
10.011049723756907,-0.08975335942866204
10.044419889502763,-0.35155444354825444
10.07779005524862,-0.5303932017308096
10.111160220994476,-0.5953996475880166
10.144530386740332,-0.5501224722966679
10.17790055248619,-0.42923618979365324
10.211270718232045,-0.2836079205146584
10.244640883977901,-0.16058772124605913
10.278011049723757,-0.08782535646915385
10.311381215469615,-0.06658367597806158
10.34475138121547,-0.07598411814225299
10.378121546961326,-0.08517299901598174
10.411491712707184,-0.06783137328705391
10.44486187845304,-0.013371039746974046
10.478232044198895,0.06893320953077509
10.511602209944753,0.15376070727247151
10.544972375690609,0.20960488426495835
10.578342541436465,0.21083969320359175
10.61171270718232,0.14758624664848938
10.645082872928178,0.029898153129968127
10.678453038674034,-0.11511698605934093
10.71182320441989,-0.25208419908634666
10.745193370165747,-0.3488272913398075
10.778563535911603,-0.38640939042160155
10.811933701657459,-0.36425219768292405
10.845303867403315,-0.2986893875700728
10.878674033149172,-0.21571515150786724
10.912044198895028,-0.14076505754116098
10.945414364640884,-0.08936647070700805
10.978784530386742,-0.06209192140944823
11.012154696132598,-0.045621331877290755
11.045524861878453,-0.019440797439672152
11.078895027624311,0.034456882911030044
11.112265193370167,0.12277571149723122
11.145635359116023,0.23672594644995382
11.179005524861878,0.35434593859444746
11.212375690607736,0.4484415152990233
11.245745856353592,0.49666427710890343
11.279116022099448,0.48922356296158914
11.312486187845305,0.43093722746146723
11.345856353591161,0.3372592505687123
11.379226519337017,0.22701241697221233
11.412596685082875,0.11602757823942644
11.44596685082873,0.014846559333769849
11.479337016574586,-0.06929351425494476
11.512707182320442,-0.1289342518652946
11.5460773480663,-0.1550579959985208
11.579447513812156,-0.1399439088277794
11.612817679558011,-0.08289644148555565
11.646187845303869,0.005102326047091294
11.679558011049725,0.10175428988194944
11.71292817679558,0.17993176951517562
11.746298342541436,0.21753260177563635
11.779668508287294,0.20560020834389955
11.81303867403315,0.15038666921459473
11.846408839779006,0.06851052502007351
11.879779005524863,-0.021674657116278268
11.91314917127072,-0.10744204143102365
11.946519337016575,-0.18398048524881486
11.979889502762433,-0.2513501232245981
12.013259668508288,-0.30929510411545535
12.046629834254144,-0.35419927628582826
12.08,-0.3805504959722206
12.113370165745858,-0.38571286225742807
12.146740331491714,-0.37407538013145847
12.18011049723757,-0.3566907000213834
12.213480662983427,-0.34543049147933397
12.246850828729283,-0.3446136386776943
12.280220994475139,-0.34540464019621914
12.313591160220996,-0.3273611438272331
12.346961325966852,-0.2676752659824978
12.380331491712708,-0.1540644575143858
12.413701657458564,0.0053905176343553565
12.447071823204421,0.18123896706770468
12.480441988950277,0.33207363793975897
12.513812154696133,0.4206298256964664
12.54718232044199,0.42920386581307296
12.580552486187846,0.367076015957864
12.613922651933702,0.26640584583367555
12.64729281767956,0.16862771067903154
12.680662983425416,0.10782132425792931
12.714033149171271,0.09863416336578935
12.747403314917127,0.13368360935731033
12.780773480662985,0.19051402216960583
12.81414364640884,0.24370709217606762
12.847513812154697,0.27585525743331585
12.880883977900554,0.282523241204297
12.91425414364641,0.2699833832687816
12.947624309392266,0.2482842646002991
12.980994475138122,0.22414006922421745
13.01436464088398,0.19746466940659563
13.047734806629835,0.16283660895902088
13.081104972375691,0.11436071292774651
13.114475138121549,0.05078345799223335
13.147845303867404,-0.022045330078096993
13.18121546961326,-0.09260534890336171
13.214585635359118,-0.14822996240037287
13.247955801104974,-0.18051915065816415
13.28132596685083,-0.1891747904466226
13.314696132596685,-0.18254870611489687
13.348066298342543,-0.17452690257336764
13.381436464088399,-0.1788108968773161
13.414806629834255,-0.2027975887903632
13.448176795580112,-0.243709835651419
13.481546961325968,-0.28903240651615647
13.514917127071824,-0.3215936697148252
13.548287292817681,-0.3273400711230574
13.581657458563537,-0.3021201254901789
13.615027624309393,-0.2538198985809992
13.648397790055249,-0.19835119925706643
13.681767955801106,-0.15132777336983033
13.715138121546962,-0.11985773636953392
13.748508287292818,-0.09904948076732646
13.781878453038676,-0.07530825902593037
13.815248618784532,-0.03470684789331549
13.848618784530387,0.028147898234934108
13.881988950276245,0.10564793734431298
13.9153591160221,0.17967662776458035
13.948729281767957,0.22995864140653452
13.982099447513813,0.2440956838043407
14.01546961325967,0.2241644232625449
14.048839779005526,0.18637847389267
14.082209944751382,0.1537469560070158
14.11558011049724,0.14521773981161668
14.148950276243095,0.1666454045211301
14.182320441988951,0.2080434049505985
14.215690607734807,0.24837359928211206
14.249060773480664,0.2652996182677622
14.28243093922652,0.24496351795129453
14.315801104972376,0.1871908322386809
14.349171270718234,0.10426594692773647
14.38254143646409,0.014853074055606305
14.415911602209945,-0.06323721112214836
14.449281767955803,-0.11798683695748029
14.482651933701659,-0.14450673666244326
14.516022099447515,-0.14386778822110252
14.54939226519337,-0.12155901042430244
14.582762430939228,-0.08684099310866435
14.616132596685084,-0.05240534801876499
14.64950276243094,-0.0325766504079974
14.682872928176797,-0.03897395389732245
14.716243093922653,-0.07477643669076602
14.749613259668509,-0.13082056690642635
14.782983425414367,-0.18683289433709613
14.816353591160222,-0.21862590305732724
14.849723756906078,-0.20842075329441434
14.883093922651934,-0.15305930327021175
14.916464088397792,-0.06554741419448348
14.949834254143648,0.03102659849002825
14.983204419889503,0.11376869567014819
15.016574585635361,0.16862299397922784
15.049944751381217,0.19275131947355417
15.083314917127073,0.19015198794386118
15.116685082872928,0.16448628466220774
15.150055248618786,0.11491574122639873
15.183425414364642,0.03858674647598706
15.216795580110498,-0.061524138146381385
15.250165745856355,-0.1691551318061042
15.283535911602211,-0.25428508009270423
15.316906077348067,-0.2824855372280299
15.350276243093925,-0.2306966046229827
15.38364640883978,-0.10121621941868673
15.417016574585636,0.0744172346722775
15.450386740331492,0.24501459803670572
15.48375690607735,0.358980625542098
15.517127071823205,0.3842052396176788
15.550497237569061,0.3193302538616276
15.583867403314919,0.1917293316586912
15.617237569060775,0.044222049999568226
15.65060773480663,-0.08239393812027429
15.683977900552488,-0.16291180840267555
15.717348066298344,-0.1923780680077855
15.7507182320442,-0.18183781283467002
15.784088397790056,-0.14921813024951805
15.817458563535913,-0.11064390454803412
15.85082872928177,-0.07584533618506334
15.884198895027625,-0.048296947352514316
15.917569060773483,-0.028204709374706434
15.950939226519338,-0.015591729963192
15.984309392265194,-0.011538644786783328
16.01767955801105,-0.01728240258606876
16.051049723756908,-0.03231494205379965
16.084419889502765,-0.053122735649134535
16.11779005524862,-0.07364545987877928
16.151160220994477,-0.08736743875494431
16.18453038674033,-0.08993418875461566
16.21790055248619,-0.08089462584307389
16.251270718232046,-0.06370080594095046
16.2846408839779,-0.044045504753650995
16.318011049723758,-0.027390305290883342
16.351381215469615,-0.01674922009593623
16.38475138121547,-0.011476535845186119
16.418121546961327,-0.007303696491851594
16.451491712707185,0.0024841753978073053
16.48486187845304,0.024978281717164458
16.518232044198896,0.06504157667750225
16.551602209944754,0.12280025445607136
16.584972375690608,0.19219453847039353
16.618342541436466,0.26157482015011657
16.651712707182323,0.3167116722301828
16.685082872928177,0.3454082493002934
16.718453038674035,0.3417609241266313
16.751823204419892,0.3078432904454057
16.785193370165747,0.2516887755645653
16.818563535911604,0.18257348206532673
16.851933701657458,0.10653198735967451
16.885303867403316,0.02531708234314968
16.918674033149173,-0.0600071126493083
16.952044198895027,-0.14306266186233116
16.985414364640885,-0.20856793818775082
17.018784530386743,-0.23559323228825596
17.052154696132597,-0.20822503662648295
17.085524861878454,-0.1287915144719331
17.118895027624312,-0.025337536722050965
17.152265193370166,0.05361861450864158
17.185635359116024,0.05773248898410046
17.21900552486188,-0.04051043006564792
17.252375690607735,-0.2275886105169071
17.285745856353593,-0.4481079543036652
