Frequency (Hz),Amplitude
0.0,6.434913797742977
0.019801980198019802,6.432415178711819
0.039603960396039604,6.424923439227079
0.0594059405940594,6.412450940617245
0.07920792079207921,6.3950183135948055
0.09900990099009901,6.372654501557407
0.1188118811881188,6.345396822325685
0.13861386138613863,6.31329104945607
0.15841584158415842,6.276391514623522
0.1782178217821782,6.234761232949293
0.19801980198019803,6.188472053559368
0.21782178217821782,6.137604838103924
0.2376237623762376,6.0822496704543
0.25742574257425743,6.022506101326016
0.27722772277227725,5.958483432158711
0.297029702970297,5.890301043221598
0.31683168316831684,5.81808877160596
0.33663366336633666,5.7419873455146195
0.3564356435643564,5.662148882055222
0.37623762376237624,5.578737456577209
0.39603960396039606,5.491929752438069
0.4158415841584158,5.401915800904348
0.43564356435643564,5.30889982162849
0.45544554455445546,5.213101174704528
0.4752475247524752,5.1147554355635085
0.495049504950495,5.014115603738959
0.5148514851485149,4.9114534555495695
0.5346534653465347,4.8070610486520575
0.5544554455445545,4.701252382718239
0.5742574257425742,4.594365214535276
0.594059405940594,4.4867630167634776
0.613861386138614,4.378837056334743
0.6336633663366337,4.271008549719326
0.6534653465346534,4.163730826503645
0.6732673267326733,4.057491398274949
0.6930693069306931,3.9528137851940643
0.7128712871287128,3.8502588969004985
0.7326732673267327,3.75042569784127
0.7524752475247525,3.6539508123700375
0.7722772277227723,3.5615066483923616
0.7920792079207921,3.4737975516925763
0.8118811881188118,3.3915534649787076
0.8316831683168316,3.3155205820237423
0.8514851485148516,3.2464485893536374
0.8712871287128713,3.185074306615852
0.891089108910891,3.1321018917269803
0.9108910891089109,3.0881802615108485
0.9306930693069307,3.05387894450235
0.9504950495049505,3.0296641323219524
0.9702970297029703,3.015877092556161
0.99009900990099,3.0127172064780123
1.00990099009901,3.02023160194693
1.0297029702970297,3.038312664057313
1.0495049504950495,3.066703739572292
1.0693069306930694,3.1050123136099588
1.0891089108910892,3.152729060495692
1.108910891089109,3.209250632572535
1.1287128712871286,3.27390392061911
1.1485148514851484,3.3459697530536863
1.1683168316831685,3.4247044762086416
1.188118811881188,3.5093584286582837
1.2079207920792079,3.599190864954404
1.227722772277228,3.69348132021423
1.2475247524752475,3.7915377066627283
1.2673267326732673,3.892701602244354
1.2871287128712872,3.9963512555176663
1.3069306930693068,4.101902822263046
1.3267326732673268,4.208810297142076
1.3465346534653466,4.316564531399401
1.3663366336633662,4.424691650739635
1.3861386138613863,4.532751115553153
1.405940594059406,4.640333603291397
1.4257425742574257,4.7470588415579185
1.4455445544554455,4.852573480085185
1.4653465346534653,4.956549058971157
1.4851485148514851,5.05868010775917
1.504950495049505,5.158682393553893
1.5247524752475248,5.256291324924807
1.5445544554455446,5.351260510636001
1.5643564356435644,5.443360467271179
1.5841584158415842,5.532377466829318
1.6039603960396038,5.618112513761137
1.6237623762376237,5.700380440268776
1.6435643564356437,5.779009108678238
1.6633663366336633,5.853838710090118
1.683168316831683,5.924721149156019
1.7029702970297032,5.99151950560454
1.7227722772277227,6.0541075639749415
1.7425742574257426,6.112369403860091
1.7623762376237624,6.1661990437795176
1.782178217821782,6.215500132581755
1.801980198019802,6.260185683000811
1.8217821782178218,6.300177842662408
1.8415841584158414,6.3354076984499885
1.8613861386138615,6.3658151107024175
1.881188118811881,6.391348574228135
1.900990099009901,6.411965103589332
1.920792079207921,6.427630140540164
1.9405940594059405,6.438317481900825
1.9603960396039604,6.444009226519713
1.98019801980198,6.4446957403248435
2.0,6.4403756387985425
2.01980198019802,6.4310557865311875
2.0396039603960396,6.416751313826418
2.0594059405940595,6.397485650645977
2.0792079207920793,6.373290578503316
2.099009900990099,6.344206301245974
2.118811881188119,6.310281536012975
2.1386138613861387,6.271573626020814
2.1584158415841586,6.228148677225022
2.1782178217821784,6.180081721330259
2.1980198019801978,6.127456908085538
2.217821782178218,6.070367730308003
2.237623762376238,6.008917285635214
2.257425742574257,5.943218579614249
2.2772277227722775,5.873394875402181
2.297029702970297,5.799580096074822
2.3168316831683167,5.721919286318033
2.336633663366337,5.640569141099814
2.3564356435643563,5.555698609774805
2.376237623762376,5.467489584928521
2.3960396039603964,5.376137686080159
2.4158415841584158,5.281853149061535
2.4356435643564356,5.184861832371027
2.455445544554456,5.085406351916167
2.4752475247524752,4.983747355091022
2.495049504950495,4.8801649437879755
2.514851485148515,4.774960253304175
2.5346534653465347,4.668457189617678
2.5544554455445545,4.561004320442801
2.5742574257425743,4.452976904879274
2.594059405940594,4.344779031162202
2.6138613861386135,4.236845810571227
2.633663366336634,4.129645546359422
2.6534653465346536,4.0236817579622866
2.673267326732673,3.919494891353986
2.6930693069306932,3.8176634856335214
2.712871287128713,3.718804494788458
2.7326732673267324,3.623572386004954
2.7524752475247527,3.5326565602084115
2.7722772277227725,3.446776581181958
2.792079207920792,3.366674678414654
2.811881188118812,3.2931050346308903
2.8316831683168315,3.2268195143982012
2.8514851485148514,3.1685497639373943
2.8712871287128716,3.118986025953031
2.891089108910891,3.078753545467678
2.910891089108911,3.0483880248295376
2.9306930693069306,3.0283121008987006
2.9504950495049505,3.0188151178288107
2.9702970297029703,3.020038420913611
2.99009900990099,3.031967935081136
3.00990099009901,3.0544349614951676
3.0297029702970297,3.087125088361639
3.0495049504950495,3.129594098342321
3.0693069306930694,3.1812889876734975
3.089108910891089,3.2415718315507505
3.108910891089109,3.3097442585372034
3.128712871287129,3.3850706505076817
3.148514851485148,3.466798723269437
3.1683168316831685,3.5541767226676773
3.1881188118811883,3.6464669832683394
3.2079207920792077,3.742955983101578
3.227722772277228,3.8429612747468807
3.2475247524752473,3.9458357964534114
3.267326732673267,4.050970097259874
3.2871287128712874,4.157792979518209
3.3069306930693068,4.2657709984055305
3.3267326732673266,4.374407181214415
3.346534653465347,4.483239252560013
3.366336633663366,4.591837582464194
3.386138613861386,4.699803015802433
3.4059405940594063,4.806764694469276
3.4257425742574257,4.912377947027599
3.4455445544554455,5.01632229308548
3.4653465346534653,5.118299589536027
3.485148514851485,5.218032331520694
3.504950495049505,5.315262111159179
3.5247524752475248,5.409748230591674
3.5445544554455446,5.501266461801449
3.564356435643564,5.589607943331387
3.5841584158415842,5.67457820285444
3.603960396039604,5.755996294218591
3.6237623762376234,5.833694037780931
3.6435643564356437,5.907515353373836
3.6633663366336635,5.977315675968463
3.683168316831683,6.042961444920955
3.702970297029703,6.104329658540893
3.722772277227723,6.161307486567586
3.7425742574257423,6.21379193395252
3.762376237623762,6.26168955011107
3.7821782178217824,6.304916178516035
3.801980198019802,6.34339674215857
3.8217821782178216,6.377065060999121
3.841584158415842,6.405863698076026
3.8613861386138613,6.4297438314372455
3.881188118811881,6.448665149515967
3.9009900990099013,6.462595767990066
3.9207920792079207,6.471512166553524
3.9405940594059405,6.475399144391375
3.96039603960396,6.474249793493202
3.98019801980198,6.46806548927037
4.0,6.456855898262956
4.01980198019802,6.440639003040166
4.03960396039604,6.419441144717756
4.0594059405940595,6.393297083842525
4.079207920792079,6.362250080733541
4.099009900990099,6.326351996726822
4.118811881188119,6.285663418151229
4.138613861386139,6.240253805273746
4.158415841584159,6.190201668897576
4.178217821782178,6.1355947777836395
4.198019801980198,6.076530400598948
4.217821782178218,6.013115586681543
4.237623762376238,5.945467490553342
4.257425742574258,5.87371374581345
4.2772277227722775,5.797992894804929
4.297029702970297,5.718454881262975
4.316831683168317,5.635261614012334
4.336633663366336,5.548587610665213
4.356435643564357,5.458620731145586
4.376237623762377,5.365563011676402
4.3960396039603955,5.269631610532755
4.415841584158416,5.171059877264527
4.435643564356436,5.07009855705418
4.455445544554455,4.967017141150643
4.475247524752476,4.862105372567364
4.4950495049504955,4.755674912980034
4.514851485148514,4.648061171378507
4.534653465346535,4.539625286687446
4.554455445544555,4.430756244211429
4.574257425742574,4.3218730880688705
4.594059405940594,4.213427167204201
4.613861386138614,4.105904319401925
4.633663366336633,3.9998268543043487
4.653465346534653,3.895755141520127
4.673267326732674,3.7942885433523688
4.693069306930693,3.69606535542649
4.712871287128713,3.6017613380270137
4.732673267326733,3.5120863469631036
4.752475247524752,3.4277785228881763
4.772277227722772,3.3495954975866713
4.792079207920793,3.278302156745016
4.811881188118812,3.21465469464791
4.8316831683168315,3.159381032022242
4.851485148514852,3.113158145083221
4.871287128712871,3.076587432290862
4.891089108910891,3.0501698344079093
4.910891089108912,3.034282886056883
4.930693069306931,3.029162059761984
4.9504950495049505,3.034888548737777
4.97029702970297,3.051384996431863
4.99009900990099,3.0784197161674567
5.00990099009901,3.1156188569658494
5.02970297029703,3.1624850077041735
5.0495049504950495,3.2184200946211563
5.069306930693069,3.28275021342788
5.089108910891089,3.3547502204822037
5.108910891089109,3.433666369819255
5.128712871287129,3.5187358710976415
5.148514851485149,3.6092028209151
5.1683168316831685,3.7043304357721873
5.188118811881188,3.803409849990373
5.207920792079208,3.9057659373899773
5.227722772277227,4.010760696416652
5.247524752475248,4.117794738099058
5.267326732673268,4.226307366568051
5.2871287128712865,4.335775668177188
5.306930693069307,4.4457129450937725
5.326732673267327,4.555666753247864
5.346534653465346,4.6652167381888425
5.366336633663367,4.7739724076534396
5.3861386138613865,4.881570936351071
5.405940594059405,4.987675065391108
5.425742574257426,5.0919711342561556
5.445544554455446,5.194167265565884
5.465346534653465,5.293991710532252
5.485148514851486,5.3911913546719665
5.504950495049505,5.485530377957601
5.524752475247524,5.576789060329705
5.544554455445545,5.66476272172931
5.564356435643565,5.749260785075944
5.584158415841584,5.830105950567063
5.603960396039604,5.907133470065688
5.623762376237624,5.980190511000272
5.643564356435643,6.049135600002897
5.663366336633663,6.113838137379099
5.683168316831684,6.174177974379882
5.702970297029703,6.2300450461002965
5.7227722772277225,6.281339053639759
5.742574257425743,6.327969189915576
5.762376237623762,6.369853904218729
5.782178217821782,6.406920701241152
5.801980198019803,6.43910597088663
5.821782178217822,6.4663548457101125
5.841584158415841,6.488621083315768
5.861386138613861,6.505866971489382
5.881188118811881,6.518063254251103
5.900990099009901,6.525189077396139
5.920792079207921,6.527231952449531
5.9405940594059405,6.524187738302008
5.96039603960396,6.5160606401233006
5.98019801980198,6.502863225471709
6.0,6.484616457840298
6.01980198019802,6.461349748206145
6.03960396039604,6.433101025484175
6.0594059405940595,6.3999168271381714
6.079207920792079,6.361852411573225
6.099009900990099,6.318971894331968
6.118811881188119,6.27134841054895
6.138613861386139,6.219064306586633
6.158415841584159,6.162211364292606
6.178217821782178,6.100891061883411
6.198019801980198,6.035214876082508
6.217821782178218,5.9653046308235895
6.237623762376237,5.891292898575606
6.257425742574258,5.81332346115407
6.2772277227722775,5.7315518377470855
6.297029702970296,5.646145888791562
6.316831683168317,5.5572865052608025
6.336633663366337,5.465168393828891
6.356435643564356,5.370000969197097
6.376237623762377,5.272009365506828
6.396039603960396,5.171435579083185
6.415841584158415,5.068539754550024
6.435643564356436,4.963601625346815
6.455445544554456,4.856922117463603
6.475247524752475,4.748825121253032
6.495049504950495,4.639659429755901
6.514851485148515,4.529800832146619
6.534653465346534,4.4196543364685335
6.554455445544554,4.309656475320826
6.574257425742575,4.2002776198776814
6.594059405940594,4.092024189747817
6.6138613861386135,3.9854405970494127
6.633663366336634,3.881110701652787
6.653465346534653,3.7796584812596454
6.673267326732673,3.681747537948929
6.693069306930694,3.588078979442591
6.712871287128713,3.499387142231187
6.732673267326732,3.416432586241752
6.752475247524753,3.3399918164345643
6.772277227722772,3.270843310698615
6.792079207920792,3.209749689267063
6.811881188118813,3.1574362677787695
6.8316831683168315,3.1145667813962095
6.851485148514851,3.0817176897517875
6.871287128712871,3.059353055604243
6.891089108910891,3.047802377702894
6.910891089108911,3.0472437962662724
6.930693069306931,3.0576946855047646
6.9504950495049505,3.0790108246186714
6.97029702970297,3.1108942496161633
6.99009900990099,3.1529087761948027
7.00990099009901,3.204501299842956
7.02970297029703,3.2650264961958615
7.0495049504950495,3.333772508403011
7.069306930693069,3.409985543660933
7.089108910891089,3.49289186043363
7.108910891089109,3.5817162518551555
7.128712871287128,3.6756966944781224
7.148514851485149,3.774095264089888
7.1683168316831685,3.876205701660163
7.188118811881187,3.9813581574727706
7.207920792079208,4.088921682169666
7.227722772277228,4.1983050051933795
7.247524752475247,4.308956074634716
7.267326732673268,4.420360750556354
7.287128712871287,4.532040961306883
7.306930693069306,4.64355255751539
7.326732673267327,4.754483035101388
7.346534653465347,4.864449247556128
7.366336633663366,4.973095188121586
7.3861386138613865,5.080089892724802
7.405940594059406,5.185125492814165
7.425742574257425,5.287915431866635
7.445544554455446,5.3881928487868
7.465346534653466,5.485709124461559
7.485148514851485,5.5802325833850555
7.504950495049505,5.671547339773625
7.524752475247524,5.7594522763815466
7.544554455445544,5.843760143888858
7.564356435643565,5.924296768959583
7.584158415841584,6.000900359648496
7.603960396039604,6.073420897616938
7.623762376237624,6.141719607501194
7.643564356435643,6.205668494692145
7.663366336633663,6.265149943688653
7.683168316831684,6.320056370052647
7.702970297029703,6.370289919806203
7.7227722772277225,6.415762210862525
7.742574257425743,6.456394111773028
7.762376237623762,6.492115553702402
7.782178217821782,6.52286537211668
7.801980198019803,6.548591175192023
7.821782178217822,6.569249236428339
7.841584158415841,6.584804409389804
7.861386138613862,6.595230062898266
7.881188118811881,6.600508035383285
7.900990099009901,6.600628607448253
7.92079207920792,6.595590492052831
7.9405940594059405,6.585400842042828
7.96039603960396,6.5700752750853955
7.980198019801979,6.549637916395172
8.0,6.524121459972192
8.01980198019802,6.493567249419629
8.03960396039604,6.458025379774986
8.05940594059406,6.417554822178832
8.07920792079208,6.372223573625281
8.099009900990099,6.3221088344958725
8.118811881188119,6.267297217079262
8.138613861386139,6.207884988829897
8.158415841584159,6.143978354724867
8.178217821782178,6.075693783747164
8.198019801980198,6.003158385257048
8.217821782178218,5.9265103418155185
8.237623762376238,5.845899405891942
8.257425742574258,5.7614874688144475
8.277227722772277,5.673449211291273
8.297029702970297,5.581972845813652
8.316831683168317,5.48726096219986
8.336633663366337,5.389531488380051
8.356435643564357,5.289018779141945
8.376237623762377,5.185974845793018
8.396039603960396,5.080670739311191
8.415841584158416,4.97339809821981
8.435643564356436,4.86447086967468
8.455445544554456,4.754227207464529
8.475247524752476,4.643031542968827
8.495049504950495,4.531276813503762
8.514851485148515,4.419386815551668
8.534653465346535,4.307818626459318
8.554455445544555,4.197065005420397
8.574257425742575,4.087656640982283
8.594059405940595,3.9801640562769105
8.613861386138613,3.8751989139300225
8.633663366336634,3.773414381347651
8.653465346534654,3.6755041284154646
8.673267326732672,3.5821994434837188
8.693069306930694,3.494263887085262
8.712871287128714,3.4124848821480804
8.732673267326732,3.337661698803002
8.752475247524753,3.27058946956538
8.772277227722773,3.212039199119275
8.792079207920791,3.1627342225817126
8.811881188118813,3.1233241857692273
8.831683168316832,3.09435828234152
8.85148514851485,3.0762600409980974
8.871287128712872,3.069306237531145
8.891089108910892,3.0736123643997972
8.91089108910891,3.089126470165507
8.930693069306932,3.115632165481104
8.950495049504951,3.15276039400119
8.97029702970297,3.2000084619653673
8.990099009900991,3.2567640525334927
9.00990099009901,3.3223316496685524
9.029702970297029,3.3959589494747817
9.04950495049505,3.476861321091875
9.06930693069307,3.564243022813068
9.089108910891088,3.657314523554444
9.10891089108911,3.7553058172476184
9.12871287128713,3.8574759993680714
9.148514851485148,3.9631195994279564
9.16831683168317,4.07157025791485
9.188118811881187,4.182202338448863
9.207920792079207,4.294431012036206
9.227722772277229,4.407711269042502
9.247524752475247,4.5215362258661935
9.267326732673267,4.635435009349796
9.287128712871288,4.748970428854674
9.306930693069306,4.8617365857921095
9.326732673267326,4.973356523034239
9.346534653465348,5.083479980602195
9.366336633663366,5.191781297461124
9.386138613861386,5.29795748022772
9.405940594059407,5.401726446387351
9.425742574257425,5.502825440770192
9.445544554455445,5.6010096183808225
9.465346534653467,5.696050783305447
9.485148514851485,5.787736271648442
9.504950495049505,5.875867965767353
9.524752475247526,5.960261427111411
9.544554455445544,6.040745135460944
9.564356435643564,6.117159823127058
9.584158415841586,6.18935789357648
9.603960396039604,6.257202914909465
9.623762376237623,6.3205691795832815
9.643564356435645,6.379341322706915
9.663366336633663,6.433413992111473
9.683168316831683,6.48269156421846
9.702970297029704,6.5270879004780715
9.722772277227723,6.56652613983484
9.742574257425742,6.600938523301005
9.762376237623764,6.63026624728351
9.782178217821782,6.654459342825891
9.801980198019802,6.673476578396413
9.821782178217823,6.687285384286207
9.841584158415841,6.695861797081768
9.861386138613861,6.699190423051406
9.881188118811881,6.697264419641256
9.900990099009901,6.690085494619255
9.92079207920792,6.677663922740342
9.94059405940594,6.660018580140029
9.96039603960396,6.63717699700066
9.98019801980198,6.609175429381872
10.0,6.576058951470273
10.01980198019802,6.53788156988772
10.03960396039604,6.494706362111321
10.05940594059406,6.446605641506275
10.07920792079208,6.393661151962585
10.099009900990099,6.335964295665678
10.118811881188119,6.273616398125266
10.138613861386139,6.206729015244289
10.158415841584159,6.1354242879349306
10.178217821782178,6.059835350587504
10.198019801980198,5.9801068005707645
10.217821782178218,5.89639523688719
10.237623762376238,5.8088698771146
10.257425742574258,5.717713262816278
10.277227722772277,5.623122064661394
10.297029702970297,5.525307999509861
10.316831683168317,5.424498872592158
10.336633663366337,5.320939758524965
10.356435643564357,5.214894335053214
10.376237623762377,5.1066463828219995
10.396039603960396,4.996501462767177
10.415841584158416,4.88478877933081
10.435643564356436,4.771863231923942
10.455445544554454,4.658107647899213
10.475247524752476,4.543935176499181
10.495049504950495,4.429791803232364
10.514851485148514,4.316158916009763
10.534653465346535,4.203555816040573
10.554455445544555,4.092542015837344
10.574257425742573,3.9837191020987186
10.594059405940595,3.877731862391284
10.613861386138614,3.7752682836813776
10.633663366336632,3.677057934476167
10.653465346534654,3.583868153801873
10.673267326732674,3.496497411390237
10.693069306930692,3.4157652060063732
10.712871287128714,3.3424979727049253
10.732673267326733,3.277510716243613
10.752475247524751,3.2215845061042025
10.772277227722773,3.175440555702129
10.792079207920793,3.1397123080786846
10.81188118811881,3.114917640769262
10.831683168316832,3.1014338073624135
10.851485148514852,3.0994778655898894
