Time (s),Filtered Signal
0.0,-0.032934835952620686
0.03337028824833703,0.26536548586724296
0.06674057649667406,0.5920944268846313
0.10011086474501109,0.9509803059154834
0.13348115299334812,1.307814907974597
0.16685144124168516,1.5953948440303813
0.20022172949002218,1.7373823298745998
0.2335920177383592,1.6828038456706764
0.26696230598669624,1.436069253454886
0.3003325942350333,1.0666159878015085
0.3337028824833703,0.6897818678011937
0.3670731707317073,0.42405017044473603
0.40044345898004435,0.34273207880852263
0.4338137472283814,0.4428246894520844
0.4671840354767184,0.6465958974691373
0.5005543237250555,0.8356631514401376
0.5339246119733925,0.901424502261108
0.5672949002217295,0.7882378407446409
0.6006651884700666,0.5104051082683358
0.6340354767184035,0.1378291294617869
0.6674057649667406,-0.23939102675093737
0.7007760532150776,-0.5481064344750151
0.7341463414634146,-0.7532442180182328
0.7675166297117517,-0.855873615044806
0.8008869179600887,-0.8747016219405889
0.8342572062084257,-0.8259809130311009
0.8676274944567628,-0.7154844013256061
0.9009977827050998,-0.5463664675774267
0.9343680709534368,-0.3351042752274994
0.9677383592017739,-0.12198708216955192
1.001108647450111,0.0337434702739755
1.0344789356984478,0.07394503349240698
1.067849223946785,-0.03292723197801624
1.101219512195122,-0.2739065235325834
1.134589800443459,-0.5900391086862785
1.167960088691796,-0.8920061605233688
1.2013303769401331,-1.0863019427774927
1.23470066518847,-1.1025089381139528
1.268070953436807,-0.9136776771520896
1.3014412416851442,-0.5454330609514447
1.3348115299334813,-0.07265806873037327
1.3681818181818182,0.3956312063001104
1.4015521064301553,0.741566352408421
1.4349223946784924,0.8703865463298381
1.4682926829268292,0.7423262260917681
1.5016629711751663,0.39415331675006854
1.5350332594235034,-0.060907180253433536
1.5684035476718403,-0.4617708817545102
1.6017738359201774,-0.6531811264602344
1.6351441241685145,-0.5478835379247077
1.6685144124168514,-0.17126285974055963
1.7018847006651885,0.3362117998773653
1.7352549889135256,0.768266079629652
1.7686252771618625,0.9390988251790142
1.8019955654101996,0.770168643953678
1.8353658536585367,0.33482580576908116
1.8687361419068735,-0.16591730112128128
1.9021064301552106,-0.49063964822344414
1.9354767184035477,-0.46901176615658974
1.9688470066518848,-0.08374814282923686
2.002217294900222,0.5182625838702908
2.035587583148559,1.092251717898971
2.0689578713968957,1.4070415964559557
2.102328159645233,1.347105926015423
2.13569844789357,0.9565939599691512
2.1690687361419068,0.4072705513821299
2.202439024390244,-0.08937463557641866
2.235809312638581,-0.37985986451403325
2.269179600886918,-0.42942350623293607
2.302549889135255,-0.32104791585674536
2.335920177383592,-0.19992388820007387
2.369290465631929,-0.1952588089392695
2.4026607538802662,-0.3581641105228086
2.436031042128603,-0.6424478826285254
2.46940133037694,-0.9325006963672193
2.5027716186252773,-1.1007790791525076
2.536141906873614,-1.0661764100725242
2.569512195121951,-0.8273506485463192
2.6028824833702884,-0.4588267518537973
2.6362527716186253,-0.07513914876583534
2.6696230598669626,0.21842605378342303
2.7029933481152995,0.3659546115251873
2.7363636363636363,0.375483206147109
2.7697339246119737,0.30439727901235886
2.8031042128603105,0.22542198317719764
2.8364745011086474,0.19100304035659363
2.8698447893569847,0.21305113365919576
2.9032150776053216,0.2660644141226668
2.9365853658536585,0.30918400800123425
2.969955654101996,0.3131605610811704
3.0033259423503327,0.2764653817934811
3.0366962305986696,0.2217668417377234
3.070066518847007,0.17590633068125933
3.1034368070953438,0.14666204374871697
3.1368070953436806,0.11200367421241347
3.170177383592018,0.030473939571649414
3.203547671840355,-0.1313974695709073
3.2369179600886917,-0.3697508524399366
3.270288248337029,-0.6299147940316187
3.303658536585366,-0.8191328961812997
3.337028824833703,-0.8423013989000759
3.37039911308204,-0.6452125837115598
3.403769401330377,-0.24509596855993487
3.437139689578714,0.2667007500601905
3.470509977827051,0.7528747574628775
3.503880266075388,1.0784788656904076
3.537250554323725,1.159473709662243
3.5706208425720622,0.9909496267388178
3.603991130820399,0.6430134872171223
3.637361419068736,0.2268555268425737
3.6707317073170733,-0.15249576010325955
3.70410199556541,-0.4338823693752427
3.737472283813747,-0.6106713679392042
3.7708425720620844,-0.711788639085293
3.8042128603104213,-0.7671874690872422
3.8375831485587586,-0.7803204240890379
3.8709534368070955,-0.7250077329419728
3.9043237250554323,-0.5679891027320166
3.9376940133037697,-0.3014522915835688
3.9710643015521065,0.0369596535890833
4.004434589800444,0.3711426891008901
4.037804878048781,0.6174920993088386
4.071175166297118,0.7215419718316415
4.1045454545454545,0.6790642089900507
4.137915742793791,0.5311700677788249
4.171286031042128,0.3394496424488709
4.204656319290466,0.15809085470005727
4.238026607538803,0.018611950574020767
4.27139689578714,-0.06838639038495509
4.304767184035477,-0.10228673453027033
4.3381374722838135,-0.08470491885018502
4.371507760532151,-0.02173641859583658
4.404878048780488,0.06743146784770615
4.438248337028825,0.14608684479180747
4.471618625277162,0.16838680776012063
4.504988913525499,0.09994278824347105
4.538359201773836,-0.06001096883938802
4.571729490022173,-0.26907249366657954
4.60509977827051,-0.45338692994089874
4.638470066518847,-0.5375939776741379
4.671840354767184,-0.4791503306143385
4.705210643015521,-0.2897301187306562
4.738580931263858,-0.03256384099759523
4.771951219512196,0.20318328257107499
4.8053215077605325,0.33857695822684014
4.838691796008869,0.3349012853278458
4.872062084257206,0.20503758478942932
4.905432372505543,0.00340630467148403
4.93880266075388,-0.19891848516274557
4.972172949002218,-0.34224709305232986
5.005543237250555,-0.3982188776513321
5.0389135254988915,-0.3748741008033997
5.072283813747228,-0.30621941995757196
5.105654101995565,-0.23146101597410149
5.139024390243902,-0.1730471969219767
5.17239467849224,-0.12353039666162975
5.205764966740577,-0.04819073276442769
5.239135254988914,0.0962492109264345
5.2725055432372505,0.33437215529504694
5.305875831485587,0.6492732085875444
5.339246119733925,0.9768442137078882
5.372616407982262,1.222724329415555
5.405986696230599,1.296689206728203
5.439356984478936,1.1500916130850134
5.472727272727273,0.7994629469616079
5.5060975609756095,0.3250649433556652
5.539467849223947,-0.1558052861100631
5.572838137472284,-0.5300465712745001
5.606208425720621,-0.7279485327390101
5.639578713968958,-0.7450657323119068
5.672949002217295,-0.6387866402264152
5.706319290465632,-0.5016700237821599
5.7396895787139695,-0.4226003984427326
5.773059866962306,-0.4514636496839247
5.806430155210643,-0.5815220109764431
5.83980044345898,-0.7562534299766265
5.873170731707317,-0.8968517086530744
5.906541019955654,-0.9374104334363906
5.939911308203992,-0.8515397845869349
5.9732815964523285,-0.6588296530650848
6.006651884700665,-0.41012680503484333
6.040022172949002,-0.161427745268637
6.073392461197339,0.048888827782187574
6.106762749445676,0.20857004580329833
6.140133037694014,0.3246221610048617
6.173503325942351,0.4091427332442628
6.2068736141906875,0.46863011082331274
6.240243902439024,0.5028071979325327
6.273614190687361,0.5111213610772685
6.306984478935698,0.5000194278864526
6.340354767184036,0.484856319066577
6.373725055432373,0.485152569547537
6.40709534368071,0.5165343496963138
6.4404656319290465,0.5839406178997353
6.473835920177383,0.6787487176800797
6.507206208425721,0.7798218946434081
6.540576496674058,0.8572583508653581
6.573946784922395,0.8779922994914688
6.607317073170732,0.813029506828729
6.640687361419069,0.6457691488921959
6.674057649667406,0.37957005537808
6.707427937915743,0.041541094087423014
6.74079822616408,-0.32031179661608356
6.774168514412417,-0.6474921994298898
6.807538802660754,-0.8867297040383525
6.840909090909091,-1.0058631180894093
6.874279379157428,-1.0037149861311097
6.9076496674057655,-0.9095067401942051
6.941019955654102,-0.7713782114643388
6.974390243902439,-0.638148086662277
7.007760532150776,-0.5414523582923554
7.041130820399113,-0.4853915382668376
7.07450110864745,-0.4477400712653902
7.107871396895788,-0.39192876697707874
7.1412416851441245,-0.2845266470016108
7.174611973392461,-0.11085261645749868
7.207982261640798,0.11742067582927897
7.241352549889135,0.3649757943721297
7.274722838137472,0.5837918172616161
7.30809312638581,0.7274640565103331
7.341463414634147,0.7638910104552354
7.3748337028824835,0.6831796811651141
7.40820399113082,0.4999580628367118
7.441574279379157,0.2507566082496086
7.474944567627494,-0.012630100004692968
7.508314855875832,-0.2332551107907787
7.541685144124169,-0.36203882192546777
7.575055432372506,-0.3720470898921078
7.6084257206208425,-0.27040907919635093
7.641796008869179,-0.10260150930294752
7.675166297117517,0.055782325106252334
7.708536585365854,0.12108479081477543
7.741906873614191,0.03262960765623866
7.775277161862528,-0.21809239757371232
7.808647450110865,-0.573283791264988
7.842017738359202,-0.9191479175450503
7.875388026607539,-1.1206865880569474
7.908758314855876,-1.0699359013356144
7.942128603104213,-0.7292105088249787
7.97549889135255,-0.15142166212488717
8.008869179600888,0.5317689117275635
8.042239467849225,1.1502489646690672
8.075609756097561,1.5494135024124287
8.108980044345898,1.6385726702272774
8.142350332594235,1.4178578887409654
8.175720620842572,0.9759354449702741
8.209090909090909,0.46022199687114834
8.242461197339246,0.029116691854874185
8.275831485587583,-0.1990739998645033
8.30920177383592,-0.18409453045497537
8.342572062084257,0.02496117212006083
8.375942350332595,0.31036204421192065
8.409312638580932,0.5319914726723265
8.442682926829269,0.581738724985289
8.476053215077606,0.4240839444623708
8.509423503325943,0.10599560755795877
8.54279379157428,-0.2674816460496706
8.576164079822616,-0.5801018768003825
8.609534368070953,-0.7519533000878805
8.64290465631929,-0.7666265879761307
8.676274944567627,-0.668006050423639
8.709645232815964,-0.5318561457630424
8.743015521064303,-0.4286310267724576
8.77638580931264,-0.39584985290585567
8.809756097560976,-0.4309770242381496
8.843126385809313,-0.503893413529694
8.87649667405765,-0.5783636235624039
8.909866962305987,-0.6291655494471372
8.943237250554324,-0.6464176495890704
8.97660753880266,-0.6277103918577533
9.009977827050998,-0.5665080978579131
9.043348115299334,-0.4474329601554882
9.076718403547671,-0.25422624678082933
9.110088691796008,0.01287985511689746
9.143458980044347,0.32156830267306485
9.176829268292684,0.6063918394787643
9.21019955654102,0.7883767717077792
9.243569844789358,0.8094299045204927
9.276940133037694,0.6651644528991772
9.310310421286031,0.4173379323469413
9.343680709534368,0.17536440023693747
9.377050997782705,0.05178229853658193
9.410421286031042,0.11105832841245217
9.443791574279379,0.33649618668301895
9.477161862527716,0.6327036989534645
9.510532150776053,0.8643180467634243
9.543902439024391,0.9140029777912514
9.577272727272728,0.7332486992976497
9.610643015521065,0.3630426954258858
9.644013303769402,-0.08396993511158637
9.677383592017739,-0.4702698643122862
9.710753880266076,-0.6872871180078374
9.744124168514412,-0.6931897305742322
9.77749445676275,-0.5209585339468666
9.810864745011086,-0.25725387627246954
9.844235033259423,-0.004344483809471652
9.87760532150776,0.15799693722072
9.910975609756099,0.19666027646049306
9.944345898004435,0.1290275304676342
9.977716186252772,0.008328162998167108
10.01108647450111,-0.10160466253285262
10.044456762749446,-0.15180779342153986
10.077827050997783,-0.12461539364545628
10.11119733924612,-0.03589208220158211
10.144567627494457,0.07612715029588787
10.177937915742794,0.16899357068167592
10.21130820399113,0.21221669902247797
10.244678492239467,0.19450267902871327
10.278048780487804,0.12081152395795271
10.311419068736143,0.003954547969471196
10.34478935698448,-0.142106276205289
10.378159645232817,-0.30273086021738016
10.411529933481154,-0.45811234777054494
10.44490022172949,-0.579857027454161
10.478270509977827,-0.6347942549451367
10.511640798226164,-0.5972399549999619
10.545011086474501,-0.4641415515328989
10.578381374722838,-0.2636839146415023
10.611751662971175,-0.050131593087786044
10.645121951219512,0.11495753918011707
10.67849223946785,0.1869169873671782
10.711862527716187,0.1556030748019014
10.745232815964524,0.04764169205715513
10.778603104212861,-0.08731731462642685
10.811973392461198,-0.198460736617982
10.845343680709535,-0.25214141155250896
10.878713968957872,-0.23808928851783007
10.912084257206208,-0.16278597176773626
10.945454545454545,-0.03704705725281266
10.978824833702882,0.1322786947305027
11.012195121951219,0.3403079063795915
11.045565410199556,0.5734943683427779
11.078935698447895,0.7990010000388719
11.112305986696231,0.9642024682432071
11.145676274944568,1.0112124056642224
11.179046563192905,0.9021178429904765
11.212416851441242,0.6427321146266217
11.245787139689579,0.291026920300063
11.279157427937916,-0.05741509734868494
11.312527716186253,-0.30333140582945795
11.34589800443459,-0.38297193384986383
11.379268292682926,-0.29440404195343706
11.412638580931263,-0.09784229388115442
11.4460088691796,0.1110572375583428
11.479379157427939,0.24289108646429494
11.512749445676276,0.2516527305861377
11.546119733924613,0.14993162285005446
11.57949002217295,-0.004325448930054699
11.612860310421286,-0.14180309075698447
11.646230598669623,-0.2187425182632332
11.67960088691796,-0.23817121309754632
11.712971175166297,-0.24551317478785178
11.746341463414634,-0.3019481056953843
11.77971175166297,-0.44962192023099823
11.813082039911308,-0.6858157621068613
11.846452328159646,-0.9578583490354604
11.879822616407983,-1.1804682146544383
11.91319290465632,-1.2674605679853497
11.946563192904657,-1.164375048042572
11.979933481152994,-0.8691441289421511
12.01330376940133,-0.4335135074109068
12.046674057649668,0.05412766388013743
12.080044345898004,0.4968881385246429
12.113414634146341,0.8175982996408445
12.146784922394678,0.9775847623976627
12.180155210643015,0.9812876042572305
12.213525498891352,0.8677668791030038
12.24689578713969,0.6942944773861571
12.280266075388028,0.518442918704139
12.313636363636364,0.3836948241136573
12.347006651884701,0.3111070830104376
12.380376940133038,0.29752294489143155
12.413747228381375,0.3198115964069539
12.447117516629712,0.3440753179677046
12.480487804878049,0.33785044231578676
12.513858093126386,0.28196426166591704
12.547228381374723,0.17787015462356048
12.58059866962306,0.047181469285191
12.613968957871396,-0.07696674979463287
12.647339246119735,-0.16337450246833238
12.680709534368072,-0.19522225611805896
12.714079822616409,-0.176042329529963
12.747450110864746,-0.1269292461315436
12.780820399113082,-0.07692800948823218
12.81419068736142,-0.05146152779377431
12.847560975609756,-0.06385916890234286
12.880931263858093,-0.11282310883529394
12.91430155210643,-0.18557763501482336
12.947671840354767,-0.26416456820950995
12.981042128603104,-0.33172762954314083
13.014412416851442,-0.37650010587234994
13.04778270509978,-0.39280808121071814
13.081152993348116,-0.37990612739618734
13.114523281596453,-0.34027494602723873
13.14789356984479,-0.2788249617061831
13.181263858093127,-0.20336863540560954
13.214634146341464,-0.12536665172031525
13.2480044345898,-0.05923923625482268
13.281374722838137,-0.019093533753935146
13.314745011086474,-0.013368387684455817
13.348115299334811,-0.03967281237210923
13.381485587583148,-0.08283194380237682
13.414855875831487,-0.11821688948379139
13.448226164079824,-0.12011081349531896
13.48159645232816,-0.07223738811113051
13.514966740576497,0.024035868085924797
13.548337028824834,0.1480175758085843
13.581707317073171,0.26644654538838336
13.615077605321508,0.3470073010366398
13.648447893569845,0.37337923147137325
13.681818181818182,0.3547331104154353
13.715188470066519,0.3238635354971379
13.748558758314855,0.3228225117588362
13.781929046563192,0.381346564961958
13.815299334811531,0.4982678163759413
13.848669623059868,0.6362046649682513
13.882039911308205,0.7340921588705634
13.915410199556542,0.7329419859928605
13.948780487804878,0.6025958531626802
13.982150776053215,0.3558863458022894
14.015521064301552,0.04291802726338594
14.048891352549889,-0.27114008661277844
14.082261640798226,-0.5325199127599413
14.115631929046563,-0.71568753554941
14.1490022172949,-0.8231336408562706
14.182372505543238,-0.8711688816455376
14.215742793791575,-0.8726070238714471
14.249113082039912,-0.8277152256010575
14.282483370288249,-0.7281683107057395
14.315853658536586,-0.5697434614029405
14.349223946784923,-0.3640968917081555
14.38259423503326,-0.14128898267408294
14.415964523281596,0.05880593423289582
14.449334811529933,0.20119371497870359
14.48270509977827,0.2686010564086915
14.516075388026607,0.26656251904801564
14.549445676274944,0.21959081374501474
14.582815964523283,0.16127667726567893
14.61618625277162,0.12257656230335105
14.649556541019956,0.12186910770308565
14.682926829268293,0.15921762127754077
14.71629711751663,0.21652792386968261
14.749667405764967,0.2643733066252586
14.783037694013304,0.2742217977715345
14.81640798226164,0.23188655569281386
14.849778270509978,0.1460614185430702
14.883148558758315,0.046873798269318895
14.916518847006651,-0.026174520762736634
14.949889135254988,-0.04186700729914119
14.983259423503327,0.007918646827425125
15.016629711751664,0.10366471044210278
15.05,0.20627876538213633
15.083370288248338,0.2738718938117823
15.116740576496674,0.2792980727095359
15.150110864745011,0.2205809006253744
15.183481152993348,0.1201747246152892
15.216851441241685,0.014328814021447759
15.250221729490022,-0.062082951137565894
15.283592017738359,-0.08877548071358654
15.316962305986696,-0.06660533966960894
15.350332594235034,-0.015957438225016586
15.383702882483371,0.03170223640372397
15.417073170731708,0.04615997488270877
15.450443458980045,0.011041123323395597
15.483813747228382,-0.06736025922847846
15.517184035476719,-0.15899774384969861
15.550554323725056,-0.21932508403280365
15.583924611973393,-0.2078719446948144
15.61729490022173,-0.11002786281800106
15.650665188470066,0.04806056016390098
15.684035476718403,0.20121299358458197
15.71740576496674,0.26712354666881044
15.750776053215079,0.1820249589272865
15.784146341463416,-0.06513487414293408
15.817516629711752,-0.4174850677222065
15.85088691796009,-0.7646344562585067
15.884257206208426,-0.9837523154426794
15.917627494456763,-0.9905578609929545
15.9509977827051,-0.7767695790057875
15.984368070953437,-0.41534535773341824
16.017738359201775,-0.029564010701178374
16.05110864745011,0.2603786330605536
16.08447893569845,0.3881749947481336
16.117849223946784,0.36558030912300826
16.151219512195123,0.26914644672334725
16.184589800443458,0.19722950932871275
16.217960088691797,0.21922099405810722
16.251330376940132,0.34190419130474037
16.28470066518847,0.5085856902718606
16.31807095343681,0.6302523222050539
16.351441241685144,0.6325364767428411
16.384811529933483,0.4949753423035206
16.418181818181818,0.2631940723032235
16.451552106430157,0.02814539891014755
16.48492239467849,-0.11716105078297988
16.51829268292683,-0.121932026539497
16.551662971175165,-0.0010608932264868408
16.585033259423504,0.1733606584023907
16.61840354767184,0.3074920525929622
16.651773835920178,0.329854196706537
16.685144124168513,0.22224323037600863
16.71851441241685,0.02345168287868016
16.75188470066519,-0.19349208382145086
16.785254988913525,-0.3565849586903578
16.818625277161864,-0.42395915245384536
16.8519955654102,-0.39396846041186007
16.885365853658538,-0.29528806973880134
16.918736141906873,-0.1666387594121319
16.95210643015521,-0.03915010475510133
16.985476718403547,0.07023136617825826
17.018847006651885,0.15445025815991853
17.05221729490022,0.20801532461481792
17.08558758314856,0.2224900274834371
17.118957871396898,0.1892707114395269
17.152328159645233,0.10701254739643648
17.18569844789357,-0.012497654676694692
17.219068736141907,-0.14514346725716354
17.252439024390245,-0.2625282065066879
17.28580931263858,-0.3431083924266499
17.31917960088692,-0.3803567871741195
17.352549889135254,-0.3837524307023445
