Frequency (Hz),Amplitude
0.0,0.22861708812471448
0.019867549668874173,0.22947987989687385
0.039735099337748346,0.23204570755425452
0.059602649006622516,0.23624937873358115
0.07947019867549669,0.24198979668265935
0.09933774834437085,0.24913941680668292
0.11920529801324503,0.2575545029872359
0.13907284768211922,0.2670845469359631
0.15894039735099338,0.27757984507228795
0.17880794701986755,0.2888968873349668
0.1986754966887417,0.30090169558515956
0.2185430463576159,0.313471502447507
0.23841059602649006,0.32649522918047846
0.2582781456953642,0.3398731786609091
0.27814569536423844,0.35351627117765594
0.2980132450331126,0.36734505687671254
0.31788079470198677,0.38128865866200123
0.33774834437086093,0.39528373883267115
0.3576158940397351,0.40927354056299386
0.3774834437086093,0.4232070277935657
0.3973509933774834,0.4370381301867596
0.4172185430463576,0.45072509010811224
0.4370860927152318,0.4642299035707894
0.45695364238410596,0.4775178449327233
0.4768211920529801,0.4905570646731719
0.49668874172185434,0.5033182500346218
0.5165562913907285,0.5157743392274671
0.5364238410596026,0.5279002809797508
0.5562913907284769,0.539672832315252
0.5761589403973509,0.5510703884776729
0.5960264900662252,0.5620728398487431
0.6158940397350993,0.5726614515217656
0.6357615894039735,0.5828187618908398
0.6556291390728477,0.5925284972097282
0.6754966887417219,0.6017754995736897
0.695364238410596,0.6105456661963822
0.7152317880794702,0.618825898203508
0.7350993377483444,0.6266040574561442
0.7549668874172186,0.6338689301597212
0.7748344370860927,0.6406101962167686
0.7947019867549668,0.646818403450743
0.8145695364238411,0.6524849459694804
0.8344370860927152,0.6576020460553078
0.8543046357615894,0.6621627390688394
0.8741721854304636,0.6661608609378021
0.8940397350993378,0.6695910378741334
0.9139072847682119,0.6724486780241462
0.9337748344370861,0.6747299648097529
0.9536423841059603,0.6764318517652407
0.9735099337748344,0.677552058715169
0.9933774834437087,0.6780890691760144
1.0132450331125828,0.6780421288979066
1.033112582781457,0.6774112454945013
1.0529801324503312,0.6761971891393701
1.0728476821192052,0.6744014943366748
1.0927152317880795,0.6720264628042201
1.1125827814569538,0.6690751675374211
1.1324503311258278,0.6655514581557058
1.1523178807947019,0.6614599676679046
1.1721854304635762,0.6568061208323969
1.1920529801324504,0.6515961443313145
1.2119205298013245,0.6458370790277532
1.2317880794701985,0.6395367946323677
1.2516556291390728,0.6327040071717472
1.271523178807947,0.6253482997290659
1.2913907284768211,0.6174801470188717
1.3112582781456954,0.6091109444662861
1.3311258278145695,0.6002530425898637
1.3509933774834437,0.590919787640848
1.370860927152318,0.5811255696353989
1.390728476821192,0.5708858791360704
1.410596026490066,0.5602173744024109
1.4304635761589404,0.5491379608460244
1.4503311258278146,0.5376668851030341
1.4701986754966887,0.5258248464875714
1.4900662251655628,0.5136341291250586
1.5099337748344372,0.5011187586960056
1.5298013245033113,0.48830468845851416
1.5496688741721854,0.47522002006666403
1.5695364238410596,0.46189526565553135
1.5894039735099337,0.44836365869788214
1.609271523178808,0.4346615221932676
1.6291390728476822,0.4208287037102457
1.6490066225165563,0.4069090874587438
1.6688741721854303,0.39295119356018104
1.6887417218543048,0.3790088734219938
1.7086092715231789,0.36514210667701646
1.728476821192053,0.35141789809920504
1.7483443708609272,0.3379112601867845
1.7682119205298013,0.32470624587248686
1.7880794701986755,0.3118969625173664
1.8079470198675496,0.2995884491873035
1.8278145695364238,0.28789723161309444
1.847682119205298,0.27695128481154163
1.8675496688741722,0.26688904307590117
1.8874172185430464,0.25785702823586143
1.9072847682119205,0.2500056691151244
1.9271523178807946,0.24348302628032942
1.9470198675496688,0.2384264799442573
1.9668874172185429,0.23495299217873655
1.9867549668874174,0.2331492042040054
2.0066225165562916,0.23306312096697937
2.0264900662251657,0.23469916127662466
2.0463576158940397,0.23801774913832976
2.066225165562914,0.24293954309452795
2.086092715231788,0.249353281190824
2.1059602649006623,0.2571255205548204
2.1258278145695364,0.2661104791267187
2.1456953642384105,0.2761586220149745
2.165562913907285,0.2871232777439658
2.185430463576159,0.2988651485566038
2.205298013245033,0.3112549576635108
2.2251655629139075,0.32417464652447153
2.2450331125827816,0.33751755520496485
2.2649006622516556,0.35118795812260467
2.2847682119205297,0.36510023890249654
2.3046357615894038,0.37917790208307867
2.324503311258278,0.39335254914783924
2.3443708609271523,0.40756289453821815
2.364238410596027,0.4217538617969014
2.384105960264901,0.4358757771129375
2.403973509933775,0.44988366366628896
2.423841059602649,0.46373663235178475
2.443708609271523,0.4773973605233785
2.463576158940397,0.49083164883491676
2.4834437086092715,0.5040080460655191
2.5033112582781456,0.5168975323735311
2.52317880794702,0.5294732523330186
2.543046357615894,0.5417102901409714
2.562913907284768,0.5535854804134273
2.5827814569536423,0.5650772489475171
2.6026490066225163,0.5761654786844104
2.622516556291391,0.5868313968571071
2.642384105960265,0.5970574799498914
2.662251655629139,0.6068273736422659
2.6821192052980134,0.61612582537025
2.7019867549668874,0.6249386275240332
2.7218543046357615,0.6332525696235599
2.741721854304636,0.6410553980836156
2.76158940397351,0.6483357824047239
2.781456953642384,0.6550832868146607
2.801324503311258,0.6612883465424458
2.821192052980132,0.666942248038946
2.8410596026490067,0.6720371125692194
2.8609271523178808,0.6765658826957012
2.8807947019867552,0.6805223112507328
2.9006622516556293,0.6839009524655661
2.9205298013245033,0.6866971549811489
2.9403973509933774,0.6889070565173353
2.9602649006622515,0.6905275800220472
2.9801324503311255,0.6915564311618613
3.0,0.6919920970520576
3.0198675496688745,0.6918338461578172
3.0397350993377485,0.6910817293301529
3.0596026490066226,0.6897365819710898
3.0794701986754967,0.6878000273534298
3.0993377483443707,0.6852744811518307
3.119205298013245,0.682163157274777
3.1390728476821192,0.6784700751220674
3.1589403973509933,0.6742000684310101
3.1788079470198674,0.6693587959170085
3.198675496688742,0.6639527539622826
3.218543046357616,0.6579892916616813
3.23841059602649,0.6514766285977042
3.2582781456953644,0.6444238757908365
3.2781456953642385,0.6368410603577074
3.2980132450331126,0.6287391545114026
3.3178807947019866,0.6201301096587699
3.3377483443708607,0.6110268964924058
3.3576158940397347,0.6014435521449838
3.3774834437086096,0.5913952356762291
3.3973509933774837,0.5808982934040176
3.4172185430463577,0.5699703358788903
3.437086092715232,0.5586303286438352
3.456953642384106,0.5468986993272448
3.47682119205298,0.5347974640973935
3.4966887417218544,0.5223503770699851
3.5165562913907285,0.5095831069142105
3.5364238410596025,0.4965234456507168
3.556291390728477,0.4832015554700757
3.576158940397351,0.4696502603008062
3.596026490066225,0.45590538977000095
3.615894039735099,0.4420061840285597
3.6357615894039736,0.42799576848121407
3.6556291390728477,0.4139217074732769
3.6754966887417218,0.39983664496123
3.695364238410596,0.3857990373820099
3.7152317880794703,0.37187397819960094
3.7350993377483444,0.3581341033002266
3.754966887417219,0.3446605492648018
3.774834437086093,0.33154390970265546
3.794701986754967,0.3188850951285999
3.814569536423841,0.30679594681239464
3.834437086092715,0.2953993848582928
3.854304635761589,0.2848287921033784
3.8741721854304636,0.27522626652325166
3.8940397350993377,0.26673935087328615
3.9139072847682117,0.25951592193615725
3.9337748344370858,0.25369715078931987
3.9536423841059607,0.2494088596004225
3.9735099337748347,0.24675215072627646
3.993377483443709,0.24579470557150726
4.013245033112583,0.2465643916190035
4.033112582781457,0.24904656166618866
4.052980132450331,0.25318566784168944
4.072847682119205,0.25889080346250687
4.0927152317880795,0.26604393374997864
4.112582781456953,0.2745091928440212
4.132450331125828,0.2841417613044235
4.152317880794702,0.2947953150018477
4.172185430463576,0.30632759618940136
4.19205298013245,0.3186041101263617
4.211920529801325,0.3315002219340033
4.231788079470199,0.34490203411934534
4.251655629139073,0.3587064199422092
4.271523178807947,0.37282052674754124
4.291390728476821,0.38716098582002306
4.311258278145695,0.40165299296988644
4.33112582781457,0.41622936576717673
4.3509933774834435,0.4308296404926841
4.370860927152318,0.4453992424348235
4.390728476821192,0.4598887440676972
4.410596026490066,0.47425321395557646
4.43046357615894,0.48845165255549555
4.450331125827815,0.5024465076645298
4.470198675496689,0.5162032608461342
4.490066225165563,0.5296900759452461
4.509933774834438,0.5428775012320796
4.529801324503311,0.5557382174682532
4.549668874172186,0.5682468250658518
4.569536423841059,0.5803796643969297
4.589403973509934,0.5921146641457113
4.6092715231788075,0.6034312133503235
4.629139072847682,0.6143100534447918
4.649006622516556,0.6247331871867314
4.66887417218543,0.6346838018473313
4.688741721854305,0.6441462044572317
4.708609271523179,0.6531057672535926
4.728476821192054,0.6615488817699188
4.748344370860927,0.6694629202586098
4.768211920529802,0.676836203345308
4.788079470198675,0.6836579729892213
4.80794701986755,0.6899183699713666
4.827814569536423,0.695608415257086
4.847682119205298,0.7007199946843986
4.867549668874172,0.7052458465195238
4.887417218543046,0.7091795514970429
4.9072847682119205,0.71251552502839
4.927152317880794,0.7152490113192752
4.947019867549669,0.7173760791869077
4.966887417218543,0.7188936194125132
4.986754966887418,0.7197993435047875
5.006622516556291,0.7200917837871583
5.026490066225166,0.7197702947562443
5.04635761589404,0.7188350556925646
5.066225165562914,0.7172870745371451
5.086092715231788,0.7151281930811182
5.105960264900662,0.7123610935494631
5.125827814569536,0.7089893066966486
5.14569536423841,0.7050172215708794
5.1655629139072845,0.7004500971471239
5.185430463576159,0.695294076077271
5.205298013245033,0.6895562008605544
5.225165562913908,0.6832444328001727
5.245033112582782,0.6763676741842594
5.264900662251656,0.6689357942138758
5.28476821192053,0.6609596592990326
5.304635761589404,0.6524511684596684
5.324503311258278,0.6434232947048448
5.344370860927152,0.6338901334245998
5.364238410596027,0.6238669590192736
5.3841059602649,0.6133702912165837
5.403973509933775,0.6024179727929702
5.4238410596026485,0.591029260729559
5.443708609271523,0.5792249332025879
5.463576158940397,0.5670274152387539
5.483443708609272,0.554460926366173
5.503311258278146,0.5415516541629795
5.52317880794702,0.5283279582486223
5.543046357615895,0.5148206099656633
5.562913907284768,0.5010630737364473
5.582781456953643,0.4870918367954541
5.602649006622516,0.47294679459874295
5.622516556291391,0.45867169953264125
5.642384105960264,0.444314680320316
5.662251655629139,0.42992883833691353
5.682119205298013,0.4155729242571887
5.701986754966887,0.40131209313220895
5.7218543046357615,0.38721872679708697
5.741721854304636,0.3733732976671619
5.7615894039735105,0.3598652252849766
5.781456953642384,0.346793644076758
5.801324503311259,0.3342679558697775
5.821192052980132,0.3224079840759388
5.841059602649007,0.31134348297185416
5.860927152317881,0.301212698421431
5.880794701986755,0.2921596509794111
5.900662251655629,0.28432985687116097
5.920529801324503,0.277864361039378
5.940397350993377,0.2728922585315329
5.960264900662251,0.26952230618520906
5.980132450331126,0.26783467537228395
6.0,0.26787419108323574
6.0198675496688745,0.269646356767596
6.039735099337749,0.27311699990968064
6.059602649006623,0.2782156061870561
6.079470198675497,0.2848416187197018
6.099337748344371,0.2928724550463894
6.119205298013245,0.3021718836434055
6.139072847682119,0.3125976519224915
6.158940397350993,0.324007691935531
6.178807947019867,0.3362646647837166
6.198675496688741,0.3492389269122073
6.218543046357616,0.3628101806683906
6.23841059602649,0.3768681314908276
6.258278145695365,0.3913124579431705
6.2781456953642385,0.40605234798367407
6.298013245033113,0.42100579243734726
6.317880794701987,0.43609876935966224
6.337748344370861,0.45126440677691193
6.357615894039735,0.46644217699161605
6.377483443708609,0.481577151718224
6.397350993377484,0.4966193314895382
6.417218543046357,0.5115230528433233
6.437086092715232,0.5262464709410342
6.456953642384105,0.5407511121114362
6.47682119205298,0.5550014893707554
6.496688741721854,0.5689647735757826
6.516556291390729,0.5826105130750395
6.5364238410596025,0.5959103952501597
6.556291390728477,0.6088380440096751
6.5761589403973515,0.6213688480049159
6.596026490066225,0.6334798150231933
6.6158940397351,0.645149448646322
6.635761589403973,0.6563576438290262
6.655629139072848,0.6670855985494141
6.675496688741721,0.6773157391144463
6.695364238410596,0.6870316570730188
6.715231788079469,0.6962180560047473
6.735099337748344,0.7048607067203524
6.754966887417219,0.7129464096366179
6.774834437086093,0.7204629632811227
6.794701986754967,0.7273991380449795
6.814569536423841,0.7337446544396373
6.8344370860927155,0.7394901652316709
6.854304635761589,0.7446272409292507
6.874172185430464,0.7491483581802019
6.894039735099337,0.75304689071554
6.913907284768212,0.7563171025366938
6.933774834437086,0.7589541431012244
6.95364238410596,0.7609540443120222
6.973509933774834,0.7623137191600744
6.993377483443709,0.7630309619124331
7.013245033112583,0.7631044497754901
7.033112582781457,0.7625337460008061
7.052980132450331,0.7613193044365001
7.072847682119205,0.7594624755635131
7.0927152317880795,0.7569655140928017
7.112582781456954,0.7538315882383708
7.132450331125828,0.7500647908224471
7.152317880794702,0.7456701524143573
7.172185430463576,0.7406536567546391
7.19205298013245,0.7350222587724974
7.211920529801324,0.7287839055681702
7.231788079470198,0.7219475608054706
7.251655629139073,0.7145232330438663
7.271523178807947,0.706522008637734
7.291390728476822,0.6979560899445242
7.311258278145695,0.6888388397168194
7.33112582781457,0.679184832709703
7.3509933774834435,0.6690099157172046
7.370860927152318,0.6583312774658548
7.390728476821192,0.6471675300431344
7.410596026490066,0.6355388038294892
7.430463576158941,0.6234668582398518
7.450331125827814,0.6109752109675574
7.470198675496689,0.5980892888637953
7.490066225165562,0.584836604077352
7.509933774834438,0.5712469596155682
7.52980132450331,0.5573526890508979
7.549668874172186,0.5431889356526594
7.569536423841059,0.5287939767107341
7.589403973509934,0.5142095991338638
7.6092715231788075,0.4994815323860311
7.629139072847682,0.48465994421606057
7.649006622516557,0.4698000030517676
7.66887417218543,0.4549625078080933
7.6887417218543055,0.44021458039642974
7.708609271523178,0.4256304073341102
7.728476821192054,0.41129200314336145
7.748344370860927,0.39728994807230017
7.768211920529802,0.38372402446660575
7.788079470198675,0.370703638910538
7.80794701986755,0.3583478718725867
7.827814569536423,0.3467849475215609
7.847682119205298,0.336150874226856
7.8675496688741715,0.3265869900533146
7.887417218543046,0.3182361849825009
7.907284768211921,0.3112376938524528
7.927152317880795,0.3057205821029072
7.9470198675496695,0.3017963690225025
7.966887417218543,0.29955158533248494
7.986754966887418,0.29904132370050773
8.006622516556291,0.3002848752174373
8.026490066225167,0.30326427122622535
8.046357615894038,0.3079260107550566
8.066225165562914,0.31418561920732757
8.086092715231787,0.32193417283404224
8.105960264900663,0.33104569095376374
8.125827814569536,0.34138436719463794
8.14569536423841,0.35281088951843825
8.165562913907285,0.36518744908556344
8.185430463576159,0.37838134746620555
8.205298013245034,0.392267323842734
8.225165562913906,0.4067288330595007
8.245033112582782,0.42165853472186904
8.264900662251655,0.43695823381770627
8.28476821192053,0.4525384707752764
8.304635761589404,0.46831791105569776
8.324503311258278,0.48422264085097677
8.344370860927151,0.5001854400890828
8.364238410596027,0.5161450772884868
8.3841059602649,0.5320456518196918
8.403973509933774,0.5478359962494865
8.42384105960265,0.563469143103455
8.443708609271523,0.5789018552628087
8.463576158940398,0.5940942162866024
8.483443708609272,0.6090092754685442
8.503311258278146,0.6236127418692549
8.52317880794702,0.6378727215498395
8.543046357615895,0.651759492531813
8.562913907284768,0.6652453124683975
8.582781456953642,0.6783042545370257
8.602649006622515,0.690912067595289
8.62251655629139,0.7030460571496486
8.642384105960264,0.7146849841518997
8.66225165562914,0.7258089790554424
8.682119205298013,0.7363994689309374
8.701986754966887,0.7464391157610982
8.721854304635762,0.755911764311415
8.741721854304636,0.7648023982117601
8.76158940397351,0.7730971030880329
8.781456953642383,0.7807830357581563
8.801324503311259,0.7878483986562795
8.821192052980132,0.7942824187775871
8.841059602649008,0.8000753305463335
8.86092715231788,0.805218362104937
8.880794701986755,0.8097037246042295
8.90066225165563,0.8135246041472406
8.920529801324504,0.816675156101918
8.940397350993377,0.819150501554732
8.960264900662251,0.8209467257279135
8.980132450331126,0.822060878229423
9.0,0.82249097504838
9.019867549668875,0.8222360022496392
9.039735099337747,0.8212959213614637
9.059602649006623,0.8196716764900449
9.079470198675496,0.8173652032351935
9.099337748344372,0.8143794395236735
9.119205298013245,0.8107183385216339
9.139072847682119,0.8063868838357932
9.158940397350994,0.8013911072664927
9.178807947019868,0.7957381094348976
9.198675496688743,0.7894360836734021
9.218543046357615,0.7824943436440591
9.23841059602649,0.7749233552366162
9.258278145695364,0.7667347733972445
9.27814569536424,0.7579414846540072
9.298013245033111,0.7485576562381199
9.317880794701987,0.7385987928535107
9.33774834437086,0.7280818023254472
9.357615894039736,0.7170250715641381
9.37748344370861,0.7054485545156638
9.397350993377483,0.6933738740432628
9.417218543046358,0.6808244399889022
9.437086092715232,0.6678255860099264
9.456953642384107,0.6544047281657401
9.47682119205298,0.6405915486387084
9.496688741721854,0.6264182083977156
9.516556291390728,0.6119195930253862
9.536423841059603,0.5971335962867372
9.556291390728477,0.5821014462455537
9.57615894039735,0.5668680787220842
9.596026490066224,0.5514825624606189
9.6158940397351,0.5359985792837351
9.635761589403973,0.5204749603860676
9.655629139072847,0.504976276250959
9.675496688741722,0.48957347176596816
9.695364238410596,0.4743445290773325
9.715231788079471,0.4593751274912365
9.735099337748345,0.4447592511712247
9.754966887417218,0.4305996705776961
9.774834437086092,0.41700819238847814
9.794701986754967,0.4041055365533186
9.814569536423841,0.3920206627218102
9.834437086092716,0.3808893407057243
9.854304635761588,0.3708517558370222
9.874172185430464,0.3620489801915595
9.894039735099337,0.35461824565277494
9.913907284768213,0.3486871367942383
9.933774834437086,0.344367069520089
9.95364238410596,0.3417466883262758
9.973509933774835,0.3408860181361912
9.993377483443709,0.34181225110136826
10.013245033112582,0.34451787311760224
10.033112582781456,0.3489614553230498
10.052980132450331,0.3550709561976741
10.072847682119205,0.36274895027432164
10.09271523178808,0.37187894608259564
10.112582781456952,0.38233192608399597
10.132450331125828,0.3939723964859725
10.152317880794701,0.40666348661734536
10.172185430463577,0.4202708960320063
10.192052980132452,0.4346656930062684
10.211920529801324,0.4497260984242419
10.2317880794702,0.4653384498028049
10.251655629139073,0.4813975502464445
10.271523178807948,0.4978065871668401
10.29139072847682,0.5144767722788112
10.311258278145695,0.5313268186013519
10.331125827814569,0.5482823378586554
10.350993377483444,0.5652752152045908
10.370860927152318,0.5822429979283025
10.390728476821192,0.5991283200586003
10.410596026490065,0.6158783745212203
10.43046357615894,0.6324444376474546
10.450331125827816,0.6487814464570749
10.470198675496688,0.6648476265025961
10.490066225165563,0.6806041666074294
10.509933774834437,0.696014936152817
10.529801324503312,0.7110462403827957
10.549668874172186,0.7256666093086969
10.56953642384106,0.7398466160744691
10.589403973509933,0.7535587210072566
10.609271523178808,0.7667771379707083
