Time (s),Filtered Signal
0.0,0.03413270550624433
0.03337004405286344,-0.4750776664056463
0.06674008810572687,-0.864190568232535
0.10011013215859031,-1.0607622293140284
0.13348017621145375,-1.064389120113481
0.16685022026431717,-0.9358760010456267
0.20022026431718062,-0.7605275027144338
0.23359030837004408,-0.6072421637318275
0.2669603524229075,-0.5044592152622243
0.3003303964757709,-0.4416763633229295
0.33370044052863435,-0.38990312853445924
0.3670704845814978,-0.3254613097366479
0.40044052863436125,-0.2431571820705316
0.43381057268722467,-0.15411738256858457
0.46718061674008815,-0.0735352350226495
0.5005506607929515,-0.008279629593771062
0.533920704845815,0.04774175127596399
0.5672907488986785,0.10865825418560669
0.6006607929515418,0.18617366554166218
0.6340308370044053,0.28015303116001083
0.6674008810572687,0.37558052402481334
0.7007709251101322,0.4474767736575015
0.7341409691629956,0.47129088525635365
0.767511013215859,0.43375909675085805
0.8008810572687225,0.3392483195304769
0.834251101321586,0.20894774936267285
0.8676211453744493,0.07360984815308652
0.9009911894273128,-0.03682711805464793
0.9343612334801763,-0.10260732601958275
0.9677312775330397,-0.11944183027929112
1.001101321585903,-0.09862128330975006
1.0344713656387665,-0.06264434771198633
1.06784140969163,-0.03795012656734787
1.1012114537444935,-0.0464853093697752
1.134581497797357,-0.09782628190968916
1.1679515418502202,-0.18383686886523462
1.2013215859030837,-0.27809909327677834
1.2346916299559472,-0.3417866975357462
1.2680616740088106,-0.3356950183714946
1.3014317180616741,-0.23526770740859193
1.3348017621145374,-0.04315102659084515
1.3681718061674009,0.20638647810544436
1.4015418502202643,0.4543738658285241
1.4349118942731278,0.6343559562521676
1.4682819383259913,0.694573855040442
1.5016519823788548,0.6171875877757262
1.535022026431718,0.4268795816376413
1.5683920704845815,0.1844712269985096
1.601762114537445,-0.03337387360108892
1.6351321585903085,-0.1615880447715636
1.668502202643172,-0.17093459841227895
1.7018722466960352,-0.07913054576264897
1.7352422907488987,0.0562826730509486
1.7686123348017622,0.16104553011458264
1.8019823788546256,0.1740943868791362
1.8353524229074891,0.0719715949362964
1.8687224669603526,-0.12230937516978939
1.9020925110132159,-0.34921375235768437
1.9354625550660793,-0.5366140285184766
1.9688325991189428,-0.6272317784749109
2.002202643171806,-0.5984311723219822
2.0355726872246698,-0.4673544964546284
2.068942731277533,-0.2810362970073395
2.1023127753303967,-0.09706963997120747
2.13568281938326,0.03678610729935698
2.1690528634361232,0.09660666127051802
2.202422907488987,0.08607053858848601
2.23579295154185,0.030460067527227266
2.269162995594714,-0.03540690223352183
2.302533039647577,-0.0803597580065251
2.3359030837004404,-0.08681842163064629
2.369273127753304,-0.05486535112026308
2.4026431718061674,0.00013870852442745925
2.436013215859031,0.05511207878987804
2.4693832599118943,0.08925077079210164
2.5027533039647576,0.09291952686319396
2.5361233480176213,0.07200607042370752
2.5694933920704845,0.0456222353990706
2.6028634361233483,0.037447556356804135
2.6362334801762115,0.06384478540153488
2.6696035242290748,0.12394050848768084
2.7029735682819385,0.19691609938786656
2.7363436123348017,0.24921300668633956
2.7697136563876654,0.24986393832283987
2.8030837004405287,0.18759531455783587
2.8364537444933924,0.08111421535525994
2.8698237885462556,-0.024172228120703857
2.903193832599119,-0.07394827964295618
2.9365638766519826,-0.030777025710039242
2.969933920704846,0.10398795352810562
3.0033039647577096,0.28398218611826587
3.036674008810573,0.43278867159550893
3.070044052863436,0.4754726814705174
3.1034140969162998,0.3731673872688997
3.136784140969163,0.14428681482065914
3.1701541850220267,-0.1388489756582485
3.20352422907489,-0.37795672836703026
3.2368942731277532,-0.4894321817808538
3.270264317180617,-0.439375698422624
3.30363436123348,-0.2570493769287726
3.337004405286344,-0.02090388083703644
3.370374449339207,0.1758997189470413
3.4037444933920704,0.26435648765368003
3.437114537444934,0.22546233090198264
3.4704845814977974,0.0925028467266971
3.503854625550661,-0.06935445289768138
3.5372246696035243,-0.19500826991756753
3.5705947136563876,-0.24737724376548942
3.6039647577092513,-0.22911821463568416
3.6373348017621145,-0.17474472634526633
3.6707048458149782,-0.12945937166856517
3.7040748898678415,-0.12656282104806885
3.737444933920705,-0.17424936981149286
3.7708149779735685,-0.25616830187159484
3.8041850220264317,-0.34241292174203247
3.8375550660792954,-0.4030619671463033
3.8709251101321587,-0.4171859459476713
3.9042951541850224,-0.37498037067077933
3.9376651982378856,-0.2756728763596705
3.971035242290749,-0.12566314645775287
4.004405286343612,0.060782705839620844
4.037775330396476,0.25985852968971274
4.0711453744493395,0.4394463927092083
4.104515418502203,0.5658756096392757
4.137885462555066,0.6148521848857473
4.171255506607929,0.5813975136464584
4.2046255506607935,0.48289715793988747
4.237995594713657,0.3524871437251943
4.27136563876652,0.22522235367776774
4.304735682819383,0.12365671154493854
4.3381057268722465,0.05012802027886094
4.371475770925111,-0.010258906633241357
4.404845814977974,-0.07747971787430655
4.438215859030837,-0.16165028360073808
4.4715859030837,-0.25334226589943115
4.504955947136564,-0.3247726616571006
4.538325991189428,-0.34210154239479257
4.571696035242291,-0.2833038381430604
4.605066079295154,-0.1527501192781125
4.638436123348018,0.015461969889135936
4.671806167400881,0.16835933718537965
4.705176211453745,0.25512288776389724
4.738546255506608,0.248870052666945
4.7719162995594715,0.15881225009311775
4.805286343612335,0.026672244626785642
4.838656387665198,-0.09129042735058142
4.872026431718062,-0.1483876177557063
4.905396475770925,-0.12660772027234787
4.938766519823789,-0.04214219959919094
4.972136563876652,0.06456558155747294
5.005506607929515,0.14870817685869617
5.038876651982379,0.18090836748649294
5.072246696035243,0.15756971696301392
5.105616740088106,0.09782832287005089
5.138986784140969,0.030297853612676874
5.172356828193832,-0.022223008432113073
5.2057268722466965,-0.05177614458262278
5.23909691629956,-0.06422927208963713
5.272466960352423,-0.07072317054504752
5.305837004405286,-0.07826667564486045
5.3392070484581495,-0.0858840641382233
5.372577092511014,-0.08842523526691302
5.405947136563877,-0.08469586888826162
5.43931718061674,-0.08341681948159714
5.4726872246696034,-0.10168978325138604
5.506057268722468,-0.15547646540657115
5.539427312775331,-0.2471160149615593
5.572797356828194,-0.3576011048796617
5.606167400881057,-0.44936632024953305
5.639537444933921,-0.4797358724693473
5.672907488986785,-0.4191845575325616
5.706277533039648,-0.26564568874662375
5.739647577092511,-0.0478535041216256
5.7730176211453745,0.18394602298758067
5.806387665198238,0.37561379898969666
5.839757709251102,0.48725447793272103
5.873127753303965,0.5045468781628785
5.9064977973568284,0.43977267421939054
5.939867841409692,0.3239554695112097
5.973237885462555,0.19496478219509147
6.006607929515419,0.08692448462511047
6.039977973568282,0.02402539742821051
6.073348017621146,0.018575609824231867
6.106718061674009,0.0709576447026219
6.140088105726872,0.16937310911262757
6.173458149779736,0.2894490818618444
6.2068281938325995,0.39610115247632216
6.240198237885463,0.4503914935094602
6.273568281938326,0.4216348653680578
6.306938325991189,0.3008888522258887
6.3403083700440535,0.10895559530953529
6.373678414096917,-0.1072505910431845
6.40704845814978,-0.29104278958409485
6.440418502202643,-0.3989773480970562
6.4737885462555065,-0.4196034225256202
6.507158590308371,-0.37781090112012483
6.540528634361234,-0.32147743656995087
6.573898678414097,-0.2965084561932772
6.60726872246696,-0.32299348686998025
6.640638766519824,-0.3850921485175684
6.674008810572688,-0.4401963061401481
6.707378854625551,-0.44262419444261697
6.740748898678414,-0.36920168973275225
6.774118942731278,-0.23295540443333732
6.807488986784141,-0.0774862173394794
6.840859030837005,0.045001556800015066
6.874229074889868,0.10025978679520357
6.9075991189427315,0.08904630709690142
6.940969162995595,0.04587646311346049
6.974339207048458,0.020580725084458653
7.007709251101322,0.05269184729266438
7.041079295154185,0.1518515420201403
7.074449339207049,0.29355338559619404
7.107819383259912,0.43129686780656207
7.141189427312775,0.5182985504905954
7.174559471365639,0.5281207804305258
7.207929515418503,0.46508076002969917
7.241299559471366,0.3606033500868702
7.274669603524229,0.2579889351506492
7.308039647577092,0.19274482433054732
7.3414096916299565,0.17707919853547355
7.37477973568282,0.19511065117688112
7.408149779735683,0.2107354622012212
7.441519823788546,0.18469384407237582
7.47488986784141,0.09330670743237512
7.508259911894274,-0.05956953321682336
7.541629955947137,-0.24290260849544681
7.575,-0.41099338050156653
7.608370044052863,-0.5221814933974565
7.641740088105728,-0.5549507609027373
7.675110132158591,-0.5142947275366481
7.708480176211454,-0.426371657828238
7.741850220264317,-0.3252020822032892
7.775220264317181,-0.2383982014053793
7.808590308370045,-0.17833846739491221
7.841960352422908,-0.14170363061235766
7.875330396475771,-0.1160476850205573
7.9087004405286345,-0.08911985899369959
7.942070484581498,-0.05599134296019057
7.975440528634362,-0.0206175693315105
8.008810572687224,0.008504693368898966
8.042180616740088,0.025725041119080305
8.075550660792953,0.03396554146334379
8.108920704845815,0.0447749289850077
8.142290748898679,0.07193432049454654
8.175660792951541,0.1219952452627859
8.209030837004406,0.1876514376209997
8.24240088105727,0.24881465941152112
8.275770925110132,0.2818965495991538
8.309140969162996,0.2726186051149816
8.342511013215859,0.22501873519680635
8.375881057268723,0.1610847702941278
8.409251101321587,0.11068342736457397
8.44262114537445,0.0969756924961593
8.475991189427313,0.12499841589926801
8.509361233480176,0.17921925175306905
8.54273127753304,0.2309612367434545
8.576101321585904,0.25155853308251963
8.609471365638766,0.22460193163364653
8.64284140969163,0.15167298048837383
8.676211453744493,0.04965416856139148
8.709581497797357,-0.05804987437215527
8.742951541850221,-0.1513897878689156
8.776321585903084,-0.2197837426333224
8.809691629955948,-0.2622143760200558
8.84306167400881,-0.2825838354417054
8.876431718061674,-0.2840481260116565
8.909801762114538,-0.26613911489918257
8.9431718061674,-0.2263301954506344
8.976541850220265,-0.16469945031704666
9.009911894273127,-0.08828282352627953
9.043281938325991,-0.011755284928736563
9.076651982378856,0.04682314510684892
9.110022026431718,0.07349324397358702
9.143392070484582,0.06524402868090874
9.176762114537445,0.032255257813369236
9.210132158590309,-0.006268008988744693
9.243502202643173,-0.031096703083279966
9.276872246696035,-0.03245069997415943
9.3102422907489,-0.014976643941229604
9.343612334801762,0.004646612458120826
9.376982378854626,0.00655188630862986
9.41035242290749,-0.021434257841736897
9.443722466960352,-0.07649061152200756
9.477092511013216,-0.14087199884405266
9.510462555066079,-0.1892378080889034
9.543832599118943,-0.19933127788331823
9.577202643171807,-0.16057270342301194
9.61057268722467,-0.07669627717684054
9.643942731277534,0.03780175490886548
9.677312775330396,0.16422055447383585
9.71068281938326,0.28496448429186516
9.744052863436124,0.38515525933349515
9.777422907488987,0.4513212394492504
9.81079295154185,0.47019637894220706
9.844162995594713,0.43037886232334566
9.877533039647577,0.3271178392657751
9.910903083700441,0.16769618355089227
9.944273127753304,-0.026259705156593965
9.977643171806168,-0.22193697114473585
10.01101321585903,-0.3835096217421945
10.044383259911895,-0.48221696263328423
10.077753303964759,-0.504276420412536
10.111123348017621,-0.45369860061289136
10.144493392070485,-0.34946977336544593
10.177863436123348,-0.21880699569797826
10.211233480176212,-0.08922609664579662
10.244603524229076,0.018125488247132334
10.277973568281938,0.09239871513120759
10.311343612334802,0.13372962706157712
10.344713656387665,0.15088690992602208
10.378083700440529,0.156705348864848
10.411453744493393,0.16276471707284876
10.444823788546255,0.1751521824145892
10.47819383259912,0.1928386491197448
10.511563876651982,0.20911677308444776
10.544933920704846,0.2151896197170839
10.57830396475771,0.2041512507914691
10.611674008810573,0.17373833222955054
10.645044052863437,0.12714592729520463
10.678414096916299,0.07218352410516585
10.711784140969163,0.019470111509556423
10.745154185022027,-0.019845362739145868
10.77852422907489,-0.03672873680629134
10.811894273127754,-0.027144035100157168
10.845264317180618,0.005485404305075362
10.87863436123348,0.04948155839611466
10.912004405286345,0.08695878666602057
10.945374449339207,0.09886421831408639
10.978744493392071,0.07160674208452025
11.012114537444935,0.002708707341120349
11.045484581497798,-0.09708689524678628
11.078854625550662,-0.20657193277054695
11.112224669603524,-0.3010825867541433
11.145594713656388,-0.3613672302461462
11.178964757709252,-0.38093996479447245
11.212334801762115,-0.36876630009834904
11.245704845814979,-0.34562772227461963
11.279074889867841,-0.33496673041539976
11.312444933920705,-0.35157147229663716
11.34581497797357,-0.3929153776439704
11.379185022026432,-0.43735433002600277
11.412555066079296,-0.4506777614247594
11.445925110132158,-0.39887423551840745
11.479295154185023,-0.2621796471334415
11.512665198237887,-0.044839423529892064
11.546035242290749,0.2233339016344178
11.579405286343613,0.49448003795845125
11.612775330396476,0.7169161426564936
11.64614537444934,0.8512434384395423
11.679515418502204,0.8825709090772206
11.712885462555066,0.8241557215961657
11.74625550660793,0.7108026498412946
11.779625550660793,0.5844579639596059
11.812995594713657,0.4778448911814016
11.846365638766521,0.40299071918866913
11.879735682819383,0.3494050440704991
11.913105726872248,0.2923518862624092
11.94647577092511,0.20713785884541455
11.979845814977974,0.08273303169493935
12.013215859030838,-0.07150126457381431
12.0465859030837,-0.22897859108114746
12.079955947136565,-0.35743403486001996
12.113325991189427,-0.43350461858733774
12.146696035242291,-0.45354471374350924
12.180066079295155,-0.43555109982717816
12.213436123348018,-0.4112096908204488
12.246806167400882,-0.41172632999477093
12.280176211453744,-0.45392181868677767
12.313546255506608,-0.5326395215287102
12.346916299559473,-0.6222332640636968
12.380286343612335,-0.6857359412734696
12.413656387665199,-0.6874898851192768
12.447026431718061,-0.6046528282045281
12.480396475770926,-0.43453666072063557
12.51376651982379,-0.19668201492849505
12.547136563876652,0.070276459236687
12.580506607929516,0.3165709593118965
12.613876651982379,0.4932865016259478
12.647246696035243,0.5662830293722007
12.680616740088107,0.5281271681093621
12.71398678414097,0.40310886863886985
12.747356828193833,0.2416662417604198
12.780726872246696,0.10427085611715163
12.81409691629956,0.03968279406981062
12.847466960352424,0.06610003216939248
12.880837004405286,0.16387338813294966
12.91420704845815,0.2842799265316551
12.947577092511013,0.37164611912058226
12.980947136563877,0.38916783423881923
13.014317180616741,0.3359317973286662
13.047687224669604,0.24612121211168778
13.081057268722468,0.17007355885525086
13.11442731277533,0.14642821921621854
13.147797356828194,0.17977202370633028
13.181167400881058,0.23582937234055915
13.21453744493392,0.2573334254956176
13.247907488986785,0.1929194747453593
13.281277533039647,0.024494373653483052
13.314647577092511,-0.2207214131054679
13.348017621145376,-0.479346692310766
13.381387665198238,-0.6772939532659602
13.414757709251102,-0.7588645876091042
13.448127753303964,-0.7060122642370706
13.481497797356829,-0.5403943602508408
13.514867841409693,-0.31000910014870126
13.548237885462555,-0.06927887899201712
13.58160792951542,0.13717138645490873
13.614977973568282,0.28111766020343937
13.648348017621146,0.34862460906401765
13.68171806167401,0.33510180363136916
13.715088105726872,0.2437020947041396
13.748458149779736,0.08906676731566618
13.781828193832599,-0.09719403996384947
13.815198237885463,-0.2660642736317166
13.848568281938327,-0.36082015424059044
13.88193832599119,-0.3360319237614652
13.915308370044054,-0.17830651605649228
13.948678414096916,0.08202203095216859
13.98204845814978,0.37621841254963007
14.015418502202644,0.6195101905089685
14.048788546255507,0.74162400411372
14.08215859030837,0.7118555982909879
14.115528634361233,0.5473086634379412
14.148898678414097,0.3012140618633225
14.182268722466961,0.03805709897907264
14.215638766519824,-0.191708537553905
14.249008810572688,-0.3654362254441834
14.28237885462555,-0.4856715611176478
14.315748898678414,-0.5654177046956629
14.349118942731279,-0.6116940296546485
14.382488986784141,-0.6176773163349812
14.415859030837005,-0.567720280911731
14.449229074889868,-0.45139374093891205
14.482599118942732,-0.27718172932249535
14.515969162995596,-0.0766425004155696
14.549339207048458,0.10457910355520654
14.582709251101322,0.22488331208623152
14.616079295154185,0.2646624664415036
14.649449339207049,0.23459062289675664
14.682819383259913,0.16975783108394096
14.716189427312775,0.11246046733409551
14.74955947136564,0.09223984528847816
14.782929515418502,0.1131027874616332
14.816299559471366,0.15415375187819702
14.84966960352423,0.18299724972459133
14.883039647577093,0.17468520619513617
14.916409691629957,0.12609589147141206
14.94977973568282,0.058069994488849176
14.983149779735683,0.004228382423639249
15.016519823788547,-0.007373651469067722
15.04988986784141,0.03026329483931201
15.083259911894274,0.09882164896750842
15.116629955947138,0.16384429968126557
15.15,0.19238063476914305
15.183370044052865,0.16985190134677544
15.216740088105727,0.10760957013937503
15.250110132158591,0.03767708897362473
15.283480176211455,-0.0023913795234111086
15.316850220264318,0.012949810241531284
15.350220264317182,0.08539508306734353
15.383590308370044,0.1915038920910554
15.416960352422908,0.2917331777452413
15.450330396475772,0.3452025106481259
15.483700440528635,0.32391823803131076
15.517070484581499,0.22142366635305083
15.550440528634361,0.053825822997509744
15.583810572687225,-0.14585047547303423
15.61718061674009,-0.3372379849715932
15.650550660792952,-0.4830400585087001
15.683920704845816,-0.5577703211478036
15.717290748898678,-0.5531525091352569
15.750660792951543,-0.47927042603531683
15.784030837004407,-0.36126527266446534
15.817400881057269,-0.23222840761275584
15.850770925110133,-0.12396158666370387
15.884140969162996,-0.05817404341302845
15.91751101321586,-0.040936338676199197
15.950881057268724,-0.06241203011517317
15.984251101321586,-0.10209876146362264
16.01762114537445,-0.1376486928734183
16.050991189427315,-0.15374173399037488
16.084361233480177,-0.14726273030889486
16.11773127753304,-0.1264581784356328
16.151101321585905,-0.10437996354831379
16.184471365638768,-0.08971691846544004
16.21784140969163,-0.07976282043916945
16.251211453744492,-0.05974129648466891
16.284581497797358,-0.009848404240162738
16.31795154185022,0.08274594867857704
16.351321585903083,0.2130262564362905
16.38469162995595,0.3549337197647741
16.41806167400881,0.46912459595481565
16.451431718061674,0.5192356089173359
16.48480176211454,0.48903758141246223
16.518171806167402,0.39143776518068385
16.551541850220264,0.26390480983543974
16.584911894273127,0.1518578252736457
16.618281938325993,0.08805862337425581
16.651651982378855,0.07836004030012415
16.685022026431717,0.10091875311300737
16.718392070484583,0.1189544142571146
16.751762114537446,0.10020334231712226
16.785132158590308,0.03311192236512562
16.818502202643174,-0.06795359344436064
16.851872246696036,-0.17012756651194397
16.8852422907489,-0.2373331400725912
16.91861233480176,-0.24538233466979592
16.951982378854627,-0.19009092606977512
16.98535242290749,-0.08617120228803005
17.01872246696035,0.040456261768492874
17.052092511013218,0.16187849909508004
17.08546255506608,0.2548434649264985
17.118832599118942,0.3037730555479365
17.152202643171808,0.3016750242281502
17.18557268722467,0.2509178311994582
17.218942731277533,0.16412246901976696
