Time (s),Filtered Signal
0.0,-0.013546657043431956
0.03337004405286344,-0.06165298169980767
0.06674008810572687,-0.12128061567721632
0.10011013215859031,-0.19256930156278446
0.13348017621145375,-0.2594092214909704
0.16685022026431717,-0.29354480665263616
0.20022026431718062,-0.26663463992995345
0.23359030837004408,-0.16494298452069847
0.2669603524229075,0.0005024706100561717
0.3003303964757709,0.19393094681291034
0.33370044052863435,0.36617739841663294
0.3670704845814978,0.47298909186028393
0.40044052863436125,0.49211687187577
0.43381057268722467,0.4311032807749105
0.46718061674008815,0.3219323941320382
0.5005506607929515,0.20513032720595126
0.533920704845815,0.11117283025060269
0.5672907488986785,0.04832859400400465
0.6006607929515418,0.0026185116856351958
0.6340308370044053,-0.05076521395586653
0.6674008810572687,-0.13107512863359785
0.7007709251101322,-0.23943032100522343
0.7341409691629956,-0.3564420564494381
0.767511013215859,-0.45083730588974713
0.8008810572687225,-0.49410019611052974
0.834251101321586,-0.473232796083932
0.8676211453744493,-0.39509539840454155
0.9009911894273128,-0.2805720409342918
0.9343612334801763,-0.15239977889542763
0.9677312775330397,-0.02388956777274839
1.001101321585903,0.1048864856341993
1.0344713656387665,0.24125090141808458
1.06784140969163,0.38799269734420044
1.1012114537444935,0.5328708523863614
1.134581497797357,0.6468392689253819
1.1679515418502202,0.6937324622663369
1.2013215859030837,0.6475428989282905
1.2346916299559472,0.5083817237175967
1.2680616740088106,0.3078145834674338
1.3014317180616741,0.09919291310976033
1.3348017621145374,-0.06350297506895401
1.3681718061674009,-0.14826037622556162
1.4015418502202643,-0.1577218078194107
1.4349118942731278,-0.125560939834901
1.4682819383259913,-0.09870784023798553
1.5016519823788548,-0.11495167546243344
1.535022026431718,-0.18746035033464475
1.5683920704845815,-0.3033684676321012
1.601762114537445,-0.43544259682720454
1.6351321585903085,-0.5586670888508442
1.668502202643172,-0.661454439124749
1.7018722466960352,-0.7451391441344656
1.7352422907488987,-0.8130042403426718
1.7686123348017622,-0.8568026664563465
1.8019823788546256,-0.8506164136984287
1.8353524229074891,-0.7578003265545216
1.8687224669603526,-0.5489864250188075
1.9020925110132159,-0.22212226921726122
1.9354625550660793,0.18664306319433407
1.9688325991189428,0.6083556236797979
2.002202643171806,0.9619425438748535
2.0355726872246698,1.1814575834663292
2.068942731277533,1.2379768785163463
2.1023127753303967,1.147097178166244
2.13568281938326,0.9599796950740269
2.1690528634361232,0.7430673910047614
2.202422907488987,0.555478019234465
2.23579295154185,0.4324324264584459
2.269162995594714,0.3791971545016274
2.302533039647577,0.37539000553415036
2.3359030837004404,0.38619171073410563
2.369273127753304,0.3757872316564562
2.4026431718061674,0.3188093871404408
2.436013215859031,0.2068386404180039
2.4693832599118943,0.048569429305567166
2.5027533039647576,-0.1360195059224792
2.5361233480176213,-0.32527097055329435
2.5694933920704845,-0.5053829780469815
2.6028634361233483,-0.6755320607507241
2.6362334801762115,-0.8457100291215511
2.6696035242290748,-1.027703157232558
2.7029735682819385,-1.223352960981454
2.7363436123348017,-1.4161967332774186
2.7697136563876654,-1.5713326462928028
2.8030837004405287,-1.6443102526570499
2.8364537444933924,-1.595255122523242
2.8698237885462556,-1.4019616221712288
2.903193832599119,-1.06667070494001
2.9365638766519826,-0.6148655897929259
2.969933920704846,-0.08831077381633692
3.0033039647577096,0.46355189831990207
3.036674008810573,0.9906106834984056
3.070044052863436,1.4467896916769165
3.1034140969162998,1.793882224815507
3.136784140969163,2.006120567169883
3.1701541850220267,2.0753002415928417
3.20352422907489,2.0139975569845805
3.2368942731277532,1.853581282028151
3.270264317180617,1.6353676635537384
3.30363436123348,1.3968177200831964
3.337004405286344,1.1581745857454784
3.370374449339207,0.9161367765302523
3.4037444933920704,0.6488143726687025
3.437114537444934,0.33097406163177984
3.4704845814977974,-0.04704056198674974
3.503854625550661,-0.4661503890037283
3.5372246696035243,-0.8786502485103076
3.5705947136563876,-1.223040131979957
3.6039647577092513,-1.4478602744779148
3.6373348017621145,-1.5341431547213886
3.6707048458149782,-1.5061375385396198
3.7040748898678415,-1.4245450682244514
3.737444933920705,-1.3635586860679665
3.7708149779735685,-1.3797321828820053
3.8041850220264317,-1.4847287147561543
3.8375550660792954,-1.6337384378797601
3.8709251101321587,-1.7363902018536905
3.9042951541850224,-1.6884319638964556
3.9376651982378856,-1.4132945484736203
3.971035242290749,-0.8970355019137471
4.004405286343612,-0.20144458214232114
4.037775330396476,0.5514250881080839
4.0711453744493395,1.2179446050743967
4.104515418502203,1.67956801634241
4.137885462555066,1.8792633257696676
4.171255506607929,1.8345292159861772
4.2046255506607935,1.6238622524495294
4.237995594713657,1.3538059020605713
4.27136563876652,1.1201078376497302
4.304735682819383,0.9772594040991882
4.3381057268722465,0.9263665847521044
4.371475770925111,0.9239690082759892
4.404845814977974,0.9067123688369677
4.438215859030837,0.8212393712272213
4.4715859030837,0.6472003429426546
4.504955947136564,0.40451518463090486
4.538325991189428,0.14280424366782155
4.571696035242291,-0.08147741301761992
4.605066079295154,-0.22952096726517146
4.638436123348018,-0.29527513880256706
4.671806167400881,-0.3049337102070761
4.705176211453745,-0.30206355102822574
4.738546255506608,-0.3262811138335606
4.7719162995594715,-0.39592506505406827
4.805286343612335,-0.5024962701736831
4.838656387665198,-0.6183206864550392
4.872026431718062,-0.7123207577593196
4.905396475770925,-0.7652989818777192
4.938766519823789,-0.7772708803333983
4.972136563876652,-0.7641525283914059
5.005506607929515,-0.746741781166191
5.038876651982379,-0.7384977863622373
5.072246696035243,-0.7385536762441045
5.105616740088106,-0.7331251418544137
5.138986784140969,-0.7039587835423845
5.172356828193832,-0.6390129263615983
5.2057268722466965,-0.5397053083762505
5.23909691629956,-0.4209632179327251
5.272466960352423,-0.30392243651522366
5.305837004405286,-0.20477226816007163
5.3392070484581495,-0.1253314364030312
5.372577092511014,-0.05048822659249675
5.405947136563877,0.04532474817655357
5.43931718061674,0.18479663107056724
5.4726872246696034,0.37354173450838263
5.506057268722468,0.5924037860378947
5.539427312775331,0.8015063964574412
5.572797356828194,0.9561853651374196
5.606167400881057,1.028839306747582
5.639537444933921,1.0264549120710618
5.672907488986785,0.9935669170947438
5.706277533039648,0.9956201895634794
5.739647577092511,1.086691065709979
5.7730176211453745,1.2746103150094117
5.806387665198238,1.501001794559543
5.839757709251102,1.6501045962760845
5.873127753303965,1.5884911930462737
5.9064977973568284,1.2224419721193867
5.939867841409692,0.5483711731966603
5.973237885462555,-0.3287401470937928
6.006607929515419,-1.2214319270935572
6.039977973568282,-1.9224845531585797
6.073348017621146,-2.2783284737694434
6.106718061674009,-2.2414331627642947
6.140088105726872,-1.8799684197803042
6.173458149779736,-1.3434205120109348
6.2068281938325995,-0.8025312618552222
6.240198237885463,-0.39088948836446524
6.273568281938326,-0.170530603685104
6.306938325991189,-0.12962804868246178
6.3403083700440535,-0.20548080262844512
6.373678414096917,-0.31772552314225766
6.40704845814978,-0.3971817406578089
6.440418502202643,-0.4021713946133957
6.4737885462555065,-0.32163179732547104
6.507158590308371,-0.16908241947142488
6.540528634361234,0.02748107963546137
6.573898678414097,0.23602334061779376
6.60726872246696,0.42909641102435253
6.640638766519824,0.5892699747229996
6.674008810572688,0.7102668445881065
6.707378854625551,0.7936423413851148
6.740748898678414,0.8428209440802301
6.774118942731278,0.8581791932196603
6.807488986784141,0.8367129051394556
6.840859030837005,0.7768003419487446
6.874229074889868,0.6842461785063997
6.9075991189427315,0.5735116137798271
6.940969162995595,0.4604232586186107
6.974339207048458,0.3490945046383821
7.007709251101322,0.2221024322275114
7.041079295154185,0.04394396109245199
7.074449339207049,-0.21883089390429072
7.107819383259912,-0.5686261192479954
7.141189427312775,-0.9555449808945349
7.174559471365639,-1.2802005319193173
7.207929515418503,-1.4260063006592947
7.241299559471366,-1.3099077809422333
7.274669603524229,-0.9277972108339289
7.308039647577092,-0.36999523726514627
7.3414096916299565,0.20494546757420867
7.37477973568282,0.6293303788211217
7.408149779735683,0.7922601498284804
7.441519823788546,0.6819151948993715
7.47488986784141,0.3847016447144021
7.508259911894274,0.04260669385222359
7.541629955947137,-0.209928663453065
7.575,-0.2992683745495444
7.608370044052863,-0.23184750873157028
7.641740088105728,-0.07342770663286097
7.675110132158591,0.0970962596027826
7.708480176211454,0.23242317321746256
7.741850220264317,0.33554095453097293
7.775220264317181,0.443576531819035
7.808590308370045,0.5884520680333725
7.841960352422908,0.7596560270722947
7.875330396475771,0.8933959114623243
7.9087004405286345,0.8971543004699749
7.942070484581498,0.6979874376751433
7.975440528634362,0.2886641846771495
8.008810572687224,-0.2540848272459171
8.042180616740088,-0.7907403097660803
8.075550660792953,-1.1709798900538335
8.108920704845815,-1.2925797783736508
8.142290748898679,-1.1404135207556338
8.175660792951541,-0.7887995185010919
8.209030837004406,-0.3677232777865271
8.24240088105727,-0.009345069756962318
8.275770925110132,0.20134950082123237
8.309140969162996,0.2514980137889458
8.342511013215859,0.19287212495422268
8.375881057268723,0.10872674070224934
8.409251101321587,0.07228445505182161
8.44262114537445,0.11581394641560258
8.475991189427313,0.2220512491645793
8.509361233480176,0.338099232642971
8.54273127753304,0.40220008395971396
8.576101321585904,0.370287242503789
8.609471365638766,0.23224023806436514
8.64284140969163,0.014115524441852276
8.676211453744493,-0.231553684270496
8.709581497797357,-0.4421588259745488
8.742951541850221,-0.5624394670766352
8.776321585903084,-0.5584391144901362
8.809691629955948,-0.42532914830511137
8.84306167400881,-0.18822384254332217
8.876431718061674,0.10357780135408644
8.909801762114538,0.3877124763611434
8.9431718061674,0.6033543056089283
8.976541850220265,0.706377683363122
9.009911894273127,0.6810216371527162
9.043281938325991,0.5438928594594697
9.076651982378856,0.33809741685556766
9.110022026431718,0.11897129789095873
9.143392070484582,-0.063556741227314
9.176762114537445,-0.1795984109292625
9.210132158590309,-0.22618865648958214
9.243502202643173,-0.22507374108815734
9.276872246696035,-0.21316502484792374
9.3102422907489,-0.22893437732434255
9.343612334801762,-0.2982292179072555
9.376982378854626,-0.4229617709829698
9.41035242290749,-0.5763223501863801
9.443722466960352,-0.7077161856934909
9.477092511013216,-0.7582100346242575
9.510462555066079,-0.6827772581365511
9.543832599118943,-0.47101813304266776
9.577202643171807,-0.15648123326718158
9.61057268722467,0.1916452443660126
9.643942731277534,0.492753658232601
9.677312775330396,0.6849475025192844
9.71068281938326,0.7473204544275044
9.744052863436124,0.703988730803794
9.777422907488987,0.6084626524805598
9.81079295154185,0.5166790318097498
9.844162995594713,0.4622211405351469
9.877533039647577,0.44531950292893885
9.910903083700441,0.43956066694419405
9.944273127753304,0.41117795573165666
9.977643171806168,0.3400400912633795
10.01101321585903,0.23153729975494836
10.044383259911895,0.11388879455930405
10.077753303964759,0.02292889158223925
10.111123348017621,-0.01754399029139053
10.144493392070485,-0.009893717540248079
10.177863436123348,0.015889673917101995
10.211233480176212,0.014542932854918113
10.244603524229076,-0.05351797421072028
10.277973568281938,-0.20187883972752285
10.311343612334802,-0.40770528653982635
10.344713656387665,-0.6165563886945029
10.378083700440529,-0.7614860964590175
10.411453744493393,-0.7893808115931454
10.444823788546255,-0.6840917548916331
10.47819383259912,-0.4767417715065899
10.511563876651982,-0.2383827553199001
10.544933920704846,-0.05700199862466976
10.57830396475771,-0.006903059188517527
10.611674008810573,-0.1213386446991282
10.645044052863437,-0.37806137355219727
10.678414096916299,-0.7029760653737168
10.711784140969163,-0.9911313637305736
10.745154185022027,-1.138780900404284
10.77852422907489,-1.076618089251786
10.811894273127754,-0.7934424865945936
10.845264317180618,-0.3418498004918427
10.87863436123348,0.17717346766390307
10.912004405286345,0.6467617159305994
10.945374449339207,0.9730507254365954
10.978744493392071,1.1161075464197774
11.012114537444935,1.1004635389549393
11.045484581497798,1.0003948038246018
11.078854625550662,0.9057537005315124
11.112224669603524,0.8830469746446699
11.145594713656388,0.9489162151675307
11.178964757709252,1.067450536089684
11.212334801762115,1.171347057964733
11.245704845814979,1.1955211469779736
11.279074889867841,1.1062487628876745
11.312444933920705,0.9121576515498568
11.34581497797357,0.6535676300294868
11.379185022026432,0.37825784514857663
11.412555066079296,0.11839649837328231
11.445925110132158,-0.11848932375129365
11.479295154185023,-0.34081907245614085
11.512665198237887,-0.5540175119925977
11.546035242290749,-0.7453810493623493
11.579405286343613,-0.8847627144529786
11.612775330396476,-0.9432522137207974
11.64614537444934,-0.9197883301041073
11.679515418502204,-0.858179005140297
11.712885462555066,-0.8394387156031055
11.74625550660793,-0.9466805463018869
11.779625550660793,-1.2162615736253493
11.812995594713657,-1.6003964653363596
11.846365638766521,-1.9653432261347663
11.879735682819383,-2.1339901340371195
11.913105726872248,-1.9587962345243548
11.94647577092511,-1.392594585062146
11.979845814977974,-0.5218462544319492
12.013215859030838,0.45710998161914784
12.0465859030837,1.3106975525255122
12.079955947136565,1.8568537449756293
12.113325991189427,2.028964467718338
12.146696035242291,1.8869943689965525
12.180066079295155,1.574601934018796
12.213436123348018,1.2469501027300658
12.246806167400882,1.0055400641445276
12.280176211453744,0.8689113768280528
12.313546255506608,0.7871622002091211
12.346916299559473,0.6860054022666806
12.380286343612335,0.5138646704312337
12.413656387665199,0.26822602833807585
12.447026431718061,-0.008248003268961022
12.480396475770926,-0.25438757208186097
12.51376651982379,-0.42212845457977366
12.547136563876652,-0.49594116024723905
12.580506607929516,-0.4926585379807138
12.613876651982379,-0.4462235742096529
12.647246696035243,-0.3890259243201247
12.680616740088107,-0.34061715121926067
12.71398678414097,-0.3076097843514108
12.747356828193833,-0.2907374372447263
12.780726872246696,-0.29138489283241864
12.81409691629956,-0.3120606088851194
12.847466960352424,-0.35097441798169454
12.880837004405286,-0.3958031005902566
12.91420704845815,-0.42261877284233634
12.947577092511013,-0.40256066917973143
12.980947136563877,-0.3136837097741969
13.014317180616741,-0.15194378068955122
13.047687224669604,0.06441698033146505
13.081057268722468,0.2991657850990901
13.11442731277533,0.508630171508843
13.147797356828194,0.6535280657920256
13.181167400881058,0.7077169276818278
13.21453744493392,0.6622329066407061
13.247907488986785,0.5255531536806088
13.281277533039647,0.32174562906087145
13.314647577092511,0.08717734364988922
13.348017621145376,-0.13478301487864427
13.381387665198238,-0.30166617066669615
13.414757709251102,-0.38160857820238375
13.448127753303964,-0.36227842599619825
13.481497797356829,-0.2556507296845917
13.514867841409693,-0.09618011114528721
13.548237885462555,0.06783312030078993
13.58160792951542,0.18737970171329452
13.614977973568282,0.22638170076122177
13.648348017621146,0.1715781990070895
13.68171806167401,0.035630627192371055
13.715088105726872,-0.14731327575325243
13.748458149779736,-0.3318957951652974
13.781828193832599,-0.4742379869844216
13.815198237885463,-0.5432392988465692
13.848568281938327,-0.5276326189287268
13.88193832599119,-0.43755077818190174
13.915308370044054,-0.30082450645788156
13.948678414096916,-0.1551400498480147
13.98204845814978,-0.037708108045209264
14.015418502202644,0.02538281358240617
14.048788546255507,0.027384835287958945
14.08215859030837,-0.016204939354466843
14.115528634361233,-0.07198361630744274
14.148898678414097,-0.09986167154055446
14.182268722466961,-0.06781765189901312
14.215638766519824,0.03538287294654012
14.249008810572688,0.19504554041104127
14.28237885462555,0.37569308957136016
14.315748898678414,0.5346179358879446
14.349118942731279,0.6378972163294124
14.382488986784141,0.6716669183400931
14.415859030837005,0.6438320650605139
14.449229074889868,0.5761989966606433
14.482599118942732,0.49167004478585435
14.515969162995596,0.4032004721840994
14.549339207048458,0.3097632244989353
14.582709251101322,0.20061768020156426
14.616079295154185,0.06497661963672519
14.649449339207049,-0.09816420045652118
14.682819383259913,-0.27484697635085414
14.716189427312775,-0.43789167283619035
14.74955947136564,-0.5546722090812461
14.782929515418502,-0.597735077745628
14.816299559471366,-0.554327895596843
14.84966960352423,-0.43167098885522065
14.883039647577093,-0.25647554324150257
14.916409691629957,-0.06902523707577563
14.94977973568282,0.08648999487936576
14.983149779735683,0.17296421395147635
15.016519823788547,0.17003389678011607
15.04988986784141,0.0798828653549688
15.083259911894274,-0.07270012278246292
15.116629955947138,-0.2465319189628319
15.15,-0.3950225048170145
15.183370044052865,-0.478561372332351
15.216740088105727,-0.4742415358424499
15.250110132158591,-0.3799575429699509
15.283480176211455,-0.21230475851393604
15.316850220264318,-0.00010167044002805915
15.350220264317182,0.22345145186125004
15.383590308370044,0.42734712734309355
15.416960352422908,0.5868642300423053
15.450330396475772,0.6854475084712037
15.483700440528635,0.7153789154201793
15.517070484581499,0.6779733229819411
15.550440528634361,0.5831128243172686
15.583810572687225,0.44718652358861005
15.61718061674009,0.288720253302506
15.650550660792952,0.12235766717202086
15.683920704845816,-0.0463251162683931
15.717290748898678,-0.22178361268793162
15.750660792951543,-0.4130477407684194
15.784030837004407,-0.6229637053321216
15.817400881057269,-0.8371704808856476
15.850770925110133,-1.01982276520664
15.884140969162996,-1.1211061568232992
15.91751101321586,-1.0958198869180533
15.950881057268724,-0.9255005247816481
15.984251101321586,-0.6328337614890124
16.01762114537445,-0.27935888853611834
16.050991189427315,0.054732321140286554
16.084361233480177,0.30053821691004157
16.11773127753304,0.42636642586348333
16.151101321585905,0.4474344249217439
16.184471365638768,0.4151755484928625
16.21784140969163,0.3919803991089977
16.251211453744492,0.42375034665249933
16.284581497797358,0.5225519307930426
16.31795154185022,0.6656625163759574
16.351321585903083,0.8091501922483743
16.38469162995595,0.9081251224700447
16.41806167400881,0.9343591842276391
16.451431718061674,0.8847710567986748
16.48480176211454,0.7790806301917104
16.518171806167402,0.6492653565216333
16.551541850220264,0.5258422814292388
16.584911894273127,0.4262611585760047
16.618281938325993,0.3493470486341518
16.651651982378855,0.2773912264597591
16.685022026431717,0.18472375769269966
16.718392070484583,0.049152517949664395
16.751762114537446,-0.13849917583059315
16.785132158590308,-0.3706161943091738
16.818502202643174,-0.6258215356060285
16.851872246696036,-0.8764918078283932
16.8852422907489,-1.0964659802520276
16.91861233480176,-1.2653367911549007
16.951982378854627,-1.3685944082243617
16.98535242290749,-1.395941583249175
17.01872246696035,-1.341101173178559
17.052092511013218,-1.2046489811621188
17.08546255506608,-0.998198521283247
17.118832599118942,-0.7461520038775904
17.152202643171808,-0.4819649460874772
17.18557268722467,-0.23908744416082747
17.218942731277533,-0.040256690266134716
17.2523127753304,0.10972403231761937
17.28568281938326,0.22404940674153326
17.319052863436124,0.32656350682981267
17.352422907488986,0.44017533941513626
17.385792951541852,0.5760117032155764
