Frequency (Hz),Amplitude
0.0,5.553474538646925
0.019823788546255508,5.555373924474744
0.039647577092511016,5.561060756467991
0.059471365638766524,5.570501202730043
0.07929515418502203,5.583639354237371
0.09911894273127755,5.6003979257506735
0.11894273127753305,5.620679207395671
0.13876651982378857,5.644366239225051
0.15859030837004406,5.671324175829759
0.17841409691629956,5.701401804503264
0.1982378854625551,5.734433178643238
0.2180616740088106,5.770239327942039
0.2378854625550661,5.808630008305378
0.25770925110132165,5.849405457104064
0.27753303964757714,5.892358123010008
0.29735682819383263,5.9372743439843
0.31718061674008813,5.983935951664757
0.3370044052863437,6.0321217851679485
0.3568281938325991,6.081609101943607
0.37665198237885467,6.1321748776168485
0.3964757709251102,6.183596990598647
0.41629955947136565,6.235655290559516
0.4361233480176212,6.288132552613115
0.4559471365638767,6.3408153212475185
0.4757709251101322,6.3934946497027845
0.49559471365638774,6.445966741672075
0.5154185022026433,6.498033502960817
0.5352422907488987,6.549503011138691
0.5550660792951543,6.600189911327377
0.5748898678414097,6.649915746145709
0.5947136563876653,6.6985092275383025
0.6145374449339208,6.745806457793796
0.6343612334801763,6.791651106555576
0.6541850220264318,6.835894550076971
0.6740088105726874,6.878395978399487
0.6938325991189428,6.919022475561335
0.7136563876651982,6.957649077386131
0.7334801762114539,6.99415881087291
0.7533039647577093,7.028442718713512
0.7731277533039648,7.060399872007566
0.7929515418502204,7.089937373830141
0.8127753303964759,7.116970355933079
0.8325991189427313,7.141421970526855
0.8524229074889869,7.163223378793456
0.8722466960352424,7.182313737519316
0.8920704845814978,7.198640185007827
0.9118942731277534,7.212157827230224
0.931718061674009,7.222829724997209
0.9515418502202644,7.230626882779947
0.9713656387665199,7.235528239671933
0.9911894273127755,7.237520662862234
1.0110132158590308,7.236598943880299
1.0308370044052866,7.232765797770019
1.0506607929515421,7.226031865254364
1.0704845814977975,7.216415717856545
1.090308370044053,7.20394386584739
1.1101321585903086,7.188650768788191
1.1299559471365639,7.170578848330402
1.1497797356828194,7.149778502814949
1.1696035242290752,7.126308123081428
1.1894273127753305,7.100234108747623
1.209251101321586,7.071630884049771
1.2290748898678416,7.0405809121383855
1.248898678414097,7.007174706503087
1.2687224669603525,6.9715108379451465
1.288546255506608,6.933695935229058
1.3083700440528636,6.893844677219011
1.3281938325991192,6.852079773940278
1.3480176211453747,6.808531933600225
1.36784140969163,6.7633398121554675
1.3876651982378856,6.716649941523909
1.4074889867841411,6.6686166320172235
1.4273127753303965,6.619401844014796
1.4471365638766522,6.569175023327311
1.4669603524229078,6.518112894119662
1.4867841409691631,6.466399202698419
1.5066079295154187,6.414224404946152
1.5264317180616742,6.361785289734079
1.5462555066079295,6.309284530306896
1.5660792951541853,6.256930155457058
1.5859030837004409,6.204934932343565
1.6057268722466962,6.153515653124784
1.6255506607929517,6.102892318230103
1.6453744493392073,6.053287210156898
1.6651982378854626,6.004923853210997
1.6850220264317182,5.958025856661505
1.7048458149779737,5.912815641392699
1.7246696035242293,5.8695130533157265
1.7444933920704848,5.8283338705304395
1.7643171806167404,5.789488215436161
1.7841409691629957,5.753178887566712
1.8039647577092512,5.719599637701417
1.8237885462555068,5.688933408560279
1.8436123348017623,5.661350571861112
1.863436123348018,5.63700719539753
1.8832599118942732,5.616043376774633
1.9030837004405288,5.598581682209125
1.9229074889867843,5.584725729100264
1.9427312775330399,5.5745589497174235
1.9625550660792954,5.5681435702380835
1.982378854625551,5.565519834540106
2.002202643171806,5.566705495765631
2.0220264317180616,5.571695591022003
2.041850220264317,5.580462506066337
2.061674008810573,5.592956327911161
2.0814977973568287,5.609105474499253
2.1013215859030843,5.628817582427433
2.1211453744493394,5.65198062659563
2.140969162995595,5.678464239969556
2.1607929515418505,5.708121197605412
2.180616740088106,5.740789026793487
2.2004405286343616,5.776291704606492
2.220264317180617,5.814441405149183
2.2400881057268722,5.855040261168601
2.2599118942731278,5.89788210811591
2.2797356828193833,5.942754182935605
2.299559471365639,5.989438754488547
2.319383259911895,6.037714667300968
2.3392070484581504,6.087358785030341
2.3590308370044055,6.138147324452228
2.378854625550661,6.18985707476011
2.3986784140969166,6.242266500441438
2.418502202643172,6.295156728903787
2.4383259911894277,6.3483124263698265
2.4581497797356833,6.401522567361764
2.4779735682819384,6.45458110440018
2.497797356828194,6.507287545407221
2.5176211453744495,6.559447446792775
2.537444933920705,6.610872830382483
2.5572687224669606,6.66138253227911
2.577092511013216,6.7108024914934985
2.5969162995594717,6.7589659857888895
2.6167400881057272,6.805713821696061
2.6365638766519828,6.850894485113911
2.6563876651982383,6.894364258339385
2.676211453744494,6.93598730879515
2.6960352422907494,6.975635754160096
2.715859030837005,7.0131897080695405
2.73568281938326,7.048537310045858
2.7555066079295156,7.081574742853608
2.775330396475771,7.112206240045716
2.7951541850220267,7.140344086082151
2.8149779735682823,7.165908611057169
2.834801762114538,7.188828181764669
2.854625550660793,7.20903919056029
2.874449339207049,7.226486043241156
2.8942731277533045,7.241121146955341
2.91409691629956,7.252904898971229
2.9339207048458156,7.2618056769761745
2.953744493392071,7.267799831433905
2.9735682819383262,7.270871680403593
2.993392070484582,7.271013507111612
3.0132158590308373,7.26822556046199
3.033039647577093,7.262516058573789
3.0528634361233484,7.253901195338072
3.072687224669604,7.242405149891079
3.092511013215859,7.228060098800461
3.1123348017621146,7.2109062306559375
3.1321585903083706,7.190991762638425
3.151982378854626,7.168372958513546
3.1718061674008817,7.143114147348427
3.1916299559471373,7.115287742085134
3.2114537444933924,7.084974256914186
3.231277533039648,7.0522623221747
3.2511013215859035,7.01724869525982
3.270925110132159,6.980038265724917
3.2907488986784146,6.940744052476007
3.31057268722467,6.899487190558258
3.3303964757709252,6.856396904663223
3.350220264317181,6.811610466031362
3.3700440528634363,6.765273128942435
3.389867841409692,6.717538042464035
3.4096916299559474,6.668566132573707
3.4295154185022034,6.618525949191768
3.4493392070484585,6.5675934720732325
3.469162995594714,6.515951868927019
3.4889867841409696,6.463791198583144
3.508810572687225,6.411308051544801
3.5286343612334807,6.35870511988081
3.5484581497797363,6.306190688181172
3.5682819383259914,6.2539780372676175
3.588105726872247,6.202284752582595
3.6079295154185025,6.151331929739948
3.627753303964758,6.101343270674094
3.6475770925110136,6.052544065238924
3.667400881057269,6.005160055038205
3.6872246696035247,5.959416178759815
3.7070484581497802,5.915535201354751
3.726872246696036,5.873736233036575
3.7466960352422913,5.834233148224566
3.7665198237885464,5.797232919111575
3.7863436123348024,5.762933883351497
3.8061674008810575,5.731523970220653
3.8259911894273135,5.703178914253105
3.8458149779735686,5.678060489483322
3.8656387665198246,5.656314800731541
3.8854625550660797,5.638070670522139
3.905286343612335,5.623438160952612
3.925110132158591,5.612507268913498
3.9449339207048464,5.605346830377578
3.964757709251102,5.602003665027709
3.9845814977973575,5.6025019864073
4.004405286343612,5.606843095317966
4.024229074889869,5.615005365734453
4.044052863436123,5.62694452352559
4.06387665198238,5.642594209274803
4.083700440528634,5.661866808001954
4.103524229074891,5.684654521068643
4.123348017621146,5.710830649386245
4.143171806167401,5.740251052507736
4.162995594713657,5.772755745406728
4.182819383259912,5.8081705937350305
4.2026431718061685,5.846309068986938
4.222466960352423,5.886974027073226
4.242290748898679,5.9299594770420505
4.262114537444934,5.975052310763977
4.28193832599119,6.022033969005195
4.301762114537445,6.0706820241488675
4.321585903083701,6.120771664626416
4.3414096916299565,6.172077070678764
4.361233480176212,6.2243726752236155
4.381057268722468,6.27743430725533
4.400881057268723,6.331040218292746
4.420704845814979,6.384971994903801
4.440528634361234,6.439015362290931
4.46035242290749,6.492960885359174
4.4801762114537445,6.54660457466668
4.500000000000001,6.599748405237713
4.5198237885462555,6.652200756469978
4.539647577092512,6.703776781354503
4.559471365638767,6.754298713008059
4.579295154185023,6.8035961161500405
4.599118942731278,6.8515060906821965
4.618942731277533,6.897873433990793
4.63876651982379,6.942550768017876
4.658590308370044,6.9853986365648115
4.678414096916301,7.02628557771748
4.6982378854625555,7.065088175730889
4.718061674008811,7.1016910961907405
4.737885462555067,7.1359871077877735
4.757709251101322,7.167877093598926
4.777533039647578,7.197270054369977
4.797356828193833,7.224083105935701
4.817180616740089,7.248241472595127
4.837004405286344,7.269678477977
4.856828193832599,7.288335534683621
4.876651982378855,7.304162133783136
4.896475770925111,7.317115835030999
4.9162995594713665,7.327162258534631
4.936123348017622,7.334275078429042
4.955947136563877,7.3384360190014934
4.975770925110133,7.339634853586531
4.995594713656388,7.337869406446548
5.015418502202644,7.333145557752436
5.035242290748899,7.325477251682982
5.055066079295155,7.314886507564909
5.07488986784141,7.301403433876829
5.094713656387666,7.2850662448348
5.114537444933921,7.265921279163089
5.134361233480177,7.244023020526213
5.154185022026432,7.219434118955423
5.174008810572688,7.192225412439831
5.193832599118943,7.162475947666203
5.213656387665199,7.130272998678602
5.2334801762114544,7.095712081985607
5.25330396475771,7.058896966365167
5.2731277533039655,7.019939675302413
5.292951541850221,6.978960479640591
5.312775330396477,6.936087877627854
5.332599118942731,6.891458559102405
5.352422907488988,6.845217350074105
5.372246696035242,6.797517133436569
5.392070484581499,6.74851874098421
5.4118942731277535,6.698390811319845
5.43171806167401,6.647309607637567
5.451541850220265,6.595458788763372
5.47136563876652,6.54302912626239
5.491189427312777,6.490218159901257
5.511013215859031,6.437229783327235
5.530837004405288,6.384273751536807
5.550660792951542,6.331565101608225
5.570484581497798,6.27932347832513
5.5903083700440535,6.227772356788671
5.610132158590309,6.177138154970756
5.6299559471365646,6.127649230471006
5.64977973568282,6.0795347575647725
5.669603524229076,6.033023483018895
5.689427312775331,5.9883423621322756
5.709251101321586,5.9457150800274405
5.729074889867842,5.905360467333481
5.748898678414098,5.8674908239706305
5.768722466960353,5.832310169626866
5.788546255506609,5.800012444507428
5.808370044052864,5.770779688783896
5.82819383259912,5.744780233574006
5.848017621145375,5.722166939920873
5.867841409691631,5.703075524783941
5.887665198237886,5.68762301420203
5.907488986784142,5.675906363299766
5.927312775330397,5.668001280529701
5.9471365638766525,5.663961289440298
5.966960352422908,5.663817055432961
5.986784140969164,5.667575997655344
6.00660792951542,5.675222197737247
6.026431718061675,5.686716607968242
6.04625550660793,5.701997552264896
6.066079295154186,5.720981504412801
6.085903083700441,5.743564120093565
6.105726872246697,5.7696214925369205
6.125550660792952,5.799011596579332
6.145374449339208,5.831575882635967
6.1651982378854635,5.867140980636648
6.185022026431718,5.905520474248646
6.204845814977975,5.946516707511472
6.224669603524229,5.9899225890693515
6.244493392070486,6.035523363189071
6.264317180616741,6.083098321366727
6.284140969162996,6.1324224332428
6.303964757709252,6.183267880483222
6.323788546255507,6.235405482016004
6.3436123348017635,6.288606003364113
6.363436123348018,6.342641346667924
6.3832599118942746,6.397285621276603
6.403083700440529,6.45231609748501
6.422907488986785,6.50751404811164
6.44273127753304,6.562665484192761
6.462555066079296,6.617561792162339
6.482378854625551,6.672000280561281
6.502202643171807,6.725784644642707
6.5220264317180625,6.778725357276972
6.541850220264318,6.8306399943770915
6.561674008810574,6.881353502716324
6.581497797356829,6.930698417544697
6.601321585903085,6.978515036872244
6.62114537444934,7.02465155870551
6.640969162995596,7.068964186929429
6.6607929515418505,7.111317210936514
6.680616740088107,7.15158306353698
6.700440528634362,7.189642361145394
6.720264317180618,7.225383929739036
6.740088105726873,7.258704819624409
6.759911894273129,7.2895103116319575
6.779735682819384,7.31771391698514
6.799559471365639,7.343237372757311
6.819383259911895,7.366010634534979
6.83920704845815,7.385971867647229
6.859030837004407,7.403067438093835
6.8788546255506615,7.4172519041061475
6.898678414096917,7.428488009101219
6.918502202643173,7.436746676637043
6.938325991189428,7.442007007842264
6.958149779735684,7.444256281673075
6.977973568281939,7.443489958240332
6.997797356828195,7.439711685347791
7.01762114537445,7.432933308284229
7.037444933920705,7.423174882815362
7.0572687224669615,7.410464691222206
7.077092511013216,7.3948392611275535
7.096916299559473,7.376343386739167
7.116740088105728,7.3550301520120325
7.136563876651983,7.330960955090654
7.156387665198239,7.304205533231937
7.176211453744494,7.2748419872246055
7.19603524229075,7.242956804111453
7.215859030837005,7.20864487677836
7.235682819383261,7.172009518699748
7.255506607929516,7.133162471815921
7.275330396475772,7.092223905163958
7.295154185022027,7.049322401486513
7.314977973568283,7.004594928600045
7.334801762114538,6.95818679181717
7.354625550660794,6.910251563187015
7.374449339207049,6.860950982748039
7.394273127753305,6.810454826386929
7.4140969162995605,6.758940734276031
7.433920704845816,6.706593993237369
7.453744493392072,6.653607265775207
7.473568281938327,6.60018025796099
7.493392070484583,6.546519317880067
7.513215859030838,6.4928369560044015
7.533039647577093,6.439351278691547
7.552863436123348,6.386285326088444
7.572687224669605,6.333866306106036
7.59251101321586,6.282324716898421
7.612334801762115,6.231893351499144
7.6321585903083715,6.182806180004678
7.651982378854627,6.135297107004639
7.671806167400882,6.089598604876876
7.691629955947137,6.045940227096269
7.711453744493394,6.004547009820223
7.731277533039649,5.96563777462653
7.751101321585904,5.929423350259265
7.7709251101321595,5.896104736389193
7.790748898678416,5.8658712374680055
7.81057268722467,5.838898599450916
7.830396475770926,5.8153471861478945
7.850220264317182,5.795360234897967
7.870044052863436,5.779062232822536
7.889867841409693,5.766557454832051
7.909691629955948,5.757928702654431
7.929515418502204,5.753236280356906
7.9493392070484585,5.752517236214046
7.969162995594715,5.755784893547962
7.9889867841409705,5.763028684678434
8.008810572687224,5.774214292829422
8.02863436123348,5.789284097273903
8.048458149779737,5.808157907715823
8.068281938325994,5.830733965434449
8.088105726872246,5.856890181508207
8.107929515418503,5.886485576835876
8.12775330396476,5.919361884892546
8.147577092511014,5.955345276261768
8.167400881057269,5.994248163905857
8.187224669603525,6.035871049688786
8.207048458149782,6.0800043755817414
8.226872246696036,6.1264303469393395
8.246696035242293,6.174924699894167
8.266519823788547,6.225258389949854
8.286343612334802,6.277199183961294
8.306167400881058,6.330513142627498
8.325991189427315,6.384965985196743
8.345814977973568,6.440324332161074
8.365638766519824,6.496356825219109
8.38546255506608,6.55283512668101
8.405286343612337,6.609534802782261
8.42511013215859,6.666236097099578
8.444933920704846,6.722724601476769
8.464757709251103,6.778791832636018
8.484581497797357,6.834235723042095
8.504405286343614,6.888861034672726
8.524229074889869,6.942479704194435
8.544052863436125,6.994911127709626
8.56387665198238,7.045982392778582
8.583700440528636,7.0955284648748504
8.60352422907489,7.143392334838992
8.623348017621145,7.189425133283609
8.643171806167402,7.2334862172928664
8.662995594713658,7.27544323416977
8.682819383259913,7.315172166424502
8.702643171806168,7.352557361675573
8.722466960352424,7.387491550656053
8.74229074889868,7.419875856081524
8.762114537444935,7.449619794745265
8.78193832599119,7.4766412748568145
8.801762114537446,7.500866590331614
8.821585903083701,7.522230413467638
8.841409691629957,7.540675787206647
8.861233480176212,7.556154117970093
8.881057268722468,7.568625169877821
8.900881057268723,7.578057060998342
8.92070484581498,7.584426262139535
8.940528634361234,7.587717598563298
8.960352422907489,7.58792425489457
8.980176211453745,7.585047783390156
9.000000000000002,7.5790981156326795
9.019823788546258,7.570093577616991
9.039647577092511,7.558060908095931
9.059471365638768,7.543035279947651
9.079295154185024,7.525060324212915
9.099118942731279,7.504188156325759
9.118942731277533,7.480479403919611
9.13876651982379,7.4540032354310055
9.158590308370046,7.424837388539978
9.1784140969163,7.393068197275694
9.198237885462555,7.358790616375189
9.218061674008812,7.322108241207058
9.237885462555067,7.283133321257424
9.257709251101323,7.241986764819271
9.27753303964758,7.198798132125093
9.297356828193834,7.153705613715034
9.317180616740089,7.106855990337567
9.337004405286345,7.0584045701389595
9.356828193832602,7.008515098314188
9.376651982378855,6.9573596337732315
9.396475770925111,6.905118386732534
9.416299559471367,6.8519795104889525
9.436123348017622,6.7981388399926885
9.455947136563877,6.743799569236249
9.475770925110133,6.689171858953392
9.49559471365639,6.63447236572086
9.515418502202644,6.5799236833285555
9.5352422907489,6.525753687292682
9.555066079295155,6.472194773700107
9.57488986784141,6.419482984263715
9.594713656387666,6.367857010613809
9.614537444933923,6.317557072520356
9.634361233480178,6.268823666997061
9.654185022026432,6.22189618812257
9.674008810572689,6.177011420941997
9.693832599118945,6.13440191695896
9.713656387665198,6.094294263422965
9.733480176211454,6.056907263731849
9.75330396475771,6.022450051614406
9.773127753303967,5.991120167086853
9.792951541850222,5.963101627183275
9.812775330396477,5.938563028805965
9.832599118942733,5.9176557243658765
9.852422907488988,5.9005121128437334
9.872246696035244,5.88724408920225
9.892070484581499,5.877941693505637
9.911894273127754,5.872671997558943
9.93171806167401,5.87147826140823
9.951541850220266,5.874379384835506
9.971365638766521,5.881369670377955
9.991189427312776,5.892418904855962
10.011013215859032,5.907472756454162
10.030837004405289,5.926453474641209
10.050660792951543,5.94926087120064
10.070484581497798,5.975773552869731
10.090308370044054,6.005850369929131
10.11013215859031,6.039332040800492
10.129955947136565,6.076042910385705
10.14977973568282,6.115792799474874
10.169603524229077,6.158378903884911
10.189427312775331,6.203587704800128
10.209251101321588,6.2511968557412745
10.229074889867842,6.300977016335075
10.248898678414099,6.352693608245986
10.268722466960353,6.406108473947307
10.28854625550661,6.46098142418363
10.308370044052865,6.517071664800612
10.32819383259912,6.574139097942372
10.348017621145376,6.6319454963513245
10.367841409691632,6.690255552608642
10.387665198237887,6.7488378076275835
10.407488986784141,6.807465464588939
10.427312775330398,6.865917095842336
10.447136563876654,6.923977251156238
10.466960352422909,6.981436976156751
10.486784140969164,7.038094249923936
10.50660792951542,7.093754350584548
10.526431718061675,7.148230157414716
10.546255506607931,7.201342397501455
10.566079295154186,7.252919844453864
10.585903083700442,7.302799476043548
10.605726872246697,7.350826597018878
10.625550660792953,7.396854932703619
10.645374449339208,7.4407466983743165
10.665198237885463,7.482372648825712
10.685022026431719,7.521612111987018
10.704845814977975,7.558353009948768
10.724669603524232,7.592491870303416
10.744493392070485,7.623933830291209
10.764317180616741,7.652592635876589
10.784140969162998,7.6783906375556095
10.803964757709252,7.701258784409669
10.823788546255507,7.72113661767049
10.843612334801763,7.737972264843427
10.86343612334802,7.751722435245331
