Time (s),Filtered Signal
0.0,0.043393788646919076
0.03337008452774715,-0.16233539468019975
0.0667401690554943,-0.24267950002792674
0.10011025358324147,-0.11174872509461932
0.1334803381109886,0.24767059741685382
0.16685042263873576,0.7766015212304601
0.20022050716648293,1.3565095254569801
0.23359059169423008,1.8455591087476138
0.2669606762219772,2.1227703148412242
0.30033076074972437,2.1247991909343336
0.3337008452774715,1.86239798662358
0.36707092980521866,1.4114837102612767
0.40044101433296586,0.8838557261558506
0.433811098860713,0.39020646954834065
0.46718118338846015,0.009631465059189097
0.5005512679162073,-0.22488131949962484
0.5339213524439544,-0.3234822056583768
0.5672914369717016,-0.32447576540967465
0.6006615214994487,-0.27578673458662367
0.6340316060271959,-0.22004345552431595
0.667401690554943,-0.18665212928976524
0.7007717750826902,-0.1903638458316154
0.7341418596104373,-0.2335950847245491
0.7675119441381845,-0.30962424029906727
0.8008820286659317,-0.4051684636989695
0.8342521131936789,-0.5026000360609343
0.867622197721426,-0.5830526852915758
0.9009922822491732,-0.6312867125306311
0.9343623667769203,-0.6416265437941086
0.9677324513046675,-0.6224823255200319
1.0011025358324146,-0.5961783642840855
1.0344726203601617,-0.5920101977201242
1.0678427048879089,-0.6336095667837566
1.101212789415656,-0.7253760116870761
1.1345828739434032,-0.844627141962093
1.1679529584711503,-0.9445545274458973
1.2013230429988975,-0.9684173114572817
1.2346931275266446,-0.8700571083891958
1.2680632120543918,-0.6326481675409396
1.301433296582139,-0.27813351324103114
1.334803381109886,0.13649960075776277
1.3681734656376332,0.5350136235735424
1.4015435501653803,0.8445321340302564
1.4349136346931275,1.017522111154358
1.4682837192208746,1.0457999171783714
1.5016538037486218,0.9615205143808265
1.535023888276369,0.8242823616602853
1.568393972804116,0.6985627403438501
1.6017640573318634,0.6298515610624112
1.6351341418596106,0.6289497819871035
1.6685042263873577,0.6708580581349725
1.7018743109151049,0.7084739576258157
1.735244395442852,0.6947355009597399
1.7686144799705992,0.6031176998386324
1.8019845644983463,0.4374720300647155
1.8353546490260935,0.227688788269991
1.8687247335538406,0.01477271817188434
1.9020948180815878,-0.1662064380425502
1.935464902609335,-0.296905471964249
1.968834987137082,-0.376580615386569
2.002205071664829,-0.4154500396801882
2.0355751561925763,-0.4263732986812103
2.0689452407203235,-0.41969553303589724
2.1023153252480706,-0.4023644216590762
2.1356854097758178,-0.3792806099132143
2.169055494303565,-0.3544297118243365
2.202425578831312,-0.3310762797974383
2.235795663359059,-0.31191066949379026
2.2691657478868064,-0.2999172892729707
2.3025358324145535,-0.2992691641357352
2.3359059169423007,-0.3144976981758814
2.369276001470048,-0.3469098207213567
2.402646085997795,-0.3895133187586966
2.436016170525542,-0.42391768696485815
2.4693862550532892,-0.4229202312358657
2.5027563395810364,-0.35999810874436333
2.5361264241087835,-0.22273500958935782
2.5694965086365307,-0.023737207819131502
2.602866593164278,0.1977224016708507
2.636236677692025,0.38642315484961043
2.669606762219772,0.4912948324456017
2.7029768467475193,0.4866712450404027
2.7363469312752664,0.38502476467296576
2.7697170158030135,0.23474575018275748
2.8030871003307607,0.10289261898181626
2.836457184858508,0.04934150026810981
2.869827269386255,0.10259312656955777
2.903197353914002,0.24714461708535101
2.9365674384417493,0.4279819177380705
2.9699375229694964,0.5710329373611525
3.0033076074972436,0.6118816993367978
3.0366776920249907,0.5213223757949607
3.070047776552738,0.31720030353411843
3.103417861080485,0.057445222981226673
3.136787945608232,-0.18285624619346935
3.1701580301359793,-0.34059618459321955
3.203528114663727,-0.38765101235631994
3.236898199191474,-0.33843103161942595
3.270268283719221,-0.2397547856727992
3.3036383682469683,-0.1485414369420528
3.3370084527747155,-0.10753815650462104
3.3703785373024626,-0.12916705259009242
3.4037486218302098,-0.19319452630592351
3.437118706357957,-0.25775400211788274
3.470488790885704,-0.2781333195858976
3.503858875413451,-0.22552099530042496
3.5372289599411983,-0.09887805460910008
3.5705990444689455,0.07371037426564682
3.6039691289966926,0.24395555871807828
3.63733921352444,0.3590743106550325
3.670709298052187,0.3790398700194979
3.704079382579934,0.2900048257289473
3.7374494671076812,0.10976479913460559
3.7708195516354284,-0.11667921019489273
3.8041896361631755,-0.3306265795437607
3.8375597206909227,-0.47847164481938276
3.87092980521867,-0.5296037073377355
3.904299889746417,-0.48646144461947705
3.937669974274164,-0.38174351402328505
3.9710400588019112,-0.2626373901914552
4.004410143329658,-0.16816033923160284
4.0377802278574055,-0.11019225678032772
4.071150312385153,-0.06837926686664583
4.1045203969129,-0.0028837087839483867
4.137890481440647,0.12046462245373638
4.171260565968394,0.30560396178660426
4.204630650496141,0.5162354400115409
4.238000735023888,0.6874990361122824
4.2713708195516356,0.7549601841285761
4.304740904079383,0.6865363084929441
4.33811098860713,0.5002720107480699
4.371481073134877,0.2575572925707142
4.404851157662624,0.034385453523630455
4.438221242190371,-0.11443081872202125
4.471591326718118,-0.17865046363009068
4.504961411245866,-0.19051616757101428
4.538331495773613,-0.19827284780569812
4.57170158030136,-0.2306751246890273
4.605071664829107,-0.27407599986688286
4.638441749356854,-0.2776393679703464
4.671811833884601,-0.18638334664186204
4.7051819184123485,0.015529666506413813
4.738552002940096,0.2775107353295884
4.771922087467843,0.49141910924837684
4.80529217199559,0.5377859667799686
4.838662256523337,0.3485932266386372
4.872032341051084,-0.04654718058543566
4.905402425578831,-0.5185656650041327
4.9387725101065785,-0.8876454029942984
4.972142594634326,-1.0019643258957984
5.005512679162073,-0.8086884816948456
5.03888276368982,-0.3814625049765799
5.072252848217567,0.11049198568690546
5.105622932745314,0.4775745087404429
5.138993017273061,0.5932869954723959
5.1723631018008085,0.44649608266532864
5.205733186328556,0.13930084274509413
5.239103270856303,-0.16562022382897437
5.27247335538405,-0.3207582479988462
5.305843439911797,-0.25660225669032555
5.339213524439544,-0.004805139312622572
5.372583608967291,0.32423534038251994
5.4059536934950385,0.5942568520695102
5.439323778022786,0.7000585033239214
5.472693862550533,0.6043479035441427
5.50606394707828,0.34294855656180734
5.539434031606027,0.0020082429524099165
5.572804116133774,-0.31871684852189897
5.606174200661521,-0.5403094021468602
5.6395442851892685,-0.6256283084815556
5.672914369717016,-0.5832489739803156
5.706284454244763,-0.45721010927436495
5.73965453877251,-0.3082453007513369
5.773024623300257,-0.19235346749343601
5.806394707828004,-0.14194733818088315
5.839764792355751,-0.1545164166718471
5.873134876883499,-0.19310588523442063
5.906504961411246,-0.20040108044617394
5.939875045938993,-0.12329482778784034
5.97324513046674,0.06074584562868667
6.006615214994487,0.3270932140419467
6.039985299522234,0.6063605050519759
6.073355384049981,0.8074820984127352
6.106725468577729,0.8536014264194342
6.140095553105476,0.7158631329533541
6.173465637633223,0.42951472404392915
6.20683572216097,0.08350324079556609
6.240205806688717,-0.21346642911448233
6.273575891216464,-0.3760681187838226
6.3069459757442115,-0.37527668714548257
6.340316060271959,-0.24605027990377293
6.373686144799706,-0.06679339026492974
6.407056229327454,0.07875819469735089
6.440426313855201,0.13849051269266927
6.473796398382948,0.11047726978178196
6.507166482910695,0.03592070698701106
6.540536567438442,-0.027831128369080235
6.5739066519661895,-0.03925033712524749
6.607276736493937,0.006659404723733072
6.640646821021684,0.07848887757887764
6.674016905549431,0.1280701811790599
6.707386990077178,0.11855232092348844
6.740757074604925,0.04577984811986495
6.774127159132672,-0.05851676297510736
6.8074972436604195,-0.1436089873679711
6.840867328188167,-0.1678386311585126
6.874237412715914,-0.12269726260202567
6.907607497243661,-0.03960146303937166
6.940977581771408,0.02471343868521739
6.974347666299155,0.01665738872608547
7.007717750826902,-0.08683014221096202
7.0410878353546495,-0.26599779663806183
7.074457919882397,-0.46669706291486496
7.107828004410144,-0.6242672582652331
7.141198088937891,-0.6904849838787737
7.174568173465638,-0.6509806994722378
7.207938257993385,-0.5264861844187064
7.241308342521132,-0.3595339615255359
7.27467842704888,-0.19445298711948672
7.308048511576627,-0.0601314542239769
7.341418596104374,0.03785875706425068
7.374788680632121,0.11437062719993021
7.408158765159868,0.19427166353161943
7.441528849687615,0.29988705905029023
7.4748989342153624,0.44098843589553616
7.50826901874311,0.6097759986327349
7.541639103270857,0.7811698979056999
7.575009187798604,0.9176615644258356
7.608379272326351,0.9777978201065118
7.641749356854098,0.9272405509539513
7.675119441381845,0.7505924123011012
7.7084895259095925,0.4608778364185733
7.74185961043734,0.10260264471792721
7.775229694965087,-0.2550607174399052
7.808599779492834,-0.5354314892210909
7.841969864020581,-0.6775813300206637
7.875339948548328,-0.6573023708248487
7.908710033076075,-0.49664290506715336
7.9420801176038225,-0.2569116502659616
7.97545020213157,-0.0173104362400917
8.008820286659317,0.15205818193428472
8.042190371187063,0.21183797577657987
8.075560455714811,0.161902679817184
8.108930540242557,0.035244957287698116
8.142300624770305,-0.1181369600684433
8.175670709298052,-0.2498214191465238
8.2090407938258,-0.3271892231694749
8.242410878353546,-0.3395532119704023
8.275780962881294,-0.29602626374561763
8.30915104740904,-0.21764442258622846
8.342521131936788,-0.12755884052886368
8.375891216464534,-0.043109440621104014
8.409261300992283,0.027521360428211437
8.442631385520029,0.08342580678615137
8.476001470047777,0.12567827213066735
8.509371554575523,0.15225365463016483
8.542741639103271,0.15670727384196384
8.57611172363102,0.13187749488898462
8.609481808158765,0.07646411014906233
8.642851892686513,-0.00010983770311820787
8.67622197721426,-0.07883501024011809
8.709592061742008,-0.13917967721968236
8.742962146269754,-0.1702630412542611
8.776332230797502,-0.1781236129530394
8.809702315325248,-0.1830203986900218
8.843072399852996,-0.20617030812631387
8.876442484380743,-0.2525373106874455
8.90981256890849,-0.3005233024545414
8.943182653436237,-0.3070223817622858
8.976552737963985,-0.22773687177251709
9.009922822491731,-0.04292615898774396
9.04329290701948,0.22564770433120424
9.076662991547225,0.5166467999465637
9.110033076074973,0.7498118409279159
9.14340316060272,0.8554123617628484
9.176773245130468,0.7989313508473855
9.210143329658214,0.5912351261628335
9.243513414185962,0.28242496531152644
9.276883498713708,-0.05538209141148888
9.310253583241456,-0.3483330637499568
9.343623667769203,-0.5378294399312068
9.37699375229695,-0.5915431002411852
9.410363836824697,-0.5085643179518216
9.443733921352445,-0.3192960944113427
9.477104005880191,-0.07963786539889779
9.51047409040794,0.14161611990116868
9.543844174935685,0.2816521124736421
9.577214259463434,0.30450272402435635
9.61058434399118,0.21588605409692924
9.643954428518928,0.06357588027398504
9.677324513046674,-0.08027946835174413
9.710694597574422,-0.14969069098366014
9.744064682102168,-0.11498518778280656
9.777434766629916,0.0025689035596915817
9.810804851157663,0.1403299022898508
9.84417493568541,0.2245301489387406
9.877545020213157,0.2064687221940565
9.910915104740905,0.08621007450560658
9.944285189268651,-0.08835841574093625
9.9776552737964,-0.24625748472867828
10.011025358324146,-0.328593352934164
10.044395442851894,-0.3157505264106686
10.07776552737964,-0.23304883938597937
10.111135611907388,-0.1331306625797004
10.144505696435134,-0.06549860395336843
10.177875780962882,-0.04977499038987812
10.211245865490628,-0.06661436664257488
10.244615950018376,-0.07061584081077579
10.277986034546123,-0.01816519776011765
10.31135611907387,0.10449231613785717
10.344726203601617,0.26796591052840485
10.378096288129365,0.4091802069149525
10.411466372657111,0.46034736580589247
10.44483645718486,0.3840330661540666
10.478206541712606,0.196682039841771
10.511576626240354,-0.032764320638266224
10.5449467107681,-0.21113669148350137
10.578316795295848,-0.2646976517207913
10.611686879823594,-0.17773792193641816
10.645056964351342,-0.006159144975646512
10.678427048879088,0.14332419251887274
10.711797133406836,0.16146878491326078
10.745167217934583,-0.00895760995563989
10.77853730246233,-0.3386894772848647
10.811907386990077,-0.7162277425304916
10.845277471517825,-0.9918352230277757
10.878647556045571,-1.0424935312671393
10.91201764057332,-0.8273886022491171
10.945387725101066,-0.40683948523660274
10.978757809628814,0.08476474652102832
11.01212789415656,0.49840111616746546
11.045497978684308,0.7326690267205703
11.078868063212054,0.7692460433749447
11.112238147739802,0.6672781000180759
11.145608232267548,0.5239845392608691
11.178978316795297,0.4244097353329765
11.212348401323043,0.4053900163724887
11.24571848585079,0.4481401833880202
11.279088570378537,0.49786867450459005
11.312458654906285,0.4965010452225894
11.345828739434031,0.41130374631755123
11.37919882396178,0.24760517311952843
11.412568908489526,0.04332862493641241
11.445938993017274,-0.1487259426121674
11.47930907754502,-0.28133009547310883
11.512679162072768,-0.3278398100726899
11.546049246600514,-0.2879180705209204
11.579419331128262,-0.18460438876378274
11.612789415656009,-0.05595801858943494
11.646159500183757,0.055287433936809745
11.679529584711503,0.11174873669427136
11.71289966923925,0.08979528561483606
11.746269753766997,-0.014750665048727248
11.779639838294745,-0.18483752130697073
11.813009922822491,-0.38527740404115973
11.84638000735024,-0.5706408341309428
11.879750091877986,-0.6964430392826422
11.913120176405734,-0.7308262098098584
11.94649026093348,-0.6633523685186633
11.979860345461228,-0.5080085551616338
12.013230429988974,-0.2991843689027355
12.046600514516722,-0.08179511436347081
12.079970599044469,0.10108770406007177
12.113340683572217,0.21890635448823603
12.146710768099963,0.2594610620303915
12.180080852627711,0.22918367604542098
12.213450937155457,0.14934762288593106
12.246821021683205,0.05052726201216662
12.280191106210951,-0.03321492657873486
12.3135611907387,-0.07035602252078271
12.346931275266446,-0.038672471289856056
12.380301359794194,0.06768031583435971
12.41367144432194,0.23297431204085986
12.447041528849688,0.41997219765234933
12.480411613377434,0.5778360971235447
12.513781697905182,0.6574995555768848
12.547151782432929,0.6300950840964276
12.580521866960677,0.5010236603581995
12.613891951488423,0.3122977557076559
12.647262036016171,0.1297081025172298
12.680632120543917,0.017981290559536303
12.714002205071665,0.013414109435342535
12.747372289599411,0.10602587542768238
12.78074237412716,0.24012473196233983
12.814112458654908,0.3343668708738938
12.847482543182654,0.31362395295559486
12.880852627710402,0.13965204685378685
12.914222712238148,-0.17177685557634398
12.947592796765896,-0.5535840932917987
12.980962881293642,-0.9080536556648517
13.01433296582139,-1.1371240657965758
13.047703050349137,-1.1716988533563977
13.081073134876885,-0.991323548474795
13.114443219404631,-0.6298396879158221
13.147813303932379,-0.1668849815814687
13.181183388460125,0.2919283602412464
13.214553472987873,0.6415628358568584
13.24792355751562,0.8049843802580033
13.281293642043368,0.7547036154531537
13.314663726571114,0.5218310782750765
13.348033811098862,0.1883449342983041
13.381403895626608,-0.13706523936037363
13.414773980154356,-0.35335732343951715
13.448144064682102,-0.40069805754596605
13.48151414920985,-0.2809024900517992
13.514884233737597,-0.055917416803235996
13.548254318265345,0.17668235483409483
13.581624402793091,0.32273732148041034
13.614994487320839,0.32958399472140526
13.648364571848585,0.2068515798425368
13.681734656376333,0.020377068235155775
13.71510474090408,-0.13858695717140218
13.748474825431828,-0.19533992469624076
13.781844909959574,-0.12601157910412153
13.815214994487322,0.03133639533492582
13.848585079015068,0.19378279157853368
13.881955163542816,0.2710845749211101
13.915325248070562,0.20681330963749245
13.94869533259831,0.0046997740491437415
13.982065417126057,-0.27141650106435494
14.015435501653805,-0.523635038576603
14.048805586181551,-0.6600254537611088
14.082175670709299,-0.630868342451433
14.115545755237045,-0.44596190963288873
14.148915839764793,-0.16711063109893992
14.18228592429254,0.11911948825007944
14.215656008820288,0.33577773499977753
14.249026093348034,0.4430461558428887
14.282396177875782,0.4490535515947485
14.315766262403528,0.401197070020891
14.349136346931276,0.36231943288729423
14.382506431459023,0.3813222492304377
14.41587651598677,0.46990204670653823
14.449246600514517,0.5952597114053405
14.482616685042265,0.6927497435169357
14.515986769570011,0.6940131115553918
14.54935685409776,0.5586299523670674
14.582726938625505,0.29479486642150265
14.616097023153253,-0.04095172112234143
14.649467107681,-0.3650691984229845
14.682837192208748,-0.5994788135785212
14.716207276736494,-0.7002235138009563
14.749577361264242,-0.6700457635805452
14.782947445791988,-0.5510098058079699
14.816317530319736,-0.4027267613148881
14.849687614847483,-0.2774805918835394
14.88305769937523,-0.2033538511201726
14.916427783902977,-0.18120347102070752
14.949797868430725,-0.19408546873910126
14.983167952958471,-0.22201842442999004
15.01653803748622,-0.253337385295008
15.049908122013965,-0.2868561099660636
15.083278206541713,-0.3249411384092546
15.11664829106946,-0.3632092648640114
15.150018375597208,-0.3847198790020306
15.183388460124954,-0.3638634868034111
15.216758544652702,-0.27905697970000626
15.250128629180448,-0.12745335125105803
15.283498713708196,0.06716536765657069
15.316868798235943,0.2589689661987031
15.35023888276369,0.3962884947565635
15.383608967291437,0.4425754758905682
15.416979051819185,0.3928558202201555
15.450349136346931,0.2784937842610087
15.48371922087468,0.15803707391268465
15.517089305402425,0.09725222264719315
15.550459389930174,0.14518463096125972
15.58382947445792,0.31430489313237014
15.617199558985668,0.5715717235173671
15.650569643513414,0.8441103903294352
15.683939728041162,1.0389945821916704
15.717309812568908,1.072277318988169
15.750679897096656,0.8989145584976547
15.784049981624403,0.5335383130779794
15.81742006615215,0.05316078334262847
15.850790150679897,-0.42243943637281595
15.884160235207645,-0.7690401133586838
15.917530319735391,-0.9026772922147941
15.95090040426314,-0.8129286386019927
15.984270488790886,-0.5687818255150494
16.017640573318634,-0.29127961799697105
16.05101065784638,-0.10218301471346523
16.084380742374126,-0.07060408214310984
16.117750826901876,-0.18268611027696138
16.151120911429622,-0.35000947222753126
16.18449099595737,-0.4541705557414497
16.217861080485115,-0.40683303388453324
16.251231165012864,-0.19601180230976775
16.28460124954061,0.10466741384942933
16.317971334068357,0.3690368497417426
16.351341418596103,0.47805064765861277
16.384711503123853,0.3768917802120674
16.4180815876516,0.10153119339981395
16.451451672179346,-0.2380001375338168
16.484821756707092,-0.5088204726651324
16.51819184123484,-0.6152901767818805
16.551561925762588,-0.5388009779612869
16.584932010290334,-0.33913075490029787
16.61830209481808,-0.11883366414854994
16.65167217934583,0.029893978059789945
16.685042263873576,0.06895023651972526
16.718412348401323,0.02790683715627275
16.75178243292907,-0.017340883992848197
16.78515251745682,0.011696535847760498
16.818522601984565,0.15260357163230878
16.85189268651231,0.379883606928688
16.885262771040058,0.6138972007619672
16.918632855567807,0.7559150666480093
16.952002940095554,0.7330211988009054
16.9853730246233,0.53314577091809
17.018743109151046,0.21518004074042682
17.052113193678796,-0.11071193206960024
17.085483278206542,-0.3256639693827613
17.11885336273429,-0.35110821092739175
17.15222344726204,-0.18395024553423694
17.185593531789785,0.0982394927322049
17.21896361631753,0.3666543851741782
17.252333700845277,0.4949410724754022
17.285703785373027,0.41478283858245163
