Frequency (Hz),Amplitude
0.0,2.84330922227205
0.019867549668874173,2.8419203648534417
0.039735099337748346,2.8377551838816135
0.059602649006622516,2.830817852133943
0.07947019867549669,2.821115320664576
0.09933774834437085,2.80865731346788
0.11920529801324503,2.793456320059543
0.13907284768211922,2.775527586029173
0.15894039735099338,2.7548891016367802
0.17880794701986755,2.7315615885457327
0.1986754966887417,2.705568484808289
0.2185430463576159,2.67693592824731
0.23841059602649006,2.6456927384101263
0.2582781456953642,2.611870397309617
0.27814569536423844,2.575503029215149
0.2980132450331126,2.5366273798142616
0.31788079470198677,2.4952827951387997
0.33774834437086093,2.451511200740068
0.3576158940397351,2.4053570817128036
0.3774834437086093,2.356867464314828
0.3973509933774834,2.3060919001186533
0.4172185430463576,2.2530824538771483
0.4370860927152318,2.1978936966079523
0.45695364238410596,2.140582705827797
0.4768211920529801,2.0812090754374757
0.49668874172185434,2.019834938526742
0.5165562913907285,1.9565250074159872
0.5364238410596026,1.891346636695942
0.5562913907284769,1.8243699170417054
0.5761589403973509,1.755667810424744
0.5960264900662252,1.685316341425277
0.6158940397350993,1.6133948652761754
0.6357615894039735,1.53998644202587
0.6556291390728477,1.465178359363537
0.6754966887417219,1.3890628667891156
0.695364238410596,1.3117382152737274
0.7152317880794702,1.2333101468178425
0.7350993377483444,1.1538940605893768
0.7549668874172186,1.0736182206651732
0.7748344370860927,0.9926286099791447
0.7947019867549668,0.9110964636803358
0.8145695364238411,0.8292303096474102
0.8344370860927152,0.7472958749442074
0.8543046357615894,0.665650291070435
0.8741721854304636,0.5848034642063604
0.8940397350993378,0.5055334317176073
0.9139072847682119,0.4291132127157228
0.9337748344370861,0.3577700242311542
0.9536423841059603,0.2955836664626299
0.9735099337748344,0.24982008311791654
0.9933774834437087,0.23069438963537955
1.0132450331125828,0.24461523017515513
1.033112582781457,0.2867673269997927
1.0529801324503312,0.3468859075750634
1.0728476821192052,0.41709852395276004
1.0927152317880795,0.49289957407088764
1.1125827814569538,0.5718360116079462
1.1324503311258278,0.6525192709180873
1.1523178807947019,0.7341102664392773
1.1721854304635762,0.8160652024101823
1.1920529801324504,0.8980071479618082
1.2119205298013245,0.9796582362802654
1.2317880794701985,1.0608021547905802
1.2516556291390728,1.1412624622286558
1.271523178807947,1.2208895516035525
1.2913907284768211,1.2995525357373396
1.3112582781456954,1.377134042460824
1.3311258278145695,1.4535267883532652
1.3509933774834437,1.5286312726941116
1.370860927152318,1.6023541960984033
1.390728476821192,1.674607359288734
1.410596026490066,1.7453068868356016
1.4304635761589404,1.8143726750700584
1.4503311258278146,1.8817279972793606
1.4701986754966887,1.947299220923388
1.4900662251655628,2.01101560569281
1.5099337748344372,2.0728091605756447
1.5298013245033113,2.1326145444097
1.5496688741721854,2.190368998729139
1.5695364238410596,2.246012304729664
1.5894039735099337,2.2994867583067475
1.609271523178808,2.3507371586451122
1.6291390728476822,2.3997108069406488
1.6490066225165563,2.446357512643622
1.6688741721854303,2.4906296052098154
1.6887417218543048,2.532481949793017
1.7086092715231789,2.571871965649528
1.728476821192053,2.6087596462822735
1.7483443708609272,2.643107580549666
1.7682119205298013,2.674880974117439
1.7880794701986755,2.704047670751491
1.8079470198675496,2.730578173044422
1.8278145695364238,2.754445662243528
1.847682119205298,2.7756260169087525
1.8675496688741722,2.79409783017807
1.8874172185430464,2.809842425458118
1.9072847682119205,2.8228438703914263
1.9271523178807946,2.8330889889797275
1.9470198675496688,2.840567371766909
1.9668874172185429,2.845271384006148
1.9867549668874174,2.847196171754332
2.0066225165562916,2.8463396658536935
2.0264900662251657,2.8427025837763176
2.0463576158940397,2.836288429322057
2.066225165562914,2.827103490175155
2.086092715231788,2.815156833339799
2.1059602649006623,2.8004602984901132
2.1258278145695364,2.7830284892869104
2.1456953642384105,2.762878762731477
2.165562913907285,2.7400312166471554
2.185430463576159,2.714508675402725
2.205298013245033,2.6863366740188197
2.2251655629139075,2.655543440830842
2.2450331125827816,2.6221598789203098
2.2649006622516556,2.586219546573644
2.2847682119205297,2.5477586370849536
2.3046357615894038,2.5068159582908356
2.324503311258278,2.463432912314786
2.3443708609271523,2.417653476111928
2.364238410596027,2.3695241835490437
2.384105960264901,2.319094109940273
2.403973509933775,2.2664148601995446
2.423841059602649,2.211540562085614
2.443708609271523,2.1545278664315086
2.463576158940397,2.095435956804665
2.4834437086092715,2.034326571790717
2.5033112582781456,1.971264044110129
2.52317880794702,1.9063153621747133
2.543046357615894,1.839550261637548
2.562913907284768,1.771041357233486
2.5827814569536423,1.7008643291280694
2.6026490066225163,1.6290981836760408
2.622516556291391,1.5558256168600426
2.642384105960265,1.481133521213932
2.662251655629139,1.4051136961551036
2.6821192052980134,1.3278638514052779
2.7019867549668874,1.2494890405093937
2.7218543046357615,1.170103738572526
2.741721854304636,1.0898349073088005
2.76158940397351,1.008826612541211
2.781456953642384,0.9272471539046759
2.801324503311258,0.8453003926352739
2.821192052980132,0.763244350958943
2.8410596026490067,0.681422917160258
2.8609271523178808,0.600322210595205
2.8807947019867552,0.5206754478145661
2.9006622516556293,0.4436669845427917
2.9205298013245033,0.37134200911062293
2.9403973509933774,0.30741171801508865
2.9602649006622515,0.2585267640892186
2.9801324503311255,0.23454196429597113
3.0,0.24305129723863853
3.0198675496688745,0.2810979729597504
3.0397350993377485,0.33876527858783567
3.0596026490066226,0.4076455589614356
3.0794701986754967,0.4827596368833321
3.0993377483443707,0.5613811602341748
3.119205298013245,0.6419749924940316
3.1390728476821192,0.7236219334662959
3.1589403973509933,0.8057324083530049
3.1788079470198674,0.8879020120558194
3.198675496688742,0.9698355894075295
3.218543046357616,1.0513054577936183
3.23841059602649,1.1321273847407658
3.2582781456953644,1.2121462147948787
3.2781456953642385,1.291226962617597
3.2980132450331126,1.3692491218277574
3.3178807947019866,1.4461029309572355
3.3377483443708607,1.5216868672227537
3.3576158940397347,1.5959059317527453
3.3774834437086096,1.66867045750019
3.3973509933774837,1.7398952698992594
3.4172185430463577,1.8094990902270673
3.437086092715232,1.877404108863303
3.456953642384106,1.9435356793157341
3.47682119205298,2.0078220992521327
3.4966887417218544,2.0701944549537585
3.5165562913907285,2.130586512459463
3.5364238410596025,2.188934643361904
3.556291390728477,2.245177776478768
3.576158940397351,2.299257368920337
3.596026490066225,2.35111739171595
3.615894039735099,2.4007043263477907
3.6357615894039736,2.4479671694075096
3.6556291390728477,2.4928574432317046
3.6754966887417218,2.5353292108503833
3.695364238410596,2.57533909394301
3.7152317880794703,2.6128462927707
3.7350993377483444,2.6478126072637314
3.754966887417219,2.6802024586063435
3.774834437086093,2.7099829107882174
3.794701986754967,2.73712369169224
3.814569536423841,2.7615972133679825
3.834437086092715,2.783378591204263
3.854304635761589,2.8024456617661166
3.8741721854304636,2.8187789991039454
3.8940397350993377,2.8323619293778113
3.9139072847682117,2.8431805436695146
3.9337748344370858,2.851223708880236
3.9536423841059607,2.856483076633449
3.9735099337748347,2.8589530901221507
3.993377483443709,2.8586309888569494
4.013245033112583,2.8555168112877594
4.033112582781457,2.849613395287404
4.052980132450331,2.8409263765003137
4.072847682119205,2.829464184575071
4.0927152317880795,2.8152380373151407
4.112582781456953,2.7982619327991327
4.132450331125828,2.778552639540396
4.152317880794702,2.756129684776409
4.172185430463576,2.731015341002186
4.19205298013245,2.7032346108892837
4.211920529801325,2.6728152107646594
4.231788079470199,2.6397875528625696
4.251655629139073,2.6041847266100167
4.271523178807947,2.5660424792643095
4.291390728476821,2.5253991962931233
4.311258278145695,2.482295881977502
4.33112582781457,2.436776140831771
4.3509933774834435,2.3888861605786533
4.370860927152318,2.338674697603775
4.390728476821192,2.286193066053879
4.410596026490066,2.2314951320574066
4.43046357615894,2.1746373149601137
4.450331125827815,2.115678598019967
4.470198675496689,2.0546805517463986
4.490066225165563,1.9917073740756244
4.509933774834438,1.9268259529553367
4.529801324503311,1.860105958831499
4.549668874172186,1.791619977228926
4.569536423841059,1.7214436954635053
4.589403973509934,1.6496561630836268
4.6092715231788075,1.57634015379889
4.629139072847682,1.501582668833582
4.649006622516556,1.4254756401496418
4.66887417218543,1.3481169206640722
4.688741721854305,1.2696116939913615
4.708609271523179,1.1900745098280572
4.728476821192054,1.109632273451758
4.748344370860927,1.0284287270558734
4.768211920529802,0.9466313297068774
4.788079470198675,0.8644421159805192
4.80794701986755,0.7821153872414323
4.827814569536423,0.699987595132919
4.847682119205298,0.6185299015728378
4.867549668874172,0.5384447491727956
4.887417218543046,0.4608511254206782
4.9072847682119205,0.387651327301287
4.927152317880794,0.32224654729430896
4.947019867549669,0.27070420491666924
4.966887417218543,0.24231005924646565
4.986754966887418,0.24537118318131812
5.006622516556291,0.2788551629314204
5.026490066225166,0.3336337302469945
5.04635761589404,0.4009185154551266
5.066225165562914,0.47523172367566674
5.086092715231788,0.5535257746405652
5.105960264900662,0.6340839054336872
5.125827814569536,0.7158843921623506
5.14569536423841,0.798277703089843
5.1655629139072845,0.8808227732708569
5.185430463576159,0.9632010074760647
5.205298013245033,1.0451690884695886
5.225165562913908,1.1265319363527013
5.245033112582782,1.207126587798067
5.264900662251656,1.2868122401519775
5.28476821192053,1.3654639095335381
5.304635761589404,1.4429682809042215
5.324503311258278,1.5192209288527363
5.344370860927152,1.5941244193001556
5.364238410596027,1.667586991375324
5.3841059602649,1.739521629850926
5.403973509933775,1.8098454057027835
5.4238410596026485,1.8784790039890347
5.443708609271523,1.9453463846520163
5.463576158940397,2.010374538949669
5.483443708609272,2.073493315517948
5.503311258278146,2.1346352976576592
5.52317880794702,2.1937357186265656
5.543046357615895,2.2507324053159197
5.562913907284768,2.3055657432222776
5.582781456953643,2.3581786574296264
5.602649006622516,2.40851660561903
5.622516556291391,2.4565275800730486
5.642384105960264,2.502162116343335
5.662251655629139,2.545373306772338
5.682119205298013,2.5861168174533398
5.701986754966887,2.624350907511743
5.7218543046357615,2.6600364498197115
5.741721854304636,2.693136952433237
5.7615894039735105,2.7236185801789157
5.781456953642384,2.751450175926512
5.801324503311259,2.7766032811695784
5.821192052980132,2.7990521556056085
5.841059602649007,2.818773795463244
5.860927152317881,2.8357479503695897
5.880794701986755,2.8499571385887488
5.900662251655629,2.8613866604942637
5.920529801324503,2.8700246101651414
5.940397350993377,2.8758618850185567
5.960264900662251,2.8788921934126295
5.980132450331126,2.8791120601716673
6.0,2.876520830002865
6.0198675496688745,2.871120668790068
6.039735099337749,2.8629165627660487
6.059602649006623,2.8519163155804237
6.079470198675497,2.838130543297185
6.099337748344371,2.8215726673732355
6.119205298013245,2.8022589056884164
6.139072847682119,2.7802082617191775
6.158940397350993,2.7554425119722654
6.178807947019867,2.7279861918235353
6.198675496688741,2.697866579940247
6.218543046357616,2.6651136815056695
6.23841059602649,2.629760210513435
6.258278145695365,2.5918415714587772
6.2781456953642385,2.5513958408276247
6.298013245033113,2.5084637488770367
6.317880794701987,2.463088662316555
6.337748344370861,2.415316568648244
6.357615894039735,2.3651960631127324
6.377483443708609,2.312778339434133
6.397350993377484,2.2581171858767135
6.417218543046357,2.2012689885478345
6.437086092715232,2.1422927444413995
6.456953642384105,2.0812500874674513
6.47682119205298,2.018205331731479
6.496688741721854,1.9532255377216123
6.516556291390729,1.8863806089942543
6.5364238410596025,1.8177434296589459
6.556291390728477,1.7473900568144511
6.5761589403973515,1.6753999876373782
6.596026490066225,1.60185652894246
6.6158940397351,1.5268473091031975
6.635761589403973,1.45046499048608
6.655629139072848,1.3728082687246126
6.675496688741721,1.2939832895321528
6.695364238410596,1.214105685249364
6.715231788079469,1.1333035514247694
6.735099337748344,1.0517218842019591
6.754966887417219,0.9695293498631224
6.774834437086093,0.8869288911235711
6.794701986754967,0.8041748592123452
6.814569536423841,0.7216016590674882
6.8344370860927155,0.6396735210781204
6.854304635761589,0.5590746235242664
6.874172185430464,0.4808790264409942
6.894039735099337,0.4068806463362469
6.913907284768212,0.34022615725249583
6.933774834437086,0.2864540657848757
6.95364238410596,0.25416588078747376
6.973509933774834,0.2519231838946003
6.993377483443709,0.2804730977969885
7.013245033112583,0.3318884372206881
7.033112582781457,0.39724755764622754
7.052980132450331,0.47058964451084423
7.072847682119205,0.5485037514251789
7.0927152317880795,0.6290535091340407
7.112582781456954,0.7110886427159208
7.132450331125828,0.7938826911810737
7.152317880794702,0.8769467814618969
7.172185430463576,0.9599313708100186
7.19205298013245,1.0425722980873522
7.211920529801324,1.124659909625992
7.231788079470198,1.2060206893883354
7.251655629139073,1.2865059389272284
7.271523178807947,1.3659845818694523
7.291390728476822,1.4443384643606734
7.311258278145695,1.5214592126937632
7.33112582781457,1.5972460894163054
7.3509933774834435,1.671604505608562
7.370860927152318,1.7444449739951102
7.390728476821192,1.8156823641382664
7.410596026490066,1.8852353683327794
7.430463576158941,1.9530261168066465
7.450331125827814,2.018979900216964
7.470198675496689,2.0830249702067674
7.490066225165562,2.1450923973613953
7.509933774834438,2.20511597175069
7.52980132450331,2.2630321352929763
7.549668874172186,2.3187799380215375
7.569536423841059,2.37230101235885
7.589403973509934,2.423539560962515
7.6092715231788075,2.4724423547700973
7.629139072847682,2.5189587386533927
7.649006622516557,2.5630406426757992
7.66887417218543,2.604642597384751
7.6887417218543055,2.643721751903824
7.708609271523178,2.680237893843614
7.728476821192054,2.714153470247228
7.748344370860927,2.7454336089393747
7.768211920529802,2.7740461397683926
7.788079470198675,2.7999616153260463
7.80794701986755,2.823153330806108
7.827814569536423,2.843597342724513
7.847682119205298,2.8612724862741894
7.8675496688741715,2.876160391128937
7.887417218543046,2.888245495545791
7.907284768211921,2.8975150586444482
7.927152317880795,2.9039591707677848
7.9470198675496695,2.9075707618499527
7.966887417218543,2.9083456077383163
7.986754966887418,2.906282334434167
8.006622516556291,2.9013824202345093
8.026490066225167,2.8936501957741414
8.046357615894038,2.8830928419843587
8.066225165562914,2.8697203860021223
8.086092715231787,2.8535456950821443
8.105960264900663,2.834584468584776
8.125827814569536,2.812855228135111
8.14569536423841,2.7883793060747
8.165562913907285,2.761180832357204
8.185430463576159,2.731286720074721
8.205298013245034,2.6987266498438665
8.225165562913906,2.663533053331864
8.245033112582782,2.6257410962658403
8.264900662251655,2.5853886613457493
8.28476821192053,2.5425163315785264
8.304635761589404,2.497167374672676
8.324503311258278,2.449387729287428
8.344370860927151,2.3992259941286758
8.364238410596027,2.346733421139963
8.3841059602649,2.2919639143700845
8.403973509933774,2.2349740365370296
8.42384105960265,2.1758230258889233
8.443708609271523,2.114572826740417
8.463576158940398,2.0512881381146912
8.483443708609272,1.9860364863587108
8.503311258278146,1.9188883295856207
8.52317880794702,1.8499172045765426
8.543046357615895,1.7791999307097173
8.562913907284768,1.7068168911368542
8.582781456953642,1.63285241966407
8.602649006622515,1.5573953339922448
8.62251655629139,1.4805396743461663
8.642384105960264,1.4023857347217523
8.66225165562914,1.32304151814466
8.682119205298013,1.2426248180402901
8.701986754966887,1.161266243766784
8.721854304635762,1.0791137035538223
8.741721854304636,0.9963391961571499
8.76158940397351,0.9131493663694861
8.781456953642383,0.8298023940890972
8.801324503311259,0.7466359154135502
8.821192052980132,0.6641148779359707
8.841059602649008,0.5829167633677583
8.86092715231788,0.5040890591999341
8.880794701986755,0.4293477587135127
8.90066225165563,0.361635388156752
8.920529801324504,0.3060248892643086
8.940397350993377,0.27039184140298445
8.960264900662251,0.2631645545503273
8.980132450331126,0.2865503255593737
9.0,0.33412713339002603
9.019867549668875,0.39716778508630546
9.039735099337747,0.46930473068082706
9.059602649006623,0.5467379015879481
9.079470198675496,0.6272735619424389
9.099337748344372,0.7096036956807318
9.119205298013245,0.7929048594207696
9.139072847682119,0.8766268479014385
9.158940397350994,0.9603799352233608
9.178807947019868,1.0438726621056966
9.198675496688743,1.1268761706414718
9.218543046357615,1.2092029806447977
9.23841059602649,1.2906939190922049
9.258278145695364,1.3712098195858105
9.27814569536424,1.4506261062505854
9.298013245033111,1.5288291751124707
9.317880794701987,1.6057139264900064
9.33774834437086,1.6811820527314967
9.357615894039736,1.7551408327081308
9.37748344370861,1.827502273105667
9.397350993377483,1.8981824913201355
9.417218543046358,1.9671012693837022
9.437086092715232,2.034181730699162
9.456953642384107,2.0993501060753035
9.47682119205298,2.162535565414527
9.496688741721854,2.223670098120907
9.516556291390728,2.282688429942229
9.536423841059603,2.3395279672187996
9.556291390728477,2.39412876182864
9.57615894039735,2.4464334917857276
9.596026490066224,2.4963874536619253
9.6158940397351,2.5439385638964933
9.635761589403973,2.589037366721164
9.655629139072847,2.631637046927628
9.675496688741722,2.6716934460821653
9.695364238410596,2.7091650810811125
9.715231788079471,2.7440131641639502
9.735099337748345,2.7762016236740807
9.754966887417218,2.8056971249935914
9.774834437086092,2.83246909118607
9.794701986754967,2.8564897229674657
9.814569536423841,2.8777340176944017
9.834437086092716,2.8961797871158628
9.854304635761588,2.911807673680757
9.874172185430464,2.9246011652323674
9.894039735099337,2.9345466079539015
9.913907284768213,2.941633217457207
9.933774834437086,2.945853087931658
9.95364238410596,2.9472011992921248
9.973509933774835,2.94567542228549
9.993377483443709,2.941276521533957
10.013245033112582,2.9340081565122857
10.033112582781456,2.9238768804742388
10.052980132450331,2.910892137362974
10.072847682119205,2.89506625675988
10.09271523178808,2.876414446948822
10.112582781456952,2.854954786196732
10.132450331125828,2.830708212379836
10.152317880794701,2.803698511116687
10.172185430463577,2.7739523026076935
10.192052980132452,2.741499027426038
10.211920529801324,2.706370931560156
10.2317880794702,2.668603051075184
10.251655629139073,2.6282331968441888
10.271523178807948,2.5853019399033808
10.29139072847682,2.5398525981165156
10.311258278145695,2.4919312249984866
10.331125827814569,2.4415866017602754
10.350993377483444,2.3888702339097683
10.370860927152318,2.3338363540980125
10.390728476821192,2.2765419333654657
10.410596026490065,2.2170467035589323
10.43046357615894,2.1554131945121475
10.450331125827816,2.091706790693038
10.470198675496688,2.0259958135332896
10.490066225165563,1.9583516377409107
10.509933774834437,1.888848852803435
10.529801324503312,1.817565484994167
10.549668874172186,1.7445833010670322
10.56953642384106,1.6699882233510561
10.589403973509933,1.5938708985235077
10.609271523178808,1.516327481179842
10.629139072847682,1.4374607220718814
10.649006622516556,1.357381495636001
10.66887417218543,1.276210972573657
10.688741721854305,1.1940837589705118
10.70860927152318,1.1111525164427074
10.728476821192054,1.0275949084725196
