Frequency (Hz),Amplitude
0.0,3.4608442709904166
0.01978021978021978,3.4606811895566523
0.03956043956043956,3.46019251268582
0.05934065934065934,3.4593799411857016
0.07912087912087912,3.4582463047885237
0.0989010989010989,3.4567955547231177
0.11868131868131868,3.4550327533027247
0.13846153846153844,3.452964060515714
0.15824175824175823,3.450596717603629
0.17802197802197803,3.4479390276087307
0.1978021978021978,3.445000332871465
0.21758241758241756,3.4417909894577305
0.23736263736263735,3.4383223384956825
0.2571428571428572,3.4346066744035286
0.2769230769230769,3.4306572099918045
0.2967032967032967,3.426488038427999
0.31648351648351647,3.4221140920561823
0.3362637362637363,3.417551098071758
0.35604395604395606,3.412815531059718
0.3758241758241758,3.4079245624154435
0.3956043956043956,3.4028960066791947
0.4153846153846154,3.3977482648300574
0.4351648351648351,3.3925002646007987
0.45494505494505494,3.387171397893841
0.4747252747252747,3.3817814553982584
0.4945054945054945,3.376350558530028
0.5142857142857143,3.370899088841454
0.5340659340659341,3.365447615071029
0.5538461538461538,3.360016818032001
0.5736263736263736,3.354627413565761
0.5934065934065934,3.3493000738149856
0.6131868131868132,3.3440553471009333
0.6329670329670329,3.3389135767183236
0.6527472527472528,3.3338948189904976
0.6725274725274726,3.329018760955249
0.6923076923076923,3.3243046380784604
0.7120879120879121,3.3197711524167866
0.7318681318681318,3.3154363916728444
0.7516483516483516,3.311317749604286
0.7714285714285715,3.307431848263345
0.7912087912087912,3.303794462553169
0.810989010989011,3.300420447592949
0.8307692307692308,3.2973236693834673
0.8505494505494506,3.294516939259119
0.8703296703296702,3.2920119526004483
0.8901098901098901,3.2898192322634214
0.9098901098901099,3.287948077157314
0.9296703296703297,3.2864065163730287
0.9494505494505494,3.2852012692272554
0.9692307692307692,3.284337711546493
0.989010989010989,3.283819848468334
1.0087912087912088,3.283650293986246
1.0285714285714287,3.283830257409868
1.0483516483516484,3.2843595368553333
1.0681318681318681,3.2852365198210265
1.087912087912088,3.2864581908441144
1.1076923076923075,3.288020146173406
1.1274725274725275,3.289916615334935
1.1472527472527472,3.2921404894101784
1.1670329670329669,3.2946833557925803
1.1868131868131868,3.2975355391381944
1.2065934065934065,3.300686148180368
1.2263736263736265,3.30412312803776
1.2461538461538462,3.3078333176102945
1.2659340659340659,3.3118025116278487
1.2857142857142858,3.316015526894249
1.3054945054945055,3.320456272251467
1.3252747252747252,3.3251078217789565
1.3450549450549452,3.3299524907376226
1.3648351648351649,3.334971913769395
1.3846153846153846,3.3401471248689214
1.4043956043956045,3.34545863865542
1.4241758241758242,3.3508865324876314
1.443956043956044,3.356410528983828
1.4637362637362636,3.362010078531161
1.4835164835164834,3.367664441392981
1.5032967032967033,3.373352769049605
1.523076923076923,3.3790541844359274
1.542857142857143,3.3847478607679022
1.5626373626373626,3.3904130986793426
1.5824175824175823,3.396029401419188
1.6021978021978023,3.401576547888048
1.621978021978022,3.4070346633201574
1.6417582417582417,3.412384287443502
1.6615384615384616,3.4176064399753847
1.6813186813186813,3.4226826833343207
1.7010989010989013,3.4275951824703026
1.720879120879121,3.432326761735176
1.7406593406593405,3.436860958732509
1.7604395604395604,3.4411820751017137
1.7802197802197801,3.4452752242052265
1.7999999999999998,3.4491263756989623
1.8197802197802198,3.4527223969762817
1.8395604395604395,3.456051091483848
1.8593406593406594,3.459101233914021
1.879120879120879,3.4618626022834764
1.8989010989010988,3.4643260069109196
1.9186813186813187,3.466483316308971
1.9384615384615385,3.468327480006023
1.9582417582417584,3.469852548313734
1.978021978021978,3.4710536890546364
1.9978021978021978,3.471927201262223
2.0175824175824175,3.4724705258633777
2.0373626373626372,3.4726822533497055
2.0571428571428574,3.4725621284406247
2.076923076923077,3.4721110517372296
2.096703296703297,3.471331078361798
2.1164835164835165,3.470225413573575
2.1362637362637362,3.4687984053476213
2.1560439560439564,3.4670555338993525
2.175824175824176,3.465003398134296
2.195604395604396,3.462649698999251
2.215384615384615,3.4600032197088564
2.2351648351648348,3.457073802819905
2.254945054945055,3.4538723241249643
2.2747252747252746,3.4504106633373017
2.2945054945054943,3.446701671540458
2.314285714285714,3.4427591353787546
2.3340659340659338,3.4385977379693125
2.353846153846154,3.434233016521903
2.3736263736263736,3.4296813166607536
2.3934065934065933,3.4249597434517454
2.413186813186813,3.420086109149926
2.4329670329670328,3.415078877695641
2.452747252747253,3.409957106003143
2.4725274725274726,3.404740382103387
2.4923076923076923,3.3994487602221466
2.512087912087912,3.3941026928971008
2.5318681318681318,3.3887229602609303
2.5516483516483515,3.383330596643923
2.5714285714285716,3.3779468146767897
2.5912087912087913,3.3725929271039
2.610989010989011,3.3672902665473456
2.6307692307692307,3.362060103493705
2.6505494505494505,3.3569235628069247
2.6703296703296706,3.3519015391028306
2.6901098901098903,3.3470146113516477
2.70989010989011,3.342282957105548
2.7296703296703297,3.33772626677625
2.7494505494505495,3.3333636584143336
2.769230769230769,3.3292135934646576
2.7890109890109893,3.3252937939921425
2.808791208791209,3.3216211618871947
2.8285714285714287,3.3182117005705405
2.8483516483516484,3.3150804397220064
2.8681318681318677,3.3122413635569505
2.887912087912088,3.309707343166604
2.9076923076923076,3.3074900734247747
2.9274725274725273,3.3056000149427933
2.947252747252747,3.30404634152733
2.9670329670329667,3.3028368935617354
2.986813186813187,3.3019781376915467
3.0065934065934066,3.301475133148808
3.0263736263736263,3.3013315049986014
3.046153846153846,3.30154942453554
3.0659340659340657,3.3021295969986126
3.085714285714286,3.3030712567106004
3.1054945054945056,3.3043721696845294
3.1252747252747253,3.3060286436752397
3.145054945054945,3.3080355455899615
3.1648351648351647,3.3103863261094615
3.184615384615385,3.3130730513111155
3.2043956043956046,3.3160864410289714
3.2241758241758243,3.3194159136334447
3.243956043956044,3.3230496368662488
3.2637362637362637,3.326974584324893
3.2835164835164834,3.3311765971555167
3.3032967032967036,3.335640450484357
3.3230769230769233,3.340349924095844
3.342857142857143,3.345287876849878
3.3626373626373627,3.350436324322026
3.3824175824175824,3.3557765191477293
3.4021978021978025,3.3612890335548973
3.4219780219780223,3.366953843578292
3.441758241758242,3.37275041446262
3.4615384615384617,3.3786577867796432
3.481318681318681,3.3846546628064043
3.501098901098901,3.390719492736568
3.520879120879121,3.3968305603243865
3.5406593406593405,3.4029660675899565
3.5604395604395602,3.4091042182446993
3.58021978021978,3.4152232995272143
3.5999999999999996,3.4213017621705117
3.61978021978022,3.4273182982524126
3.6395604395604395,3.433251916710882
3.659340659340659,3.4390820163345817
3.679120879120879,3.4447884560664157
3.6989010989010986,3.4503516224833892
3.718681318681319,3.4557524943396793
3.7384615384615385,3.4609727040817346
3.758241758241758,3.465994596263733
3.7780219780219784,3.470801282809192
3.7978021978021976,3.4753766950800316
3.8175824175824173,3.479705632727517
3.8373626373626375,3.4837738093108075
3.8571428571428568,3.487567894678116
3.876923076923077,3.491075554112726
3.896703296703296,3.4942854842520212
3.916483516483517,3.4971874457913854
3.936263736263736,3.4997722929875326
3.956043956043956,3.502031999976839
3.9758241758241755,3.503959683924277
3.9956043956043956,3.5055496250171783
4.015384615384615,3.506797283316066
4.035164835164835,3.507699312471793
4.054945054945055,3.508253570314469
4.0747252747252745,3.508459126315781
4.094505494505494,3.50831626592138
4.114285714285715,3.5078264917454507
4.134065934065934,3.50699252161451
4.153846153846154,3.5058182834425287
4.173626373626373,3.5043089069146713
4.193406593406594,3.5024707119525034
4.213186813186813,3.5003111939293152
4.232967032967033,3.4978390056008677
4.252747252747253,3.4950639357138757
4.2725274725274724,3.4919968842530227
4.292307692307692,3.4886498342860732
4.312087912087913,3.485035820367335
4.331868131868132,3.481168893461207
4.351648351648352,3.4770640823512178
4.371428571428571,3.47273735150436
4.391208791208792,3.46820555536795
4.410989010989011,3.463486389084629
4.43076923076923,3.458598335622341
4.450549450549451,3.453560609329212
4.4703296703296695,3.4483930959389455
4.49010989010989,3.4431162890703257
4.50989010989011,3.4377512232850127
4.52967032967033,3.4323194037907045
4.549450549450549,3.4268427329024056
4.569230769230769,3.421343433402154
4.589010989010989,3.4158439689677844
4.608791208791209,3.410366961873165
4.628571428571428,3.40493510819637
4.648351648351649,3.3995710908070254
4.6681318681318675,3.3942974904405445
4.687912087912088,3.389136695203191
4.707692307692308,3.3841108088885345
4.7274725274725276,3.3792415585215454
4.747252747252747,3.374550201580731
4.767032967032967,3.3700574333810294
4.786813186813187,3.3657832951292703
4.806593406593407,3.3617470831896323
4.826373626373626,3.357967260117576
4.846153846153847,3.3544613680365543
4.8659340659340655,3.3512459449420313
4.885714285714286,3.348336444520462
4.905494505494506,3.3457471600677553
4.9252747252747255,3.34349115308041
4.945054945054945,3.341580187074043
4.964835164835165,3.3400246671575147
4.984615384615385,3.3388335858565883
5.004395604395604,3.338014475639561
5.024175824175824,3.337573368548262
5.043956043956045,3.337514763283118
5.0637362637362635,3.3378416000295905
5.083516483516483,3.3385552432483045
5.103296703296703,3.33965547258147
5.123076923076923,3.3411404819568333
5.142857142857143,3.3430068868970193
5.162637362637362,3.3452497399692915
5.182417582417583,3.3478625542388927
5.2021978021978015,3.3508373345196163
5.221978021978022,3.3541646161495966
5.241758241758242,3.357833510959303
5.2615384615384615,3.361831760043109
5.281318681318681,3.366145792896665
5.301098901098901,3.3707607924403047
5.320879120879121,3.3756607654137496
5.340659340659341,3.380828617600474
5.36043956043956,3.386246233320558
5.380219780219781,3.3918945586190046
5.3999999999999995,3.3977536875724006
5.41978021978022,3.4038029511387604
5.43956043956044,3.4100210079850073
5.4593406593406595,3.4163859367407152
5.479120879120879,3.4228753291471716
5.498901098901099,3.4294663835948613
5.518681318681319,3.4361359985705273
5.538461538461538,3.442860865566013
5.558241758241758,3.4496175610338082
5.578021978021979,3.456382637009026
5.5978021978021975,3.4631327100524567
5.617582417582418,3.4698445482047164
5.637362637362637,3.4764951556766093
5.6571428571428575,3.483061855034411
5.676923076923077,3.489522366671868
5.696703296703297,3.49585488539123
5.716483516483517,3.5020381539450978
5.736263736263735,3.508051533417215
5.756043956043956,3.5138750703453048
5.775824175824176,3.5194895605108716
5.795604395604395,3.5248766093405455
5.815384615384615,3.530018688881036
5.835164835164835,3.5348991913240195
5.854945054945055,3.5395024790701974
5.874725274725275,3.5438139313316763
5.894505494505494,3.547819987279766
5.914285714285715,3.5515081857515662
5.934065934065933,3.5548672015324994
5.953846153846154,3.55788687823466
5.973626373626374,3.560558257791507
5.993406593406593,3.562873606588914
6.013186813186813,3.56482643825067
6.032967032967033,3.566411533093823
6.052747252747253,3.567624954265039
6.072527472527473,3.568464060564872
6.092307692307692,3.5689275159611116
6.112087912087913,3.5690152957870045
6.131868131868131,3.5687286896136303
6.151648351648352,3.5680703007797017
6.171428571428572,3.5670440425553718
6.191208791208791,3.5656551309106876
6.210989010989011,3.5639100738530827
6.230769230769231,3.5618166572928835
6.2505494505494505,3.5593839273907593
6.270329670329671,3.556622169336854
6.29010989010989,3.553542882508035
6.309890109890111,3.550158751947654
6.329670329670329,3.5464836161111264
6.349450549450549,3.542532430821537
6.36923076923077,3.5383212293816846
6.3890109890109885,3.533867078793237
6.408791208791209,3.5291880320400635
6.428571428571428,3.5243030764013104
6.4483516483516485,3.5192320777710027
6.468131868131868,3.5139957209745103
6.487912087912088,3.508615446088804
6.507692307692308,3.5031133807928296
6.527472527472527,3.497512268796557
6.547252747252747,3.491835394422789
6.567032967032967,3.486106503444211
6.5868131868131865,3.480349720309411
6.606593406593407,3.474589461925941
6.626373626373626,3.4688503482052435
6.6461538461538465,3.463157109613252
6.665934065934065,3.4575344920117965
6.685714285714286,3.4520071591182355
6.705494505494506,3.4465995929543425
6.725274725274725,3.4413359926991864
6.745054945054945,3.4362401724038976
6.764835164835165,3.431335458068334
6.7846153846153845,3.4266445846193423
6.804395604395605,3.422189593367154
6.824175824175824,3.4179917305489615
6.8439560439560445,3.414071347596573
6.863736263736263,3.4104478037868
6.883516483516484,3.4071393719478587
6.903296703296704,3.4041631479027235
6.923076923076923,3.401534964329097
6.942857142857143,3.399269309705718
6.962637362637362,3.3973792529957683
6.9824175824175825,3.3958763746892786
7.002197802197802,3.394770704788534
7.021978021978022,3.3940706682733777
7.041758241758242,3.393783038527282
7.061538461538461,3.3939128991413505
7.081318681318681,3.3944636144425915
7.101098901098901,3.395436809015936
7.1208791208791204,3.3968323564080998
7.140659340659341,3.3986483771168747
7.16043956043956,3.4008812458829185
7.1802197802197805,3.403525608214868
7.199999999999999,3.4065744059934477
7.21978021978022,3.4100189119181485
7.23956043956044,3.413848772482455
7.259340659340659,3.4180520590913437
7.279120879120879,3.4226153268697606
7.298901098901099,3.4275236806530778
7.318681318681318,3.432760847601624
7.338461538461539,3.4383092558414416
7.358241758241758,3.4441501185023053
7.3780219780219785,3.4502635225031164
7.397802197802197,3.456628521422004
7.417582417582418,3.463223231785328
7.437362637362638,3.4700249321144576
7.457142857142857,3.477010164081591
7.476923076923077,3.4841548351454303
7.496703296703297,3.4914343220623794
7.516483516483516,3.498823574699727
7.536263736263736,3.5062972196113824
7.556043956043957,3.5138296628745214
7.575824175824176,3.5213951917255906
7.595604395604395,3.5289680745750096
7.615384615384615,3.536522659022299
7.635164835164835,3.544033467534925
7.654945054945055,3.5514752904951514
7.674725274725275,3.558823276358895
7.694505494505494,3.5660530187084727
7.7142857142857135,3.5731406400167116
7.734065934065935,3.580062871973006
7.753846153846154,3.5867971322524306
7.7736263736263735,3.5933215976364097
7.793406593406592,3.599615273418195
7.813186813186814,3.6056580590479443
7.832967032967034,3.6114308099908565
7.852747252747252,3.6169153957877103
7.872527472527472,3.6220947543200723
7.892307692307693,3.626952942292978
7.912087912087912,3.631475181955632
7.931868131868132,3.635647904086403
7.951648351648351,3.6394587872717605
7.971428571428572,3.642896793510319
7.991208791208791,3.645952200172675
8.010989010989011,3.648616628346247
8.03076923076923,3.650883067590436
8.05054945054945,3.6527458971235265
8.07032967032967,3.6542009034565526
8.09010989010989,3.655245294483399
8.10989010989011,3.655877710028844
8.129670329670331,3.6560982288487924
8.149450549450549,3.655908372068604
8.169230769230769,3.6553111030373797
8.189010989010988,3.6543108235673687
8.20879120879121,3.652913366519687
8.22857142857143,3.651125984689411
8.248351648351647,3.64895733593578
8.268131868131867,3.6464174644961567
8.287912087912087,3.6435177784167823
8.307692307692308,3.6402710230281845
8.327472527472528,3.6366912503894935
8.347252747252746,3.6327937846239906
8.367032967032966,3.628595183067654
8.386813186813187,3.6241131931539017
8.406593406593407,3.619366704961916
8.426373626373627,3.614375699361806
8.446153846153845,3.609161191699024
8.465934065934066,3.6037451709722763
8.485714285714286,3.5981505344743
8.505494505494505,3.592401017883227
8.525274725274725,3.5865211208144308
8.545054945054945,3.5805360278680483
8.564835164835165,3.574471525237244
8.584615384615384,3.5683539129750237
8.604395604395604,3.5622099130547396
8.624175824175826,3.5560665733995296
8.643956043956043,3.54995116810023
8.663736263736263,3.5438910940878743
8.683516483516483,3.537913764576703
8.703296703296704,3.532046499644918
8.723076923076924,3.5263164143736394
8.742857142857142,3.520750305017638
8.762637362637362,3.515374533734965
8.782417582417583,3.5102149124540167
8.802197802197803,3.505296586506093
8.821978021978023,3.5006439186971208
8.84175824175824,3.496280374532998
8.86153846153846,3.4922284093476876
8.881318681318682,3.4885093581107953
8.901098901098901,3.485143328710204
8.920879120879121,3.48214909951505
8.940659340659339,3.4795440220234464
8.96043956043956,3.4773439293876587
8.98021978021978,3.4755630515860014
9.0,3.474213937975714
9.01978021978022,3.4733073879142387
9.03956043956044,3.4728523900783026
9.05934065934066,3.4728560710411527
9.079120879120879,3.4733236535900427
9.098901098901099,3.4742584251785846
9.11868131868132,3.4756617168146904
9.138461538461538,3.477532892584911
9.158241758241758,3.4798693499132582
9.178021978021977,3.48266653054728
9.197802197802199,3.48591794216028
9.217582417582419,3.4896151903562314
9.237362637362637,3.4937480207662626
9.257142857142856,3.498304370833848
9.276923076923078,3.5032704308016043
9.296703296703297,3.508630713337628
9.316483516483517,3.514368131173789
9.336263736263735,3.520464082074505
9.356043956043957,3.5268985404112745
9.375824175824176,3.5336501545871273
9.395604395604396,3.540696349535051
9.415384615384616,3.5480134335061058
9.435164835164835,3.555576708364412
9.454945054945055,3.5633605826183965
9.474725274725275,3.571338686437984
9.494505494505495,3.5794839879359497
9.514285714285714,3.587768910026897
9.534065934065934,3.5961654472177265
9.553846153846154,3.604645281728545
9.573626373626373,3.613179898390956
9.593406593406593,3.6217406978205475
9.613186813186815,3.630299107411679
9.632967032967032,3.638826689753308
9.652747252747252,3.6472952481150895
9.672527472527472,3.6556769287012467
9.692307692307693,3.663944319416466
9.712087912087913,3.6720705449314885
9.731868131868131,3.6800293578768004
9.75164835164835,3.687795226030359
9.771428571428572,3.6953434153985367
9.791208791208792,3.7026500691201387
9.810989010989012,3.7096922821493137
9.83076923076923,3.71644817169613
9.850549450549451,3.722896943422876
9.87032967032967,3.729018953409864
9.89010989010989,3.7347957659169833
9.90989010989011,3.740210206976973
9.92967032967033,3.745246413862849
9.94945054945055,3.7498898804759415
9.96923076923077,3.7541274987027133
9.989010989010989,3.757947595787932
10.008791208791209,3.7613399677691133
10.028571428571428,3.764295909013179
10.048351648351648,3.7668082378902104
10.068131868131868,3.768871318612364
10.08791208791209,3.770481079257587
10.107692307692307,3.771635025988883
10.127472527472527,3.7723322534698824
10.147252747252747,3.7725734514671467
10.167032967032966,3.7723609076189115
10.186813186813188,3.7716985063389394
10.206593406593406,3.770591723813319
10.226373626373626,3.7690476190373454
10.246153846153845,3.767074820828972
10.265934065934067,3.7646835107459697
10.285714285714286,3.7618854018245638
10.305494505494504,3.758693713049667
10.325274725274724,3.7551231394599585
10.345054945054946,3.751189817786097
10.364835164835165,3.746911287516775
10.384615384615385,3.7423064472864627
10.404395604395603,3.737395506479284
10.424175824175824,3.7321999319478594
10.443956043956044,3.7267423897523413
10.463736263736264,3.7210466818352352
10.483516483516484,3.71513767756131
10.503296703296703,3.7090412400695802
10.523076923076923,3.7027841474062004
10.542857142857143,3.696394008433433
10.562637362637362,3.6898991735407045
10.582417582417584,3.6833286402193686
10.602197802197802,3.676711953603089
10.621978021978022,3.6700791021210737
10.641758241758241,3.663460408460697
10.661538461538463,3.656886416090222
10.681318681318682,3.6503877716500663
10.7010989010989,3.6439951035820273
