Time (s),Filtered Signal
0.0,0.04783172452295229
0.03337008452774715,0.19236127865670127
0.0667401690554943,0.23987331639733414
0.10011025358324147,0.13329195351886927
0.1334803381109886,-0.12196382313425762
0.16685042263873576,-0.4603569756852643
0.20022050716648293,-0.7830101613719184
0.23359059169423008,-0.9976193678523491
0.2669606762219772,-1.0547796477816662
0.30033076074972437,-0.9655718196377048
0.3337008452774715,-0.7932688070313983
0.36707092980521866,-0.62309591126162
0.40044101433296586,-0.5233845157942003
0.433811098860713,-0.5151334495658088
0.46718118338846015,-0.563295070719202
0.5005512679162073,-0.5935318606586484
0.5339213524439544,-0.5268425984735903
0.5672914369717016,-0.31641192084980807
0.6006615214994487,0.02986931741450689
0.6340316060271959,0.4509012250874527
0.667401690554943,0.8561621083883677
0.7007717750826902,1.159790065805121
0.7341418596104373,1.3090527457609034
0.7675119441381845,1.2955252310168759
0.8008820286659317,1.1469749191835834
0.8342521131936789,0.9075617594378891
0.867622197721426,0.6184068093806823
0.9009922822491732,0.3080382032520741
0.9343623667769203,-0.00510728414870747
0.9677324513046675,-0.3034418413200299
1.0011025358324146,-0.562971919050138
1.0344726203601617,-0.7545403839062655
1.0678427048879089,-0.85394653631052
1.101212789415656,-0.8550649945084626
1.1345828739434032,-0.7773436581018588
1.1679529584711503,-0.6614385679701957
1.2013230429988975,-0.5530242199807051
1.2346931275266446,-0.48165222518268236
1.2680632120543918,-0.44517647836091573
1.301433296582139,-0.40853536575488647
1.334803381109886,-0.3191547318554386
1.3681734656376332,-0.13304298753636357
1.4015435501653803,0.16007825855523833
1.4349136346931275,0.5245550102464246
1.4682837192208746,0.886040266880959
1.5016538037486218,1.1562010335579065
1.535023888276369,1.2651855247855786
1.568393972804116,1.1886350682387825
1.6017640573318634,0.9580881873121394
1.6351341418596106,0.6502494664233472
1.6685042263873577,0.35902905394173495
1.7018743109151049,0.1611492816232373
1.735244395442852,0.08876105182327604
1.7686144799705992,0.11984576792545493
1.8019845644983463,0.19017010624903913
1.8353546490260935,0.22188955792163642
1.8687247335538406,0.15698568279653227
1.9020948180815878,-0.018519495497456125
1.935464902609335,-0.26996536433811774
1.968834987137082,-0.531033860024327
2.002205071664829,-0.7344794120600528
2.0355751561925763,-0.8421318920212248
2.0689452407203235,-0.8597606859603643
2.1023153252480706,-0.8296797301066894
2.1356854097758178,-0.8051758906289281
2.169055494303565,-0.8202074446994995
2.202425578831312,-0.8702724928575031
2.235795663359059,-0.9144566027053748
2.2691657478868064,-0.8975320434374857
2.3025358324145535,-0.780479897720951
2.3359059169423007,-0.5633847598751262
2.369276001470048,-0.2885103567589264
2.402646085997795,-0.021473933841397678
2.436016170525542,0.18032797328973155
2.4693862550532892,0.29617466637118806
2.5027563395810364,0.3526816137917114
2.5361264241087835,0.4105517294424012
2.5694965086365307,0.5330393844435988
2.602866593164278,0.7509054969015673
2.636236677692025,1.0407637301961195
2.669606762219772,1.3277932628838707
2.7029768467475193,1.5126566290665502
2.7363469312752664,1.5113608584456362
2.7697170158030135,1.2908932991363702
2.8030871003307607,0.8853922337612754
2.836457184858508,0.3862840774305272
2.869827269386255,-0.08899184259984651
2.903197353914002,-0.43653190366518846
2.9365674384417493,-0.5983576723279197
2.9699375229694964,-0.5764721461172828
3.0033076074972436,-0.4255575081792016
3.0366776920249907,-0.2294002084431518
3.070047776552738,-0.07103588091235774
3.103417861080485,-0.0071178372570260134
3.136787945608232,-0.05391803189924726
3.1701580301359793,-0.18757253071315547
3.203528114663727,-0.35661119235582206
3.236898199191474,-0.5016581250119554
3.270268283719221,-0.5757924738158364
3.3036383682469683,-0.5593000882403271
3.3370084527747155,-0.46430280132654894
3.3703785373024626,-0.32789562742240286
3.4037486218302098,-0.19638150990712266
3.437118706357957,-0.10666557157520169
3.470488790885704,-0.07223793842119278
3.503858875413451,-0.07947729407668234
3.5372289599411983,-0.09571572587680127
3.5705990444689455,-0.08543336014892751
3.6039691289966926,-0.027377232327863727
3.63733921352444,0.07502269613338979
3.670709298052187,0.19455445729091617
3.704079382579934,0.2918721529609203
3.7374494671076812,0.3323212841542016
3.7708195516354284,0.29999228426062996
3.8041896361631755,0.2025990310374159
3.8375597206909227,0.06560026228579349
3.87092980521867,-0.08040467891436538
3.904299889746417,-0.21169200832862375
3.937669974274164,-0.31654578908530806
3.9710400588019112,-0.3919634618903186
4.004410143329658,-0.4358872209365756
4.0377802278574055,-0.4415688944494399
4.071150312385153,-0.3987628437101945
4.1045203969129,-0.30133114187765747
4.137890481440647,-0.1560498177932517
4.171260565968394,0.013873013847515993
4.204630650496141,0.17405230305815386
4.238000735023888,0.2911838524868617
4.2713708195516356,0.34634808547631446
4.304740904079383,0.34270806213789345
4.33811098860713,0.3038840338133758
4.371481073134877,0.2639203012009121
4.404851157662624,0.25352823023949833
4.438221242190371,0.2885117447971917
4.471591326718118,0.3648194331597849
4.504961411245866,0.46158198595258854
4.538331495773613,0.5502519789566767
4.57170158030136,0.6057847484070357
4.605071664829107,0.6153489682276749
4.638441749356854,0.5813578088912497
4.671811833884601,0.5180780672721004
4.7051819184123485,0.44369733362413966
4.738552002940096,0.3714715636195555
4.771922087467843,0.303798504892148
4.80529217199559,0.23173931973754813
4.838662256523337,0.1401615968759311
4.872032341051084,0.01617126682340166
4.905402425578831,-0.14315290871287117
4.9387725101065785,-0.3276472485292966
4.972142594634326,-0.5174359985910852
5.005512679162073,-0.6912865965739257
5.03888276368982,-0.8354385503928106
5.072252848217567,-0.9476489085961929
5.105622932745314,-1.033638870311562
5.138993017273061,-1.0977868114622824
5.1723631018008085,-1.1340934201581854
5.205733186328556,-1.1242183093732534
5.239103270856303,-1.0456294930127188
5.27247335538405,-0.886427457781196
5.305843439911797,-0.6581818110831595
5.339213524439544,-0.397875683234641
5.372583608967291,-0.15565528360241898
5.4059536934950385,0.026456493327468553
5.439323778022786,0.13365636939766287
5.472693862550533,0.18450159858062792
5.50606394707828,0.22039694869650697
5.539434031606027,0.2841590251463906
5.572804116133774,0.39937472441163285
5.606174200661521,0.5612746234358768
5.6395442851892685,0.7427798040008944
5.672914369717016,0.9107617144657792
5.706284454244763,1.0424417828253656
5.73965453877251,1.1328310143378597
5.773024623300257,1.1900704613708548
5.806394707828004,1.2227425733925747
5.839764792355751,1.2276371594955586
5.873134876883499,1.1858916387228058
5.906504961411246,1.0704774680099853
5.939875045938993,0.8614808107625234
5.97324513046674,0.561019947528173
6.006615214994487,0.19941660289906737
6.039985299522234,-0.1714077537610551
6.073355384049981,-0.4946797114554976
6.106725468577729,-0.7277276551146596
6.140095553105476,-0.8542609249245263
6.173465637633223,-0.8850236566154084
6.20683572216097,-0.8482640694470492
6.240205806688717,-0.7764446404831855
6.273575891216464,-0.6963285058130051
6.3069459757442115,-0.625977638163157
6.340316060271959,-0.5770331791323493
6.373686144799706,-0.5575092895061383
6.407056229327454,-0.5711766905003854
6.440426313855201,-0.6134830956979092
6.473796398382948,-0.6677926571884424
6.507166482910695,-0.7066136240114492
6.540536567438442,-0.6996856611814356
6.5739066519661895,-0.6261583144172943
6.607276736493937,-0.4847025832615145
6.640646821021684,-0.2955762436059181
6.674016905549431,-0.09253583953875134
6.707386990077178,0.0920552567428273
6.740757074604925,0.24161447504875347
6.774127159132672,0.36172947811374173
6.8074972436604195,0.4748618922342865
6.840867328188167,0.6055768349727491
6.874237412715914,0.7635203548226801
6.907607497243661,0.9329209401010347
6.940977581771408,1.074574097921889
6.974347666299155,1.1403075343467581
7.007717750826902,1.0936869245544774
7.0410878353546495,0.9273522402455961
7.074457919882397,0.668661533359419
7.107828004410144,0.3707031755307033
7.141198088937891,0.09257550298350527
7.174568173465638,-0.12221402504817555
7.207938257993385,-0.25965375634378657
7.241308342521132,-0.33562770877936504
7.27467842704888,-0.38339940890682794
7.308048511576627,-0.43472551277908783
7.341418596104374,-0.5038292605026202
7.374788680632121,-0.581663517088193
7.408158765159868,-0.6426151832229493
7.441528849687615,-0.6597141905208262
7.4748989342153624,-0.6204402734811373
7.50826901874311,-0.535141470635458
7.541639103270857,-0.4337742990657279
7.575009187798604,-0.35232560963539994
7.608379272326351,-0.3152422441706648
7.641749356854098,-0.3221921881350103
7.675119441381845,-0.3455749409796891
7.7084895259095925,-0.3402589187275291
7.74185961043734,-0.2614066386462418
7.775229694965087,-0.08270521720350087
7.808599779492834,0.19245629922061547
7.841969864020581,0.5306749519010937
7.875339948548328,0.8779885674884231
7.908710033076075,1.1744191626795113
7.9420801176038225,1.3681465080443058
7.97545020213157,1.4255466231538085
8.008820286659317,1.3359402485898286
8.042190371187063,1.1118121609586729
8.075560455714811,0.7857495803850268
8.108930540242557,0.4047782362341426
8.142300624770305,0.022190058081505034
8.175670709298052,-0.3127183272350613
8.2090407938258,-0.5652444553431688
8.242410878353546,-0.7230310981227627
8.275780962881294,-0.7975948358775947
8.30915104740904,-0.8180799253163261
8.342521131936788,-0.818966228532543
8.375891216464534,-0.8264744238404665
8.409261300992283,-0.8493180554912222
8.442631385520029,-0.8775407813440202
8.476001470047777,-0.8893962036962408
8.509371554575523,-0.8625978925752297
8.542741639103271,-0.784637238971916
8.57611172363102,-0.6578717712943212
8.609481808158765,-0.49792382743301383
8.642851892686513,-0.3269719847680511
8.67622197721426,-0.16530689325509518
8.709592061742008,-0.024527631011767477
8.742962146269754,0.09552860443319448
8.776332230797502,0.20562208419916767
8.809702315325248,0.3223936751463164
8.843072399852996,0.4614673360793094
8.876442484380743,0.6302216920341207
8.90981256890849,0.8224435745539583
8.943182653436237,1.016994958017581
8.976552737963985,1.1816680325850308
9.009922822491731,1.2815878043177804
9.04329290701948,1.289532686774149
9.076662991547225,1.1944198273043403
9.110033076074973,1.0047107482000914
9.14340316060272,0.7455850034280235
9.176773245130468,0.4514120956974545
9.210143329658214,0.15686670352951934
9.243513414185962,-0.11001672570969488
9.276883498713708,-0.33124562596280904
9.310253583241456,-0.49913832156150945
9.343623667769203,-0.6148329337847379
9.37699375229695,-0.6859904550258841
9.410363836824697,-0.7237498305676836
9.443733921352445,-0.7388130328635737
9.477104005880191,-0.7373925533643652
9.51047409040794,-0.7187751817565305
9.543844174935685,-0.676225143965673
9.577214259463434,-0.6014710668784576
9.61058434399118,-0.49095098633167156
9.643954428518928,-0.35076503243605256
9.677324513046674,-0.1977912666910354
9.710694597574422,-0.056341559330499814
9.744064682102168,0.04815477305178935
9.777434766629916,0.09587726910041065
9.810804851157663,0.0775669460799187
9.84417493568541,-0.0031867120462549083
9.877545020213157,-0.1300009907532453
9.910915104740905,-0.2753683876499578
9.944285189268651,-0.40366460181331626
9.9776552737964,-0.47593955904165375
10.011025358324146,-0.457077694478112
10.044395442851894,-0.32499300583593177
10.07776552737964,-0.07982653097344998
10.111135611907388,0.2503600040174326
10.144505696435134,0.61101636426364
10.177875780962882,0.9314858558481435
10.211245865490628,1.1428460769366326
10.244615950018376,1.1981333082351036
10.277986034546123,1.0876920095425036
10.31135611907387,0.8430419724572654
10.344726203601617,0.5265484932595408
10.378096288129365,0.21010331395450882
10.411466372657111,-0.04870113173978375
10.44483645718486,-0.22275423642279332
10.478206541712606,-0.31722303640863486
10.511576626240354,-0.3573923944794086
10.5449467107681,-0.3701445033253284
10.578316795295848,-0.36963054953972235
10.611686879823594,-0.3545147004568717
10.645056964351342,-0.3167002635066061
10.678427048879088,-0.25432598207790563
10.711797133406836,-0.17954850156867916
10.745167217934583,-0.11554781532564766
10.77853730246233,-0.08457278374295611
10.811907386990077,-0.09476154044168617
10.845277471517825,-0.1341631762709994
10.878647556045571,-0.17567812710889638
10.91201764057332,-0.1898450470056933
10.945387725101066,-0.15796457119240706
10.978757809628814,-0.0785749002072481
11.01212789415656,0.034984989780937364
11.045497978684308,0.16267203656917514
11.078868063212054,0.2855547535729785
11.112238147739802,0.3889836615131989
11.145608232267548,0.46103135472548945
11.178978316795297,0.4897990128314307
11.212348401323043,0.463641996801609
11.24571848585079,0.375484454045333
11.279088570378537,0.22855651407048594
11.312458654906285,0.03912991999578256
11.345828739434031,-0.16647059451154061
11.37919882396178,-0.35943236658522104
11.412568908489526,-0.5163450270034287
11.445938993017274,-0.6231499449820633
11.47930907754502,-0.6739195408439071
11.512679162072768,-0.6670053934644345
11.546049246600514,-0.602767860921394
11.579419331128262,-0.4854406083735802
11.612789415656009,-0.32790956670431215
11.646159500183757,-0.1550472536579697
11.679529584711503,-0.0010707125178569294
11.71289966923925,0.1004424363423912
11.746269753766997,0.13049871099506863
11.779639838294745,0.09569292732798684
11.813009922822491,0.029374195655582788
11.84638000735024,-0.019862164580795136
11.879750091877986,-0.008751206700909646
11.913120176405734,0.08014695529705537
11.94649026093348,0.2285372055347493
11.979860345461228,0.3893046760167345
12.013230429988974,0.5082141494031972
12.046600514516722,0.5502073783502178
12.079970599044469,0.516743406417941
12.113340683572217,0.4444725705428461
12.146710768099963,0.3850964875055176
12.180080852627711,0.37656526667938556
12.213450937155457,0.4209928378533894
12.246821021683205,0.4815942603394249
12.280191106210951,0.5009494392992784
12.3135611907387,0.43135551349874507
12.346931275266446,0.2613285369440185
12.380301359794194,0.024216195679320877
12.41367144432194,-0.21563463604374428
12.447041528849688,-0.3918942814405122
12.480411613377434,-0.4655191154710209
12.513781697905182,-0.4398515874415307
12.547151782432929,-0.3551817393431408
12.580521866960677,-0.26721224114841524
12.613891951488423,-0.22142850500560246
12.647262036016171,-0.23593255227187912
12.680632120543917,-0.299326325646155
12.714002205071665,-0.38175828156921804
12.747372289599411,-0.45117732263158117
12.78074237412716,-0.4860352209290013
12.814112458654908,-0.47961405098173465
12.847482543182654,-0.4367243218180945
12.880852627710402,-0.36726264033020894
12.914222712238148,-0.28130670021112636
12.947592796765896,-0.18776963608861455
12.980962881293642,-0.09540686082587209
13.01433296582139,-0.013354517104073592
13.047703050349137,0.0508077809411459
13.081073134876885,0.09506017456789088
13.114443219404631,0.12633569687166776
13.147813303932379,0.16008883999503926
13.181183388460125,0.21452745455395678
13.214553472987873,0.3011076398469233
13.24792355751562,0.41566170002242125
13.281293642043368,0.5352323191639599
13.314663726571114,0.6236165733819674
13.348033811098862,0.6445727442711154
13.381403895626608,0.57755419962934
13.414773980154356,0.4288361918928697
13.448144064682102,0.2322401229672362
13.48151414920985,0.03802179166587135
13.514884233737597,-0.10599718004257934
13.548254318265345,-0.17297790840552466
13.581624402793091,-0.16689057498587634
13.614994487320839,-0.11898848051657133
13.648364571848585,-0.0724723099952267
13.681734656376333,-0.062437625468603104
13.71510474090408,-0.10036760351750984
13.748474825431828,-0.1701749487679502
13.781844909959574,-0.23727637902502113
13.815214994487322,-0.26611383975569386
13.848585079015068,-0.23779874368822665
13.881955163542816,-0.1598143882040437
13.915325248070562,-0.06366934920721298
13.94869533259831,0.008006069654547773
13.982065417126057,0.01893457263563638
14.015435501653805,-0.04612034450621827
14.048805586181551,-0.1747880005496485
14.082175670709299,-0.3300323463853746
14.115545755237045,-0.4603463666012022
14.148915839764793,-0.513244280732151
14.18228592429254,-0.44852622548808624
14.215656008820288,-0.24921074899311763
14.249026093348034,0.0710357006372666
14.282396177875782,0.4653761902038728
14.315766262403528,0.8583626648409625
14.349136346931276,1.1595690838927046
14.382506431459023,1.2859171195356198
14.41587651598677,1.187929120908656
14.449246600514517,0.8708063671990306
14.482616685042265,0.4000757625741949
14.515986769570011,-0.11420884625596497
14.54935685409776,-0.5518212185691865
14.582726938625505,-0.822912068430772
14.616097023153253,-0.8977822325610003
14.649467107681,-0.812545865730469
14.682837192208748,-0.648112743459608
14.716207276736494,-0.49245120551602845
14.749577361264242,-0.4037807728059686
14.782947445791988,-0.39113628177520327
14.816317530319736,-0.419455048387356
14.849687614847483,-0.4340768320607871
14.88305769937523,-0.39076208887557284
14.916427783902977,-0.2762637179143006
14.949797868430725,-0.11102621228556847
14.983167952958471,0.06435905037587471
15.01653803748622,0.20935755389799182
15.049908122013965,0.29894290701664666
15.083278206541713,0.32757024037147486
15.11664829106946,0.3028641260213216
15.150018375597208,0.23637289736210204
15.183388460124954,0.13936645969741102
15.216758544652702,0.026527402120489277
15.250128629180448,-0.07685848806527744
15.283498713708196,-0.13270664521281486
15.316868798235943,-0.09907226410033637
15.35023888276369,0.05129947854978039
15.383608967291437,0.3121931064077077
15.416979051819185,0.6366946336342363
15.450349136346931,0.9480438560962835
15.48371922087468,1.1651519726523545
15.517089305402425,1.2309554805898446
15.550459389930174,1.1301761970044992
15.58382947445792,0.889117597162147
15.617199558985668,0.5598774904092536
15.650569643513414,0.1988310043834558
15.683939728041162,-0.14962977390545196
15.717309812568908,-0.458181723853606
15.750679897096656,-0.7120410737010857
15.784049981624403,-0.901519538660339
15.81742006615215,-1.0184290736487285
15.850790150679897,-1.058745142981164
15.884160235207645,-1.0284851916000992
15.917530319735391,-0.9468970700494823
15.95090040426314,-0.8425541841245116
15.984270488790886,-0.7427158695979811
16.017640573318634,-0.6611956192024593
16.05101065784638,-0.5918249634429473
16.084380742374126,-0.5121263127457155
16.117750826901876,-0.39631659305290723
16.151120911429622,-0.2313375702207564
16.18449099595737,-0.027359210296733296
16.217861080485115,0.18344240424127564
16.251231165012864,0.3601269306326726
16.28460124954061,0.4721324907408449
16.317971334068357,0.5147235809603896
16.351341418596103,0.512588557188714
16.384711503123853,0.5091637124161974
16.4180815876516,0.5463431834919448
16.451451672179346,0.644004893083156
16.484821756707092,0.7888631707007843
16.51819184123484,0.9376792242979064
16.551561925762588,1.0332433493912208
16.584932010290334,1.0260636109989425
16.61830209481808,0.8927531687982335
16.65167217934583,0.6441814704445967
16.685042263873576,0.32117588832400523
16.718412348401323,-0.019379470004768445
16.75178243292907,-0.32193455924000514
16.78515251745682,-0.5466731573359834
16.818522601984565,-0.6767057678200039
16.85189268651231,-0.7173453057192674
16.885262771040058,-0.6897383904525948
16.918632855567807,-0.6223634836742311
16.952002940095554,-0.5432955440859221
16.9853730246233,-0.4745877858552293
17.018743109151046,-0.42885153536426945
17.052113193678796,-0.407804304501873
17.085483278206542,-0.4029672258191785
17.11885336273429,-0.3989952416121322
17.15222344726204,-0.37961267298628487
17.185593531789785,-0.3347938562893901
17.21896361631753,-0.26641607414786483
17.252333700845277,-0.189181033633482
17.285703785373027,-0.12489595392060508
17.319073869900773,-0.09113387475145857
17.35244395442852,-0.08874006580578482
