Time (s),Filtered Signal
0.0,-0.027591779718850892
0.033370165745856356,0.01552699126977315
0.06674033149171271,0.05135322520677958
0.10011049723756907,0.07422677525038679
0.13348066298342542,0.0822470858502464
0.16685082872928178,0.07801347056933994
0.20022099447513814,0.0683898128190919
0.2335911602209945,0.0633424025762013
0.26696132596685085,0.07396525662807353
0.30033149171270723,0.10984898866859139
0.33370165745856356,0.1761066671013535
0.3670718232044199,0.2707075143242477
0.4004419889502763,0.3831361418107269
0.43381215469613266,0.4954410751165212
0.467182320441989,0.5861467611855874
0.5005524861878453,0.63631269389751
0.5339226519337017,0.6357435803197968
0.5672928176795581,0.5867562178030921
0.6006629834254145,0.5035508802667363
0.6340331491712707,0.40703195852227425
0.6674033149171271,0.31705585901494443
0.7007734806629835,0.24539231932786226
0.7341436464088398,0.19236138275476136
0.7675138121546962,0.14826425908198734
0.8008839779005525,0.09839360431751318
0.8342541436464089,0.02891166366152262
0.8676243093922653,-0.06900017246951169
0.9009944751381216,-0.19782634335925825
0.934364640883978,-0.35451730844474966
0.9677348066298344,-0.5316737128604059
1.0011049723756906,-0.7177337352210257
1.0344751381215471,-0.8961499081683493
1.0678453038674034,-1.0449422524309597
1.1012154696132597,-1.1384557644604827
1.1345856353591162,-1.1522383766217392
1.1679558011049724,-1.070132132888388
1.201325966850829,-0.8909668796676966
1.2346961325966852,-0.6317114338863784
1.2680662983425415,-0.325042764967592
1.301436464088398,-0.01162128605183054
1.3348066298342542,0.27023170226665394
1.3681767955801105,0.4935423418447477
1.401546961325967,0.6471263337237444
1.4349171270718233,0.7344114102070486
1.4682872928176796,0.7681099758692573
1.501657458563536,0.7636814931784446
1.5350276243093923,0.7342722129961422
1.5683977900552488,0.6883048167115247
1.601767955801105,0.6293010094412783
1.6351381215469614,0.5568607082237298
1.6685082872928179,0.46812139903300665
1.7018784530386741,0.35977628158072195
1.7352486187845306,0.23095435588354277
1.768618784530387,0.08660651323684394
1.8019889502762432,-0.06004261011511173
1.8353591160220997,-0.18796817817684006
1.868729281767956,-0.27298705969568954
1.9020994475138122,-0.29582217747744244
1.9354696132596687,-0.2506204949315539
1.968839779005525,-0.14991267046601003
2.0022099447513813,-0.02304610663774985
2.0355801104972375,0.09203533351173415
2.0689502762430942,0.16059337914568395
2.1023204419889505,0.16161940417639425
2.135690607734807,0.09283623593165548
2.169060773480663,-0.03143660005501761
2.2024309392265193,-0.1879809978048106
2.235801104972376,-0.35418078016771876
2.2691712707182323,-0.5151732081824699
2.3025414364640886,-0.6657625266335799
2.335911602209945,-0.8064513829432077
2.369281767955801,-0.9354394880550561
2.402651933701658,-1.0404783326981417
2.436022099447514,-1.0952525570679106
2.4693922651933704,-1.06371856617541
2.5027624309392267,-0.9124601728791077
2.536132596685083,-0.6267807563886726
2.5695027624309392,-0.22320627471847793
2.602872928176796,0.24852571296108364
2.636243093922652,0.716611967008899
2.6696132596685085,1.107833123268005
2.7029834254143648,1.3693147612532952
2.736353591160221,1.4825103304472071
2.7697237569060777,1.4644946273533896
2.803093922651934,1.3576074978725892
2.8364640883977903,1.2129659254419842
2.8698342541436466,1.0743315580081298
2.903204419889503,0.9667796088789548
2.936574585635359,0.8917694505491373
2.969944751381216,0.8285275005037117
3.003314917127072,0.7413762594122604
3.0366850828729284,0.5924571608296373
3.0700552486187846,0.35779602988697673
3.103425414364641,0.041953030969874246
3.1367955801104976,-0.3154923177461133
3.170165745856354,-0.6472426759016424
3.20353591160221,-0.8798903667954803
3.2369060773480665,-0.9631112499417521
3.2702762430939227,-0.8941862595494067
3.3036464088397794,-0.725412872074234
3.3370165745856357,-0.5483169003725937
3.370386740331492,-0.45907255994807555
3.4037569060773483,-0.5191700255723365
3.4371270718232045,-0.728985142722139
3.4704972375690613,-1.0270425275091777
3.5038674033149175,-1.3162088507209078
3.537237569060774,-1.5052015921654909
3.57060773480663,-1.5460591220857418
3.6039779005524863,-1.4497865809436556
3.6373480662983426,-1.27298300344756
3.6707182320441993,-1.0829167542095846
3.7040883977900556,-0.9197748541927601
3.737458563535912,-0.7763970013603279
3.770828729281768,-0.6062835797173292
3.8041988950276244,-0.3548578988382047
3.837569060773481,0.004252433439216747
3.8709392265193374,0.44891533021529517
3.9043093922651937,0.9156628022475309
3.93767955801105,1.3296746056721047
3.9710497237569062,1.6398624760373528
4.0044198895027625,1.8389955360911392
4.037790055248619,1.958088850993746
4.071160220994475,2.0392542159891014
4.104530386740332,2.103194225017424
4.1379005524861885,2.1302191178310736
4.171270718232044,2.06622196435041
4.204640883977901,1.8517600154769438
4.238011049723757,1.4600799323210516
4.271381215469614,0.9246064213194112
4.30475138121547,0.3406140939554594
4.338121546961326,-0.16253428088693686
4.371491712707183,-0.46865483871648717
4.404861878453039,-0.5224077882415611
4.438232044198895,-0.3572731991953792
4.471602209944752,-0.09093965867696743
4.504972375690608,0.11257412608314603
4.538342541436465,0.10193995101605362
4.5717127071823205,-0.20252012764561628
4.605082872928177,-0.7730505860881134
4.638453038674034,-1.4779814754185276
4.67182320441989,-2.126045071914804
4.7051933701657465,-2.5357978294092485
4.738563535911602,-2.6024013401443766
4.771933701657459,-2.3337480125233583
4.805303867403316,-1.8408085133244818
4.8386740331491715,-1.2875002279223164
4.872044198895028,-0.8233029744284724
4.905414364640884,-0.5284287080420146
4.938784530386741,-0.39379807357858526
4.972154696132597,-0.340835409719016
5.005524861878453,-0.26801094364101746
5.03889502762431,-0.10062681873469242
5.072265193370166,0.17832695781222294
5.105635359116023,0.5271428236108829
5.1390055248618784,0.8702117134471222
5.172375690607735,1.133638603790549
5.205745856353592,1.2740933911559622
5.239116022099448,1.2893894565861417
5.272486187845304,1.2097979282313824
5.30585635359116,1.078361219352248
5.339226519337017,0.9320998606478351
5.372596685082874,0.7929593037342526
5.4059668508287295,0.6700986111952899
5.439337016574586,0.5681775681531006
5.472707182320442,0.49362937778355714
5.506077348066299,0.453716976710391
5.5394475138121555,0.4492538864592775
5.572817679558011,0.4670591478377986
5.606187845303868,0.4790765542801369
5.639558011049724,0.4510952526590347
5.672928176795581,0.35777083476210614
5.706298342541437,0.19612197327199832
5.739668508287293,-0.010323874476153384
5.77303867403315,-0.21997728271440392
5.806408839779006,-0.3908468176573182
5.839779005524862,-0.498992199403244
5.873149171270718,-0.5485955863986689
5.906519337016575,-0.5684225947448966
5.939889502762432,-0.5960778202741471
5.9732596685082875,-0.6574406344401659
6.006629834254144,-0.7510809263223523
6.04,-0.8452431489795431
6.073370165745857,-0.8893288594677994
6.1067403314917135,-0.8353631817631464
6.140110497237569,-0.660503558029209
6.173480662983426,-0.38100146145396313
6.206850828729282,-0.05130806128947718
6.240220994475139,0.2521359622016857
6.273591160220995,0.45674665437558376
6.306961325966851,0.5195415398292659
6.340331491712708,0.442702051888844
6.373701657458564,0.2725261020678729
6.40707182320442,0.08174413224220697
6.440441988950277,-0.05810621280100006
6.473812154696133,-0.10327462792638369
6.50718232044199,-0.05255287510787646
6.5405524861878455,0.055782264072927266
6.573922651933702,0.1631897858202938
6.607292817679559,0.21756565359867752
6.640662983425415,0.19559021539027738
6.674033149171271,0.11115387059361322
6.707403314917127,0.006869054363660033
6.740773480662984,-0.06665504982617977
6.774143646408841,-0.07398219099450716
6.8075138121546965,-0.010293979291272407
6.840883977900553,0.09695501886724416
6.874254143646409,0.19995844172081267
6.907624309392266,0.2503465927061446
6.9409944751381225,0.2185753289054739
6.974364640883978,0.10560313557027327
7.007734806629835,-0.056908061804575034
7.041104972375691,-0.21722220490168107
7.074475138121548,-0.3207546590525146
7.107845303867403,-0.32791235705388294
7.14121546961326,-0.2268491113140789
7.174585635359117,-0.03735408510542252
7.207955801104973,0.1950124044164636
7.241325966850829,0.412335280158994
7.274696132596685,0.5607598081015304
7.308066298342542,0.6046124517782246
7.341436464088399,0.5341737732487859
7.3748066298342545,0.365710900292443
7.408176795580111,0.1351490672514897
7.441546961325967,-0.11163770667231027
7.474917127071824,-0.32894771388017396
7.5082872928176805,-0.47986179514554705
7.541657458563536,-0.542482552354892
7.575027624309393,-0.513368994333424
7.608397790055249,-0.40765127379495614
7.641767955801106,-0.2553688374469155
7.675138121546962,-0.09427425234200915
7.708508287292818,0.039469135089531086
7.741878453038675,0.12029668489094388
7.775248618784531,0.13944646506072433
7.808618784530387,0.10664536171602257
7.841988950276244,0.04679975212975666
7.8753591160221,-0.007616186412551121
7.908729281767957,-0.026797715387927357
7.9420994475138125,0.006106721073674453
7.975469613259669,0.08791186207123777
8.008839779005525,0.1945829032029114
8.042209944751383,0.2881348259088002
8.075580110497238,0.32974640552509477
8.108950276243094,0.2945488950092205
8.14232044198895,0.18210345603752873
8.175690607734808,0.017838818194002407
8.209060773480664,-0.15562435730668392
8.24243093922652,-0.2939517256719135
8.275801104972377,-0.3670861379246116
8.309171270718233,-0.36931107052528794
8.342541436464089,-0.3196047377542861
8.375911602209946,-0.25261615624226624
8.409281767955802,-0.20427924353343443
8.442651933701658,-0.19785919326931697
8.476022099447514,-0.23559108066121717
8.509392265193371,-0.2985437355106145
8.542762430939227,-0.3541186855217563
8.576132596685083,-0.3679770172485581
8.60950276243094,-0.31602625206048174
8.642872928176796,-0.19252284211949633
8.676243093922652,-0.011910990021363666
8.709613259668508,0.1959062812598068
8.742983425414366,0.3951357596255116
8.776353591160222,0.5552472829392248
8.809723756906077,0.6598673160583284
8.843093922651935,0.7102282011992974
8.87646408839779,0.7218505742287286
8.909834254143647,0.7156522169490048
8.943204419889504,0.7069271882538607
8.97657458563536,0.6967049802274523
9.009944751381216,0.6693536362865502
9.043314917127072,0.5980287580917117
9.07668508287293,0.4564258972637326
9.110055248618785,0.23245627024000168
9.143425414364641,-0.06181043904325765
9.176795580110499,-0.3885460573277509
9.210165745856354,-0.6923710017879345
9.24353591160221,-0.9158556763043697
9.276906077348068,-1.016764113789231
9.310276243093924,-0.9807661511440035
9.34364640883978,-0.8252217810242941
9.377016574585635,-0.5931894190554255
9.410386740331493,-0.34040371149431514
9.443756906077349,-0.12010292194935533
9.477127071823205,0.029434363315060188
9.510497237569062,0.09160071741845256
9.543867403314918,0.0718770975232982
9.577237569060774,-0.006619288394143745
9.610607734806631,-0.11027686221373462
9.643977900552487,-0.20297708881306503
9.677348066298343,-0.253804130116623
9.710718232044199,-0.2437193037723587
9.744088397790057,-0.17020880672433059
9.777458563535912,-0.048498448486777194
9.810828729281768,0.09191725771482014
9.844198895027626,0.21550125812972062
9.877569060773482,0.29178184681937874
9.910939226519337,0.30570565063039706
9.944309392265193,0.2631156191154486
9.97767955801105,0.1886449915055269
10.011049723756907,0.116306753570121
10.044419889502763,0.07635723449499049
10.07779005524862,0.08393030408039757
10.111160220994476,0.13428412592993938
10.144530386740332,0.20640758084601646
10.17790055248619,0.2727520052253819
10.211270718232045,0.3101321697353721
10.244640883977901,0.30683784525127633
10.278011049723757,0.26359283827008895
10.311381215469615,0.18956727840326643
10.34475138121547,0.09705955925756549
10.378121546961326,-0.00162431376060726
10.411491712707184,-0.09390363681354522
10.44486187845304,-0.16501261331486702
10.478232044198895,-0.19773229465386258
10.511602209944753,-0.1761279163545574
10.544972375690609,-0.09278650778796368
10.578342541436465,0.043975621145131503
10.61171270718232,0.20766315597075238
10.645082872928178,0.3590002683545658
10.678453038674034,0.45839518390111655
10.71182320441989,0.4805515067252203
10.745193370165747,0.42426930066369667
10.778563535911603,0.31202473759346855
10.811933701657459,0.1786979764253954
10.845303867403315,0.05457555853880117
10.878674033149172,-0.04868171336735955
10.912044198895028,-0.14139241760982993
10.945414364640884,-0.24631313151092316
10.978784530386742,-0.3812389608112985
11.012154696132598,-0.5436277829347437
11.045524861878453,-0.7064590852347674
11.078895027624311,-0.828394543049897
11.112265193370167,-0.8731174951478352
11.145635359116023,-0.8273387565671901
11.179005524861878,-0.7076408914278873
11.212375690607736,-0.5526911464655941
11.245745856353592,-0.40549465659910905
11.279116022099448,-0.2953545119944981
11.312486187845305,-0.2282774889294518
11.345856353591161,-0.18886364250685217
11.379226519337017,-0.150346485713104
11.412596685082875,-0.08641241688905912
11.44596685082873,0.020163295434165895
11.479337016574586,0.17335198866085505
11.512707182320442,0.36286099235712727
11.5460773480663,0.5651183933905971
11.579447513812156,0.7469034709435466
11.612817679558011,0.8730823851272359
11.646187845303869,0.918061915241888
11.679558011049725,0.877027941946878
11.71292817679558,0.77073200747516
11.746298342541436,0.6391115096569094
11.779668508287294,0.5244202942132493
11.81303867403315,0.4509556799137315
11.846408839779006,0.41185162590062124
11.879779005524863,0.37111153015833676
11.91314917127072,0.2816402054901412
11.946519337016575,0.11125248003556956
11.979889502762433,-0.13652742438783866
12.013259668508288,-0.41827006355698837
12.046629834254144,-0.6661983036093234
12.08,-0.8163049088296078
12.113370165745858,-0.8351778023137282
12.146740331491714,-0.732453528959607
12.18011049723757,-0.5534936953991628
12.213480662983427,-0.3570731483158053
12.246850828729283,-0.19003467755059045
12.280220994475139,-0.07142008803470141
12.313591160220996,0.007324035002393446
12.346961325966852,0.06833893566893283
12.380331491712708,0.12882792218582664
12.413701657458564,0.18887214434311886
12.447071823204421,0.23206983857791225
12.480441988950277,0.23783379088149023
12.513812154696133,0.19757428403167537
12.54718232044199,0.12492973012214598
12.580552486187846,0.05355584035076634
12.613922651933702,0.022768534384997693
12.64729281767956,0.05798285426683717
12.680662983425416,0.1560338765512924
12.714033149171271,0.28344868055905514
12.747403314917127,0.3893871811140486
12.780773480662985,0.4273810699823429
12.81414364640884,0.3751883668658802
12.847513812154697,0.2428570791845112
12.880883977900554,0.06528284408795301
12.91425414364641,-0.11618603331404732
12.947624309392266,-0.27288811733827817
12.980994475138122,-0.3987014435761122
13.01436464088398,-0.5063174459983595
13.047734806629835,-0.6133914164590277
13.081104972375691,-0.7272334588275378
13.114475138121549,-0.8366685003986952
13.147845303867404,-0.9150099864105451
13.18121546961326,-0.9319067611105031
13.214585635359118,-0.8676169509331669
13.247955801104974,-0.7228114034377158
13.28132596685083,-0.5197869782224264
13.314696132596685,-0.2950446882836475
13.348066298342543,-0.08662387043303788
13.381436464088399,0.0787080206473886
13.414806629834255,0.19357515846483597
13.448176795580112,0.2705731001573299
13.481546961325968,0.3355219610032534
13.514917127071824,0.416617961645215
13.548287292817681,0.5342656652564549
13.581657458563537,0.6955463910634979
13.615027624309393,0.8944031483227354
13.648397790055249,1.1153669404566733
13.681767955801106,1.3370780776885913
13.715138121546962,1.533044330157134
13.748508287292818,1.6702619352804862
13.781878453038676,1.7092766505165404
13.815248618784532,1.6097185502999833
13.848618784530387,1.3425549915934956
13.881988950276245,0.9056289789137855
13.9153591160221,0.3352314923674948
13.948729281767957,-0.2939064808558032
13.982099447513813,-0.883762283809364
14.01546961325967,-1.3398363267175597
14.048839779005526,-1.5996204014547029
14.082209944751382,-1.6505460198216548
14.11558011049724,-1.5293664721760858
14.148950276243095,-1.3036282614463217
14.182320441988951,-1.0444520144046663
14.215690607734807,-0.8034231931218383
14.249060773480664,-0.6031228164161152
14.28243093922652,-0.44290155287201616
14.315801104972376,-0.31358963318850525
14.349171270718234,-0.21117535956666025
14.38254143646409,-0.14158364718471284
14.415911602209945,-0.11484028982364493
14.449281767955803,-0.13345619003493905
14.482651933701659,-0.18324674550263015
14.516022099447515,-0.23333835666174071
14.54939226519337,-0.24676192886600448
14.582762430939228,-0.19680249631877741
14.616132596685084,-0.08060965315523153
14.64950276243094,0.07749213829262734
14.682872928176797,0.23547888163412153
14.716243093922653,0.3518253503765602
14.749613259668509,0.4037714674346004
14.782983425414367,0.3967549289420211
14.816353591160222,0.36035489692522954
14.849723756906078,0.3327096844954342
14.883093922651934,0.3410660559023179
14.916464088397792,0.388061906114996
14.949834254143648,0.45055509087977175
14.983204419889503,0.4916240722371908
15.016574585635361,0.47979927793340627
15.049944751381217,0.40589073857829155
15.083314917127073,0.2888460920311153
15.116685082872928,0.1674530906653088
15.150055248618786,0.08177529291632742
15.183425414364642,0.053464363373260264
15.216795580110498,0.07485711468725105
15.250165745856355,0.1125648038033265
15.283535911602211,0.12410659037437217
15.316906077348067,0.07957442794720984
15.350276243093925,-0.02234403405980459
15.38364640883978,-0.15203124488270875
15.417016574585636,-0.2616899079981838
15.450386740331492,-0.3071702670302415
15.48375690607735,-0.2683684337805022
15.517127071823205,-0.15834498789323082
15.550497237569061,-0.016848649459950436
15.583867403314919,0.10837631173940122
15.617237569060775,0.18313976796863604
15.65060773480663,0.2006407611031352
15.683977900552488,0.18116357220337878
15.717348066298344,0.15847841940029705
15.7507182320442,0.160323663825456
15.784088397790056,0.19282750147500674
15.817458563535913,0.23617565479964717
15.85082872928177,0.2529676706032006
15.884198895027625,0.20475104777968153
15.917569060773483,0.06902325468636977
15.950939226519338,-0.1503730541617925
15.984309392265194,-0.4229657864743883
16.01767955801105,-0.7005471993833847
16.051049723756908,-0.9310596550438383
16.084419889502765,-1.072327087641219
16.11779005524862,-1.101669529311096
16.151160220994477,-1.0196731709308946
16.18453038674033,-0.8483709525751004
16.21790055248619,-0.6250610512283317
16.251270718232046,-0.39309996690239624
16.2846408839779,-0.19103177507988742
16.318011049723758,-0.04202009924187003
16.351381215469615,0.05341325137405616
16.38475138121547,0.11790359751845292
16.418121546961327,0.1889227175257627
16.451491712707185,0.30290871777976386
16.48486187845304,0.477252624268908
16.518232044198896,0.698091115079683
16.551602209944754,0.9208183135254461
16.584972375690608,1.0852915541302868
16.618342541436466,1.1407360273067166
16.651712707182323,1.0697047150597994
16.685082872928177,0.8993329259828988
16.718453038674035,0.6928422524920261
16.751823204419892,0.5232026171113088
16.785193370165747,0.4399824450877161
16.818563535911604,0.44497707246517854
16.851933701657458,0.4892816286158669
16.885303867403316,0.4947975618225205
16.918674033149173,0.39117510623420143
16.952044198895027,0.15099716196839
16.985414364640885,-0.1938783897318752
17.018784530386743,-0.5631523748094834
17.052154696132597,-0.8612912292330545
17.085524861878454,-1.0174477197833691
17.118895027624312,-1.0134142073923174
17.152265193370166,-0.8872067363407885
17.185635359116024,-0.7120676157038517
17.21900552486188,-0.5623949775557211
17.252375690607735,-0.4834655024134245
17.285745856353593,-0.4784916744405569
17.31911602209945,-0.5168058359452686
17.352486187845304,-0.5561555119031794
17.385856353591162,-0.5657788773020358
