Time (s),Filtered Signal
0.0,-0.019657852165948033
0.03337028824833703,-0.08587479655486159
0.06674057649667406,-0.11691748257219722
0.10011086474501109,-0.10340584947523568
0.13348115299334812,-0.07235162979354394
0.16685144124168516,-0.0773685426677478
0.20022172949002218,-0.17222957433083183
0.2335920177383592,-0.38081961078733767
0.26696230598669624,-0.6787120420219462
0.3003325942350333,-0.9962123542470965
0.3337028824833703,-1.2424907870947315
0.3670731707317073,-1.340350340802163
0.40044345898004435,-1.2560998151825755
0.4338137472283814,-1.011345801064757
0.4671840354767184,-0.6720725588575573
0.5005543237250555,-0.32088070558387616
0.5339246119733925,-0.0255491427242569
0.5672949002217295,0.18223216971411826
0.6006651884700666,0.309983325822844
0.6340354767184035,0.39052424604588953
0.6674057649667406,0.4597643652164177
0.7007760532150776,0.537557393925367
0.7341463414634146,0.6199812825854297
0.7675166297117517,0.6849237667611268
0.8008869179600887,0.7064110219828799
0.8342572062084257,0.6696750955868221
0.8676274944567628,0.5796419459816108
0.9009977827050998,0.4594277709725319
0.9343680709534368,0.34036307077707373
0.9677383592017739,0.2487139694928983
1.001108647450111,0.1952278468413707
1.0344789356984478,0.17183785872644258
1.067849223946785,0.15642840099297514
1.101219512195122,0.12313161825470058
1.134589800443459,0.05361258823177292
1.167960088691796,-0.05514988798545726
1.2013303769401331,-0.18926795555736367
1.23470066518847,-0.32262212964290654
1.268070953436807,-0.42565076580269834
1.3014412416851442,-0.4749450858522436
1.3348115299334813,-0.46045969714809587
1.3681818181818182,-0.3882182966152562
1.4015521064301553,-0.277934037540475
1.4349223946784924,-0.15652888057173536
1.4682926829268292,-0.04975999592579534
1.5016629711751663,0.025271263090819403
1.5350332594235034,0.06426237610316939
1.5684035476718403,0.07522103864936251
1.6017738359201774,0.07376690747854439
1.6351441241685145,0.0762268509141534
1.6685144124168514,0.09329159135884518
1.7018847006651885,0.12658281611512331
1.7352549889135256,0.16907958622557268
1.7686252771618625,0.20866797010601232
1.8019955654101996,0.2329245974117312
1.8353658536585367,0.23311020728441226
1.8687361419068735,0.20614173423611162
1.9021064301552106,0.1544636492214296
1.9354767184035477,0.08459380436120163
1.9688470066518848,0.005328776090263773
2.002217294900222,-0.07374462215283827
2.035587583148559,-0.1433129883355114
2.0689578713968957,-0.19523905339567393
2.102328159645233,-0.2236434407173403
2.13569844789357,-0.226270569022777
2.1690687361419068,-0.20580054661828065
2.202439024390244,-0.1703341864214203
2.235809312638581,-0.13217249855600338
2.269179600886918,-0.10450525709051396
2.302549889135255,-0.09667597703992568
2.335920177383592,-0.10981852757745422
2.369290465631929,-0.13512528934981835
2.4026607538802662,-0.15627651033018342
2.436031042128603,-0.15573909666482674
2.46940133037694,-0.12255217234489099
2.5027716186252773,-0.05802477821500113
2.536141906873614,0.023667940824366896
2.569512195121951,0.10073742835381518
2.6028824833702884,0.1527250094553699
2.6362527716186253,0.16899278066837753
2.6696230598669626,0.15270595646498505
2.7029933481152995,0.11844455110305592
2.7363636363636363,0.08476206550693471
2.7697339246119737,0.06551902377214043
2.8031042128603105,0.0643564585636691
2.8364745011086474,0.07495742770936428
2.8698447893569847,0.08665738802482642
2.9032150776053216,0.09211305910313432
2.9365853658536585,0.0926268719514154
2.969955654101996,0.09795394748946275
3.0033259423503327,0.1203659312822976
3.0366962305986696,0.16588767717993078
3.070066518847007,0.22734251962120344
3.1034368070953438,0.28325748652493515
3.1368070953436806,0.30405333618097796
3.170177383592018,0.26350570350963076
3.203547671840355,0.15080234235319523
3.2369179600886917,-0.022126396861003202
3.270288248337029,-0.22160472154429395
3.303658536585366,-0.4017402164425391
3.337028824833703,-0.5190972868774297
3.37039911308204,-0.546944056037616
3.403769401330377,-0.483665909569787
3.437139689578714,-0.3522972813340867
3.470509977827051,-0.1915964703590711
3.503880266075388,-0.042260134592933506
3.537250554323725,0.0664274142277641
3.5706208425720622,0.12457735852504266
3.603991130820399,0.1416609350928367
3.637361419068736,0.13912823591741863
3.6707317073170733,0.13933436125990745
3.70410199556541,0.1557178433536799
3.737472283813747,0.18817317866647162
3.7708425720620844,0.22481244841767295
3.8042128603104213,0.24830374525879792
3.8375831485587586,0.243288101818023
3.8709534368070955,0.2017386392243198
3.9043237250554323,0.1249765508442115
3.9376940133037697,0.022980252712739038
3.9710643015521065,-0.08763500993477542
4.004434589800444,-0.18622420201836595
4.037804878048781,-0.25163495911083117
4.071175166297118,-0.2672220923588499
4.1045454545454545,-0.22683665960820326
4.137915742793791,-0.13955163037007295
4.171286031042128,-0.03001949638066151
4.204656319290466,0.06751332165740524
4.238026607538803,0.12053906255763497
4.27139689578714,0.11072315796793518
4.304767184035477,0.04174830457705691
4.3381374722838135,-0.061553752329052344
4.371507760532151,-0.16289100898476233
4.404878048780488,-0.228812592221228
4.438248337028825,-0.24119930968403222
4.471618625277162,-0.20257652360638193
4.504988913525499,-0.13249941515094
4.538359201773836,-0.05741665942492742
4.571729490022173,0.0009465930804225015
4.60509977827051,0.033569476387823705
4.638470066518847,0.045553524853845166
4.671840354767184,0.051259288425448045
4.705210643015521,0.06613459137644981
4.738580931263858,0.09923973545723187
4.771951219512196,0.14956878965859416
4.8053215077605325,0.2071014304715123
4.838691796008869,0.2573271757454449
4.872062084257206,0.2868216014547338
4.905432372505543,0.2876344331934538
4.93880266075388,0.25929904484521954
4.972172949002218,0.20839793001437895
5.005543237250555,0.1462739475194665
5.0389135254988915,0.08563220315893826
5.072283813747228,0.03676252440878757
5.105654101995565,0.004232257059725066
5.139024390243902,-0.01487598862828718
5.17239467849224,-0.030141524034790743
5.205764966740577,-0.054029996677559644
5.239135254988914,-0.09608961762778827
5.2725055432372505,-0.15737861902374015
5.305875831485587,-0.2278924570920733
5.339246119733925,-0.2888497266144208
5.372616407982262,-0.31954383347086507
5.405986696230599,-0.30607598693049193
5.439356984478936,-0.2479884877033931
5.472727272727273,-0.15948483490950494
5.5060975609756095,-0.06436614733401491
5.539467849223947,0.013181085730971317
5.572838137472284,0.057810777099020286
5.606208425720621,0.06816448770644244
5.639578713968958,0.05587724903421002
5.672949002217295,0.039301409886882896
5.706319290465632,0.03511302061430903
5.7396895787139695,0.051550854814468944
5.773059866962306,0.0857933484444719
5.806430155210643,0.12578908890760657
5.83980044345898,0.15501483143721403
5.873170731707317,0.15802108897429856
5.906541019955654,0.12519538381132359
5.939911308203992,0.05610754274076937
5.9732815964523285,-0.0387924492566998
6.006651884700665,-0.1386890520593561
6.040022172949002,-0.2160956895003766
6.073392461197339,-0.24417547108818444
6.106762749445676,-0.20635629113166862
6.140133037694014,-0.10475780974655932
6.173503325942351,0.036923828046749124
6.2068736141906875,0.1788440247618784
6.240243902439024,0.2778506064481394
6.273614190687361,0.302977264110676
6.306984478935698,0.2470429060620564
6.340354767184036,0.12926124312175374
6.373725055432373,-0.012231976032945908
6.40709534368071,-0.1345743179237825
6.4404656319290465,-0.20508343282114105
6.473835920177383,-0.21113410324200896
6.507206208425721,-0.16194689993341774
6.540576496674058,-0.0827109396550638
6.573946784922395,-0.004118601123835854
6.607317073170732,0.04857248652815571
6.640687361419069,0.06329928125220549
6.674057649667406,0.04356239594686407
6.707427937915743,0.0051080393794048435
6.74079822616408,-0.03142008895340269
6.774168514412417,-0.048778343250599696
6.807538802660754,-0.039029129103096444
6.840909090909091,-0.004905763914612815
6.874279379157428,0.0433192618944871
6.9076496674057655,0.09332692913256967
6.941019955654102,0.13562010356009524
6.974390243902439,0.16560373082307575
7.007760532150776,0.1826251072974543
7.041130820399113,0.18751315669160135
7.07450110864745,0.18075589517444904
7.107871396895788,0.16259459369962798
7.1412416851441245,0.13464867709164682
7.174611973392461,0.10135700047924466
7.207982261640798,0.06943184656691428
7.241352549889135,0.04478957075061701
7.274722838137472,0.028306559606662042
7.30809312638581,0.013067191905814646
7.341463414634147,-0.014435244671189016
7.3748337028824835,-0.06855074193644815
7.40820399113082,-0.15624580085919607
7.441574279379157,-0.2704407576578244
7.474944567627494,-0.3889515676207958
7.508314855875832,-0.48077875844452206
7.541685144124169,-0.5178484909100177
7.575055432372506,-0.48716385359911507
7.6084257206208425,-0.3974496945015955
7.641796008869179,-0.2765103121980485
7.675166297117517,-0.15984666478232096
7.708536585365854,-0.07550702780020473
7.741906873614191,-0.03232184264533327
7.775277161862528,-0.017265161869409185
7.808647450110865,-0.0032323544040264514
7.842017738359202,0.036695197176499966
7.875388026607539,0.11561113510061709
7.908758314855876,0.22634024791969864
7.942128603104213,0.34490235557386695
7.97549889135255,0.4416266749196261
8.008869179600888,0.4941877550026905
8.042239467849225,0.4964145440848344
8.075609756097561,0.4591928770974615
8.108980044345898,0.4036430329814291
8.142350332594235,0.3501536525161744
8.175720620842572,0.3084518570424029
8.209090909090909,0.27324181440652023
8.242461197339246,0.22744081839764532
8.275831485587583,0.15167252789174818
8.30920177383592,0.035755200923634996
8.342572062084257,-0.11327447147091681
8.375942350332595,-0.2707989768868779
8.409312638580932,-0.40270176806853797
8.442682926829269,-0.47858503055772694
8.476053215077606,-0.48412030557277996
8.509423503325943,-0.42676718863666363
8.54279379157428,-0.3322610605235348
8.576164079822616,-0.23370424490502925
8.609534368070953,-0.158446153646034
8.64290465631929,-0.11856698976153297
8.676274944567627,-0.10863410031946565
8.709645232815964,-0.11084522062380837
8.743015521064303,-0.10453812496023712
8.77638580931264,-0.07562676117720597
8.809756097560976,-0.022114272380283233
8.843126385809313,0.046137085250258045
8.87649667405765,0.11271810906361333
8.909866962305987,0.1624323564716881
8.943237250554324,0.18804659903552046
8.97660753880266,0.1931193792828782
9.009977827050998,0.1896856849878651
9.043348115299334,0.1918075122451701
9.076718403547671,0.20791338330937775
9.110088691796008,0.23559540589181757
9.143458980044347,0.2616315890326267
9.176829268292684,0.2676560489494402
9.21019955654102,0.23906849626223417
9.243569844789358,0.1728647173676181
9.276940133037694,0.08025493041503902
9.310310421286031,-0.01761180111199788
9.343680709534368,-0.09892852101532311
9.377050997782705,-0.15088784980507947
9.410421286031042,-0.17478370743450133
9.443791574279379,-0.18399916276114672
9.477161862527716,-0.19606974826340512
9.510532150776053,-0.22306995006705516
9.543902439024391,-0.26532649752242593
9.577272727272728,-0.31161145828239584
9.610643015521065,-0.3455707264243423
9.644013303769402,-0.35495482837550546
9.677383592017739,-0.3387713246144289
9.710753880266076,-0.30840967440410816
9.744124168514412,-0.28166202998562084
9.77749445676275,-0.2721143780189167
9.810864745011086,-0.27902842070387224
9.844235033259423,-0.28326615516923725
9.87760532150776,-0.2525452233527898
9.910975609756099,-0.15504864423299894
9.944345898004435,0.024051336037680154
9.977716186252772,0.2709861870836682
10.01108647450111,0.5432120944652545
10.044456762749446,0.7822427010379598
10.077827050997783,0.934726399554871
10.11119733924612,0.9725493774269058
10.144567627494457,0.9027646539765087
10.177937915742794,0.7628311737195481
10.21130820399113,0.6036075315322403
10.244678492239467,0.4681726044542061
10.278048780487804,0.376031570682749
10.311419068736143,0.31908203146025915
10.34478935698448,0.2697720182100478
10.378159645232817,0.1963506558435404
10.411529933481154,0.07763420412564623
10.44490022172949,-0.08893324066052243
10.478270509977827,-0.2881732521573811
10.511640798226164,-0.49495303736898033
10.545011086474501,-0.6841469639181746
10.578381374722838,-0.8380107368631751
10.611751662971175,-0.9483041944673418
10.645121951219512,-1.0134795881773466
10.67849223946785,-1.0336118617614063
10.711862527716187,-1.0064616359982004
10.745232815964524,-0.9269972272460533
10.778603104212861,-0.7905923478430364
10.811973392461198,-0.5981104594020978
10.845343680709535,-0.3601370605783431
10.878713968957872,-0.09805090188229795
10.912084257206208,0.15892728467500075
10.945454545454545,0.3798772434396654
10.978824833702882,0.5395084558973385
11.012195121951219,0.624411661897136
11.045565410199556,0.6365037233664859
11.078935698447895,0.5928088700015548
11.112305986696231,0.5215037158986635
11.145676274944568,0.45476882410113917
11.179046563192905,0.41966567510296987
11.212416851441242,0.42916498458498803
11.245787139689579,0.4763096747265481
11.279157427937916,0.5345502329952249
11.312527716186253,0.5657989582195233
11.34589800443459,0.5346995130879415
11.379268292682926,0.4241385499008771
11.412638580931263,0.2450967131852154
11.4460088691796,0.03523061587990895
11.479379157427939,-0.1547625170230987
11.512749445676276,-0.2818493486508923
11.546119733924613,-0.3289842851742582
11.57949002217295,-0.31183829711611005
11.612860310421286,-0.2699675796369641
11.646230598669623,-0.24632733861140468
11.67960088691796,-0.26535559946051884
11.712971175166297,-0.32096173255199684
11.746341463414634,-0.38071899497630485
11.77971175166297,-0.40393626828043455
11.813082039911308,-0.363830920730993
11.846452328159646,-0.26197083951886163
11.879822616407983,-0.1276335520991362
11.91319290465632,-0.0030625552453028924
11.946563192904657,0.07704392626806714
11.979933481152994,0.10109553210086794
12.01330376940133,0.08395813191375862
12.046674057649668,0.057629177187287786
12.080044345898004,0.054956399702304606
12.113414634146341,0.09460215132539615
12.146784922394678,0.17363780667675408
12.180155210643015,0.26974011679754767
12.213525498891352,0.35061102203648553
12.24689578713969,0.385937890201368
12.280266075388028,0.3573778934500837
12.313636363636364,0.26378882960888794
12.347006651884701,0.12096260817316
12.380376940133038,-0.04335796907124934
12.413747228381375,-0.19750555954879362
12.447117516629712,-0.3147978811291833
12.480487804878049,-0.380947456324023
12.513858093126386,-0.3977412733943313
12.547228381374723,-0.38153312872586165
12.58059866962306,-0.3565755787086144
12.613968957871396,-0.34511103772769147
12.647339246119735,-0.3577304685502426
12.680709534368072,-0.3879515420981466
12.714079822616409,-0.41375427110871005
12.747450110864746,-0.40614416806328424
12.780820399113082,-0.3416805790317536
12.81419068736142,-0.2137501430344053
12.847560975609756,-0.03741166631852602
12.880931263858093,0.154808114072975
12.91430155210643,0.32471881494475
12.947671840354767,0.44278440710899664
12.981042128603104,0.49857281683017035
13.014412416851442,0.5027651096551315
13.04778270509978,0.48019725174964123
13.081152993348116,0.4576324509193437
13.114523281596453,0.452232440125371
13.14789356984479,0.46592019825378794
13.181263858093127,0.48751892611255426
13.214634146341464,0.5005479914658307
13.2480044345898,0.4919970466795055
13.281374722838137,0.4575292099231261
13.314745011086474,0.40106583243445726
13.348115299334811,0.3299879427937614
13.381485587583148,0.24940811536211563
13.414855875831487,0.1590751314039905
13.448226164079824,0.05466746012329085
13.48159645232816,-0.06736417642489734
13.514966740576497,-0.2042831068945282
13.548337028824834,-0.3443000745160241
13.581707317073171,-0.4687796653792907
13.615077605321508,-0.5591987827510968
13.648447893569845,-0.6059604236499173
13.681818181818182,-0.6145383658077059
13.715188470066519,-0.6049036396180723
13.748558758314855,-0.6030013770211393
13.781929046563192,-0.6272060078792192
13.815299334811531,-0.6761147405060333
13.848669623059868,-0.7245723522972947
13.882039911308205,-0.7315461939518901
13.915410199556542,-0.6576192942504364
13.948780487804878,-0.4844368015446125
13.982150776053215,-0.22658674759216924
14.015521064301552,0.07048243661039381
14.048891352549889,0.34619851821712
14.082261640798226,0.5471949888538589
14.115631929046563,0.646036205573641
14.1490022172949,0.6482305717310253
14.182372505543238,0.5854047041303954
14.215742793791575,0.4990419012344579
14.249113082039912,0.4229643586196934
14.282483370288249,0.37225561313811406
14.315853658536586,0.3423763170982804
14.349223946784923,0.3171464112894259
14.38259423503326,0.2805253672665645
14.415964523281596,0.22618508567598672
14.449334811529933,0.16072597756644327
14.48270509977827,0.09981371971285137
14.516075388026607,0.05980715503671547
14.549445676274944,0.049217166946151504
14.582815964523283,0.064029693528836
14.61618625277162,0.0889076193720376
14.649556541019956,0.103550420536986
14.682926829268293,0.09122060759419762
14.71629711751663,0.04558373360000252
14.749667405764967,-0.0270940633113165
14.783037694013304,-0.11110839384054971
14.81640798226164,-0.18804640482413765
14.849778270509978,-0.243760084538557
14.883148558758315,-0.27247235693109034
14.916518847006651,-0.2766730980862245
14.949889135254988,-0.26371622111284465
14.983259423503327,-0.24147676345372063
15.016629711751664,-0.21536187536703066
15.05,-0.1876619042871986
15.083370288248338,-0.1586469577581228
15.116740576496674,-0.12794537742370857
15.150110864745011,-0.09499548889607534
15.183481152993348,-0.058421786615772915
15.216851441241685,-0.015276183232584442
15.250221729490022,0.03853973275238004
15.283592017738359,0.10598103234178241
15.316962305986696,0.18530814244207544
15.350332594235034,0.2671253626067732
15.383702882483371,0.33423747711476665
15.417073170731708,0.36566464797919396
15.450443458980045,0.3442017003885177
15.483813747228382,0.26472677329624106
15.517184035476719,0.13923929081243963
15.550554323725056,-0.004718133742686513
15.583924611973393,-0.13294683342206656
15.61729490022173,-0.21788721212029646
15.650665188470066,-0.2506457783380384
15.684035476718403,-0.24573273321493322
15.71740576496674,-0.235148744027132
15.750776053215079,-0.2532360565908925
15.784146341463416,-0.31850272392638224
15.817516629711752,-0.4210066705541101
15.85088691796009,-0.5222694856832386
15.884257206208426,-0.5693259022923814
15.917627494456763,-0.5176661804914683
15.9509977827051,-0.35287833258972545
15.984368070953437,-0.10055229505405189
16.017738359201775,0.18095184904137285
16.05110864745011,0.42219099550662637
16.08447893569845,0.5690656037208249
16.117849223946784,0.6020074218267686
16.151219512195123,0.5396857690261893
16.184589800443458,0.4266882007975071
16.217960088691797,0.31217160251561477
16.251330376940132,0.23002684808547036
16.28470066518847,0.18918061274873302
16.31807095343681,0.17675605890054963
16.351441241685144,0.17031785883114037
16.384811529933483,0.151676869871311
16.418181818181818,0.11528264946449143
16.451552106430157,0.06822307613710757
16.48492239467849,0.02370700194217
16.51829268292683,-0.00707448005771665
16.551662971175165,-0.019971500745932333
16.585033259423504,-0.017795498574962907
16.61840354767184,-0.00653782968063331
16.651773835920178,0.008732410841857765
16.685144124168513,0.02533573020357002
16.71851441241685,0.04116291837316257
16.75188470066519,0.051483034020293354
16.785254988913525,0.047432082938324516
16.818625277161864,0.01821438294602736
16.8519955654102,-0.043479613141185695
16.885365853658538,-0.13574859102416117
16.918736141906873,-0.24508091739807622
16.95210643015521,-0.3493869022147047
16.985476718403547,-0.4256028836961588
17.018847006651885,-0.4583129689468023
17.05221729490022,-0.44503690797488255
17.08558758314856,-0.39549896746238933
17.118957871396898,-0.3254448794310985
17.152328159645233,-0.24855384577325085
17.18569844789357,-0.1709497668797109
17.219068736141907,-0.09117283178949713
17.252439024390245,-0.00519542894135143
