Frequency (Hz),Amplitude
0.0,1.659342613692651
0.01993355481727575,1.658519061440575
0.0398671096345515,1.6560492204150739
0.059800664451827246,1.6519355370048774
0.079734219269103,1.6461820858469123
0.09966777408637874,1.6387945658127696
0.11960132890365449,1.6297802943958177
0.13953488372093023,1.619148200504492
0.159468438538206,1.6069088156697666
0.17940199335548174,1.5930742636757724
0.19933554817275748,1.5776582486247632
0.21926910299003324,1.5606760414492267
0.23920265780730898,1.5421444648855254
0.25913621262458475,1.5220818769256215
0.27906976744186046,1.5005081527649642
0.29900332225913623,1.4774446652668614
0.318936877076412,1.4529142639654062
0.3388704318936877,1.4269412526315461
0.3588039867109635,1.399551365428865
0.37873754152823924,1.3707717416885337
0.39867109634551495,1.340630899335818
0.4186046511627907,1.309158707003626
0.4385382059800665,1.2763863548730092
0.4584717607973422,1.2423463242850732
0.47840531561461797,1.2070723561750933
0.49833887043189373,1.1705994183873254
0.5182724252491695,1.1329636719392393
0.5382059800664452,1.094202436317881
0.5581395348837209,1.0543541539097179
0.5780730897009968,1.013458353692162
0.5980066445182725,0.9715556143530389
0.6179401993355482,0.928687527059749
0.637873754152824,0.8848966581835563
0.6578073089700996,0.840226512411259
0.6777408637873754,0.7947214968754948
0.6976744186046512,0.7484268872535799
0.717607973421927,0.7013887973100055
0.7375415282392027,0.6536541542499992
0.7574750830564785,0.605270683821247
0.7774086378737541,0.5562869119709233
0.7973421926910299,0.5067521953572005
0.8172757475083057,0.45671680408738974
0.8372093023255814,0.4062321038138047
0.8571428571428572,0.35535093925951394
0.877076411960133,0.3041284605727454
0.8970099667774087,0.25262403111736115
0.9169435215946844,0.20090617711716607
0.9368770764119602,0.1490680033435428
0.9568106312292359,0.09729209416732208
0.9767441860465116,0.04634981500325124
0.9966777408637875,0.01728991773482286
1.0166112956810631,0.06265772901828962
1.036544850498339,0.11408800111013412
1.0564784053156147,0.1659341365205489
1.0764119601328903,0.21776963436100674
1.0963455149501662,0.26945615468631684
1.1162790697674418,0.3209116288879159
1.1362126245847177,0.37207134278782605
1.1561461794019936,0.42287754529852284
1.176079734219269,0.4732758749090357
1.196013289036545,0.5232139207156155
1.2159468438538206,0.5726405820031963
1.2358803986710964,0.6215057672750155
1.255813953488372,0.6697602521677739
1.275747508305648,0.7173556175173152
1.2956810631229239,0.7642442303089008
1.3156146179401993,0.8103792486509381
1.3355481727574752,0.8557146406742709
1.3554817275747508,0.9002052116835385
1.3754152823920267,0.9438066362364093
1.3953488372093024,0.9864754931273475
1.4152823920265782,1.028169302001297
1.435215946843854,1.0688465607677844
1.4551495016611296,1.1084667832585986
1.4750830564784054,1.1469905367436886
1.495016611295681,1.1843794790304476
1.514950166112957,1.2205963949444059
1.5348837209302328,1.2556052320386084
1.5548172757475083,1.289371135412796
1.5747508305647842,1.3218604815469606
1.5946843853820598,1.3530409110712054
1.6146179401993357,1.3828813604062684
1.6345514950166113,1.4113520922181721
1.6544850498338872,1.4384247246379858
1.6744186046511629,1.4640722592031488
1.6943521594684385,1.4882691074812815
1.7142857142857144,1.5109911163415564
1.73421926910299,1.532215591841362
1.754152823920266,1.5519213216994412
1.7740863787375416,1.5700885963285585
1.7940199335548175,1.586699228403616
1.8139534883720931,1.6017365709428528
1.8338870431893688,1.615185533881846
1.8538205980066447,1.6270325991222576
1.8737541528239203,1.6372658340386261
1.893687707641196,1.6458749034286495
1.9136212624584719,1.6528510798941247
1.9335548172757475,1.6581872526413757
1.9534883720930232,1.6618779346916843
1.9734219269102993,1.6639192684941575
1.993355481727575,1.66430902993494
2.0132890365448506,1.6630466307384881
2.0332225913621262,1.6601331192583035
2.0531561461794023,1.6555711796563637
2.073089700996678,1.6493651294716791
2.0930232558139537,1.6415209155810604
2.1129568106312293,1.6320461085557136
2.132890365448505,1.6209498954201393
2.1528239202657806,1.6082430708206723
2.1727574750830567,1.593938026613297
2.1926910299003324,1.578048739881996
2.212624584717608,1.5605907594006772
2.2325581395348837,1.5415811905537347
2.25249169435216,1.5210386787320223
2.2724252491694354,1.498983391223359
2.292358803986711,1.4754369976186195
2.312292358803987,1.4504226487567058
2.332225913621263,1.4239649542344828
2.352159468438538,1.396089958510399
2.3720930232558137,1.3668251156333475
2.39202657807309,1.3361992626326182
2.4119601328903655,1.304242591608684
2.431893687707641,1.270986620569767
2.4518272425249172,1.2364641630661999
2.471760797342193,1.2007092966824309
2.4916943521594686,1.1637573304579876
2.511627906976744,1.1256447713230606
2.5315614617940203,1.0864092896546427
2.551495016611296,1.0460896840867815
2.5714285714285716,1.0047258457483477
2.5913621262458477,0.9623587221584432
2.611295681063123,0.9190302810946167
2.6312292358803986,0.8747834748755571
2.6511627906976742,0.8296622056964069
2.6710963455149503,0.7837112929631441
2.691029900332226,0.736976444072428
2.7109634551495017,0.6895042309140814
2.7308970099667778,0.6413420758016681
2.7508305647840534,0.5925382530779176
2.770764119601329,0.5431419173560114
2.7906976744186047,0.4932031785214524
2.810631229235881,0.4427732624497057
2.8305647840531565,0.3919048377163445
2.850498338870432,0.3406526867871798
2.870431893687708,0.2890751579246868
2.8903654485049834,0.2372376022351476
2.910299003322259,0.18522171573384866
2.9302325581395348,0.13315697060640067
2.950166112956811,0.0813726424907102
2.9700996677740865,0.03203675020385551
2.990033222591362,0.031153667390714092
3.0099667774086383,0.08035777856085746
3.029900332225914,0.13216697612378903
3.0498338870431896,0.18428819323435147
3.0697674418604657,0.2363833159329639
3.089700996677741,0.28832100448519654
3.1096345514950166,0.3400188501725095
3.129568106312292,0.39141106778511897
3.1495016611295683,0.4424389455578441
3.169435215946844,0.4930473438904705
3.1893687707641196,0.5431832199336883
3.2093023255813957,0.5927949468036546
3.2292358803986714,0.641831982737275
3.249169435215947,0.6902447086338623
3.2691029900332227,0.7379843524658513
3.289036544850499,0.7850029610554873
3.3089700996677744,0.8312533988330326
3.32890365448505,0.8766893624841336
3.3488372093023258,0.9212654051701632
3.3687707641196014,0.96493696657668
3.388704318936877,1.0076604064900976
3.4086378737541527,1.049393040441944
3.428571428571429,1.0900931764650685
3.4485049833887045,1.1297201523174387
3.46843853820598,1.1682343727270281
3.4883720930232562,1.2055973463393739
3.508305647840532,1.2417717221343731
3.5282392026578075,1.2767213251366807
3.548172757475083,1.3104111912835559
3.5681063122923593,1.3428076013422923
3.588039867109635,1.3738781137892881
3.60797342192691,1.4035915965775934
3.6279069767441863,1.4319182577307843
3.647840531561462,1.4588296747095695
3.6677740863787376,1.48429882250379
3.6877076411960132,1.508300100408081
3.7076411960132893,1.5308093574437047
3.727574750830565,1.5518039163924848
3.7475083056478407,1.5712625964123057
3.7674418604651168,1.5891657342059835
3.787375415282392,1.6054952037181844
3.807308970099668,1.6202344343371167
3.8272425249169437,1.633368427579981
3.8471760797342194,1.6448837722430865
3.867109634551495,1.6547686579997327
3.887043189368771,1.6630128874305155
3.9069767441860463,1.669607886472796
3.9269102990033224,1.6745467132777878
3.9468438538205985,1.6778240654655765
3.9667774086378738,1.6794362857700078
3.98671096345515,1.6793813660674342
4.0066445182724255,1.6776589497846075
4.026578073089701,1.6742703326833186
4.046511627906977,1.66921846202071
4.0664451827242525,1.662507934086216
4.086378737541528,1.6541449901176843
4.106312292358805,1.6441375106013394
4.1262458471760795,1.6324950079616962
4.146179401993356,1.6192286176496837
4.166112956810632,1.6043510876391904
4.186046511627907,1.5878767663438487
4.205980066445183,1.5698215889683913
4.225913621262459,1.5502030623107776
4.245847176079734,1.529040248033543
4.26578073089701,1.5063537444254018
4.2857142857142865,1.4821656666767855
4.305647840531561,1.4564996256956657
4.325581395348838,1.429380705493736
4.345514950166113,1.400835439176578
4.365448504983389,1.3708917835758774
4.385382059800665,1.3395790925675095
4.40531561461794,1.306928089125576
4.425249169435216,1.2729708361711523
4.445182724252492,1.237740706285095
4.465116279069767,1.2012723503684823
4.485049833887043,1.1636016653529766
4.50498338870432,1.1247657610890505
4.524916943521594,1.084802926575433
4.544850498338871,1.0437525957431764
4.5647840531561465,1.0016553130790287
4.584717607973422,0.9585526994780387
4.604651162790698,0.9144874188702731
4.624584717607974,0.8695031464042668
4.644518272425249,0.8236445393365357
4.664451827242526,0.7769572123619999
4.6843853820598005,0.7294877200746379
4.704318936877076,0.6812835508531107
4.724252491694353,0.6323931392545338
4.7441860465116275,0.5828659090280364
4.764119601328904,0.5327523683213486
4.78405315614618,0.48210429736329274
4.803986710963455,0.4309751081224665
4.823920265780731,0.3794205435830288
4.8438538205980075,0.3275000999814002
4.863787375415282,0.27528014263807327
4.883720930232559,0.2228415222841416
4.9036544850498345,0.17030143146343113
4.92358803986711,0.11789378253406706
4.943521594684386,0.0664270797682453
4.963455149501661,0.024213332715444978
4.983388704318937,0.049402127536141406
5.003322259136213,0.09986655204603594
5.023255813953488,0.15218392611956058
5.043189368770764,0.2048252175043066
5.063122923588041,0.2574573053319539
5.083056478405315,0.309937553043591
5.102990033222592,0.36217596576452027
5.122923588039868,0.41410198845472573
5.142857142857143,0.4656537538783334
5.162790697674419,0.5167738937227424
5.182724252491695,0.5674076901249334
5.20265780730897,0.6175021874381866
5.222591362126246,0.6670057415595244
5.242524916943522,0.71586778558567
5.262458471760797,0.7640387095988405
5.282392026578074,0.8114698039049809
5.3023255813953485,0.8581132390728117
5.322259136212625,0.9039220680419481
5.342192691029901,0.9488502417998105
5.362126245847176,0.9928526335344877
5.382059800664452,1.0358850681078797
5.4019933554817285,1.0779043548331317
5.421926910299003,1.1188683222316547
5.44186046511628,1.1587358538756167
5.4617940199335555,1.1974669246970642
5.48172757475083,1.235022637324326
5.501661129568107,1.271365258126192
5.5215946843853825,1.3064582527259478
5.541528239202658,1.3402663208035646
5.561461794019934,1.3727554300442077
5.5813953488372094,1.403892849119814
5.601328903654485,1.4336471796111192
5.621262458471762,1.4619883867933248
5.641196013289036,1.4888878292199725
5.661129568106313,1.514318287048957
5.681063122923589,1.5382539890615712
5.700996677740864,1.56067063833138
5.72093023255814,1.5815454365043389
5.740863787375416,1.6008571066556068
5.760797342192691,1.6185859146921047
5.780730897009967,1.6347136892726168
5.800664451827243,1.649223840220243
5.820598006644518,1.6621013754043328
5.840531561461795,1.6733329160714046
5.8604651162790695,1.6829067106068065
5.880398671096346,1.690812646710809
5.900332225913622,1.6970422619750702
5.920265780730897,1.7015887528471363
5.940199335548173,1.704446981972863
5.960132890365449,1.7056134839082167
5.980066445182724,1.7050864691941294
6.0,1.702865826789798
6.0199335548172765,1.6989531248616827
6.039867109634551,1.6933516099275447
6.059800664451828,1.6860662043566848
6.0797342192691035,1.6771035022294023
6.099667774086379,1.6664717635609714
6.119601328903655,1.6541809068971782
6.139534883720931,1.6402425002908936
6.159468438538206,1.624669750671067
6.179401993355482,1.6074774916182037
6.1993355481727574,1.5886821695626017
6.219269102990033,1.568301828424367
6.23920265780731,1.54635609271749
6.259136212624584,1.5228661491428985
6.279069767441861,1.4978547266998241
6.299003322259137,1.4713460753485939
6.318936877076412,1.4433659432632597
6.338870431893688,1.413941552718325
6.3588039867109645,1.3831015746612998
6.378737541528239,1.3508761020321443
6.398671096345516,1.3172966219020092
6.418604651162791,1.282395986519021
6.438538205980066,1.2462083833685167
6.458471760797343,1.2087693043817038
6.4784053156146175,1.1701155144623607
6.498338870431894,1.1302850195511023
6.51827242524917,1.0893170345153775
6.538205980066445,1.0472519512525513
6.558139534883721,1.0041313075358378
6.578073089700998,0.9599977573430213
6.598006644518272,0.9148950437236034
6.617940199335549,0.8688679757431533
6.6378737541528245,0.8219624118008421
6.6578073089701,0.7742252528304662
6.677740863787376,0.7257044508977982
6.6976744186046515,0.6764490421090102
6.717607973421927,0.6265092187254145
6.737541528239203,0.5759364663086978
6.7574750830564785,0.5247838126061817
6.777408637873754,0.4731062769291803
6.797342192691031,0.42096169878521994
6.8172757475083055,0.3684123320058013
6.837209302325582,0.3155281143639774
6.857142857142858,0.2623940054589314
6.877076411960133,0.20912866405064504
6.897009966777409,0.1559414871308301
6.9169435215946855,0.10336413164150718
6.93687707641196,0.05381254899794822
6.956810631229236,0.03148566707905212
6.9767441860465125,0.07061271986757577
6.996677740863787,0.12195146713221773
7.016611295681064,0.17497975495896742
7.036544850498339,0.2284046630824497
7.056478405315615,0.2818628567300069
7.076411960132891,0.3351883617628673
7.096345514950166,0.38827742176000574
7.116279069767442,0.4410510567550293
7.136212624584719,0.4934418759642392
7.156146179401993,0.5453886339730549
7.17607973421927,0.5968337186282862
7.196013289036546,0.6477218955715084
7.21594684385382,0.6979996449708898
7.235880398671097,0.7476147990083637
7.2558139534883725,0.7965163416186536
7.275747508305648,0.8446543001963162
7.295681063122924,0.8919796915952719
7.3156146179402,0.9384445012603025
7.335548172757475,0.9840016831167584
7.355481727574752,1.0286051727218748
7.3754152823920265,1.072209908990734
7.395348837209303,1.1147718614822322
7.415282392026579,1.1562480612539119
7.435215946843854,1.1965966339393148
7.45514950166113,1.235776834115469
7.475083056478406,1.2737490803007927
7.495016611295681,1.31047499010659
7.514950166112956,1.3459174151899007
7.5348837209302335,1.380040475742489
7.554817275747508,1.4128095943118295
7.574750830564784,1.4441915287938876
7.5946843853820605,1.4741544044697956
7.614617940199336,1.5026677449819723
7.634551495016611,1.5297025021632873
7.6544850498338874,1.5552310846464368
7.674418604651163,1.5792273851914027
7.694352159468439,1.6016668066771695
7.714285714285715,1.622526286710935
7.73421926910299,1.6417843208133118
7.754152823920266,1.659420984143021
7.774086378737542,1.675417951728368
7.794019933554818,1.689758517176699
7.813953488372093,1.7024276098355906
7.83388704318937,1.7134118103831188
7.853820598006645,1.7226993648265148
7.8737541528239205,1.7302801968915478
7.893687707641197,1.736145918786842
7.913621262458472,1.740289840330064
7.9335548172757475,1.742706976424785
7.953488372093024,1.743394052879169
7.9734219269103,1.7423495105596518
7.9933554817275745,1.7395735078750372
8.013289036544851,1.735067921588505
8.033222591362128,1.7288363459573088
8.053156146179402,1.7208840902018177
8.073089700996679,1.7112181743085635
8.093023255813954,1.6998473231733242
8.11295681063123,1.6867819590936788
8.132890365448505,1.6720341926226592
8.152823920265782,1.6556178117976879
8.172757475083056,1.6375482697628025
8.192691029900331,1.6178426708046827
8.21262458471761,1.5965197548273173
8.232558139534884,1.5735998802943003
8.252491694352159,1.5491050056723594
8.272425249169435,1.5230586694160877
8.292358803986712,1.4954859685402768
8.312292358803987,1.4664135358349808
8.332225913621263,1.4358695157888155
8.352159468438538,1.4038835392991447
8.372093023255815,1.3704866972646388
8.392026578073091,1.3357115131773496
8.411960132890366,1.299591914860369
8.43189368770764,1.26216320553494
8.451827242524917,1.2234620344530667
8.471760797342194,1.183526367402242
8.491694352159469,1.1423954574878439
8.511627906976745,1.100109816738261
8.53156146179402,1.0567111892778431
8.551495016611296,1.0122425271046485
8.571428571428573,0.9667479699429539
8.591362126245848,0.9202728312957006
8.611295681063122,0.872863593832759
8.6312292358804,0.8245679188484927
8.651162790697676,0.7754346771070652
8.67109634551495,0.7255140126997103
8.691029900332227,0.6748574589335044
8.710963455149502,0.6235181384356939
8.730897009966778,0.5715511040545648
8.750830564784053,0.5190139245226503
8.77076411960133,0.46596771604198345
8.790697674418604,0.4124790336751615
8.81063122923588,0.3586235398951999
8.830564784053157,0.3044936800927972
8.850498338870432,0.2502164623347465
8.870431893687707,0.19600083295440204
8.890365448504983,0.14229216150488774
8.91029900332226,0.09046103428910196
8.930232558139535,0.04778411621584773
8.950166112956811,0.05080943537824999
8.970099667774086,0.09532905960788633
8.990033222591363,0.14760209100231508
9.00996677740864,0.20158918206397292
9.029900332225914,0.25608391531142594
9.049833887043189,0.31067720275681826
9.069767441860467,0.3651711290835523
9.089700996677742,0.41944254011529786
9.109634551495017,0.473400233935268
9.129568106312293,0.5269686435680546
9.14950166112957,0.5800807147803625
9.169435215946844,0.6326744747781433
9.189368770764121,0.684691253206498
9.209302325581396,0.7360747085113538
9.22923588039867,0.7867702745524264
9.249169435215949,0.8367248390909722
9.269102990033224,0.8858865562722934
9.289036544850498,0.9342047395906681
9.308970099667773,0.9816298047774922
9.328903654485051,1.0281132444905228
9.348837209302326,1.0736076236932335
9.368770764119601,1.118066588708391
9.388704318936878,1.1614448853957846
9.408637873754152,1.2036983834308335
9.428571428571429,1.2447841046298636
9.448504983388705,1.2846602538963308
9.46843853820598,1.3232862517792827
9.488372093023255,1.3606227679158547
9.508305647840533,1.3966317548231035
9.528239202657808,1.4312764816390406
9.548172757475083,1.464521567508053
9.56810631229236,1.4963330143749225
9.588039867109636,1.5266782390012397
9.60797342192691,1.5555261040556319
9.627906976744187,1.5828469481564988
9.647840531561462,1.6086126147674302
9.667774086378738,1.632796479861592
9.687707641196015,1.6553734782843685
9.70764119601329,1.6763201287534244
9.727574750830565,1.6956145574440564
9.747508305647841,1.713236520113843
9.767441860465118,1.729167422727075
9.787375415282392,1.7433903405436357
9.807308970099669,1.7558900356416713
9.827242524916944,1.7666529728469438
9.84717607973422,1.7756673340452778
9.867109634551497,1.7829230308575028
9.887043189368772,1.788411715659388
9.906976744186046,1.7921267909315661
9.926910299003321,1.79406341692745
9.9468438538206,1.794218517649499
9.966777408637874,1.7925907851266583
9.986710963455149,1.7891806819887184
10.006644518272426,1.783990442335688
10.026578073089702,1.777024070902672
10.046511627906977,1.768287340524157
10.066445182724253,1.7577877879037387
10.086378737541528,1.7455347076987644
10.106312292358805,1.7315391449324833
10.126245847176081,1.7158138857499319
10.146179401993356,1.698373446537473
10.16611295681063,1.6792340614305612
10.186046511627907,1.6584136682389095
10.205980066445184,1.6359318928245221
10.225913621262459,1.6118100319741324
10.245847176079735,1.5860710348164144
10.26578073089701,1.558739482843346
10.285714285714286,1.5298415686077689
10.305647840531563,1.4994050731837811
10.325581395348838,1.4674593424957239
10.345514950166113,1.434035262645707
10.36544850498339,1.3991652344013334
10.385382059800666,1.3628831470464728
10.40531561461794,1.3252243518533493
10.425249169435217,1.28622563550831
10.445182724252492,1.2459251939254479
10.465116279069768,1.2043626070221138
10.485049833887045,1.1615788152279023
10.50498338870432,1.1176160987777621
10.524916943521594,1.0725180612451368
10.544850498338871,1.0263296193639657
10.564784053156147,0.9790970020763682
10.584717607973422,0.9308677630941995
10.604651162790697,0.8816908133667185
10.624584717607974,0.8316164831971341
10.64451827242525,0.7806966292269873
10.664451827242525,0.7289848107198426
10.684385382059801,0.6765365755836843
