Frequency (Hz),Amplitude
0.0,0.31277061580282783
0.01978021978021978,0.3245702595639084
0.03956043956043956,0.357599225855681
0.05934065934065934,0.4066080870735976
0.07912087912087912,0.46642906234381204
0.0989010989010989,0.533242749407692
0.11868131868131868,0.6045167118318027
0.13846153846153844,0.6786105311181384
0.15824175824175823,0.7544442158247411
0.17802197802197803,0.8312826293925629
0.1978021978021978,0.9086050274329096
0.21758241758241756,0.9860269948995295
0.23736263736263735,1.063253172571151
0.2571428571428572,1.1400480206697832
0.2769230769230769,1.2162173013008684
0.2967032967032967,1.2915960667071453
0.31648351648351647,1.366040689429556
0.3362637362637363,1.4394234630352498
0.35604395604395606,1.5116288748172682
0.3758241758241758,1.582550989197844
0.3956043956043956,1.6520915835866254
0.4153846153846154,1.7201588032884094
0.4351648351648351,1.7866661804374746
0.45494505494505494,1.85153191212836
0.4747252747252747,1.9146783256582358
0.4945054945054945,1.9760314805341674
0.5142857142857143,2.035520871567319
0.5340659340659341,2.093079207426718
0.5538461538461538,2.1486422460098122
0.5736263736263736,2.2021486729072652
0.5934065934065934,2.253540012747999
0.6131868131868132,2.3027605657426524
0.6329670329670329,2.349757363590936
0.6527472527472528,2.3944801402808
0.6725274725274726,2.436881314320947
0.6923076923076923,2.476915979711216
0.7120879120879121,2.5145419035327907
0.7318681318681318,2.549719528482647
0.7516483516483516,2.5824119790176643
0.7714285714285715,2.612585070038834
0.7912087912087912,2.640207317254074
0.810989010989011,2.66524994852216
0.8307692307692308,2.6876869156113132
0.8505494505494506,2.707494905911076
0.8703296703296702,2.72465335372141
0.8901098901098901,2.739144450812844
0.9098901098901099,2.750953156009382
0.9296703296703297,2.760067203594571
0.9494505494505494,2.766477110382375
0.9692307692307692,2.770176181330724
0.989010989010989,2.7711605136070756
1.0087912087912088,2.769428999044442
1.0285714285714287,2.764983324953084
1.0483516483516484,2.7578279732787956
1.0681318681318681,2.747970218124216
1.087912087912088,2.7354201216757463
1.1076923076923075,2.7201905286056935
1.1274725274725275,2.702297059049408
1.1472527472527472,2.681758100289692
1.1670329670329669,2.6585947973186053
1.1868131868131868,2.6328310424901256
1.2065934065934065,2.604493464528421
1.2263736263736265,2.573611417217911
1.2461538461538462,2.5402169681756623
1.2659340659340659,2.5043448881974784
1.2857142857142858,2.466032641781946
1.3054945054945055,2.4253203795768052
1.3252747252747252,2.3822509336689297
1.3450549450549452,2.3368698168634117
1.3648351648351649,2.2892252273839913
1.3846153846153846,2.2393680607967443
1.4043956043956045,2.1873519314397347
1.4241758241758242,2.133233206271167
1.443956043956044,2.077071054881803
1.4637362637362636,2.0189275205288313
1.4835164835164834,1.9588676185461231
1.5032967032967033,1.896959470522967
1.523076923076923,1.8332744854456804
1.542857142857143,1.7678876028933816
1.5626373626373626,1.7008776188639303
1.5824175824175823,1.6323276226256196
1.6021978021978023,1.562325584289935
1.621978021978022,1.490965149370504
1.6417582417582417,1.4183467212721457
1.6615384615384616,1.3445789500274732
1.6813186813186813,1.2697808032151012
1.7010989010989013,1.194084485517932
1.720879120879121,1.117639618494792
1.7406593406593405,1.040619329716235
1.7604395604395604,0.9632292978893003
1.7802197802197801,0.8857214800170868
1.7999999999999998,0.8084154311319176
1.8197802197802198,0.7317322227252262
1.8395604395604395,0.656249683292531
1.8593406593406594,0.5827941077127526
1.879120879120879,0.5125935774198302
1.8989010989010988,0.44752816134312334
1.9186813186813187,0.39049689036709073
1.9384615384615385,0.3457804138351775
1.9582417582417584,0.3188167689269991
1.978021978021978,0.31432831431382524
1.9978021978021978,0.3332463282490396
2.0175824175824175,0.37195603014852074
2.0373626373626372,0.4249609225639078
2.0571428571428574,0.4874528612642481
2.076923076923077,0.5560430218205202
2.096703296703297,0.62851547096803
2.1164835164835165,0.7034319081026261
2.1362637362637362,0.7798367464043942
2.1560439560439564,0.8570716802198088
2.175824175824176,0.9346643391410752
2.195604395604396,1.012261534567439
2.215384615384615,1.0895885993676313
2.2351648351648348,1.1664240603717573
2.254945054945055,1.2425834772919089
2.2747252747252746,1.3179088845548181
2.2945054945054943,1.3922617394115422
2.314285714285714,1.465518115745552
2.3340659340659338,1.5375653683304633
2.353846153846154,1.6082997800181025
2.3736263736263736,1.6776248786635473
2.3934065934065933,1.7454502184912715
2.413186813186813,1.8116904887710412
2.4329670329670328,1.8762648565786677
2.452747252747253,1.9390964792192054
2.4725274725274726,2.0001121411100744
2.4923076923076923,2.059241982953246
2.512087912087912,2.1164192999955116
2.5318681318681318,2.1715803924355845
2.5516483516483515,2.2246644554637482
2.5714285714285716,2.275613499588613
2.5912087912087913,2.324372294200242
2.610989010989011,2.3708883289988947
2.6307692307692307,2.415111789160756
2.6505494505494505,2.4569955410402082
2.6703296703296706,2.4964951259071007
2.6901098901098903,2.5335687597493903
2.70989010989011,2.568177337579385
2.7296703296703297,2.6002844409968677
2.7494505494505495,2.62985634800846
2.769230769230769,2.6568620442954862
2.7890109890109893,2.6812732352757735
2.808791208791209,2.703064358426883
2.8285714285714287,2.722212595436938
2.8483516483516484,2.7386978838292615
2.8681318681318677,2.7525029277729174
2.887912087912088,2.763613207845995
2.9076923076923076,2.77201698956486
2.9274725274725273,2.777705330532027
2.947252747252747,2.780672086089803
2.9670329670329667,2.780913913397948
2.986813186813187,2.7784302738813005
3.0065934065934066,2.773223434020286
3.0263736263736263,2.765298464482338
3.046153846153846,2.7546632376182414
3.0659340659340657,2.7413284233736928
3.085714285714286,2.7253074836941256
3.1054945054945056,2.7066166655320156
3.1252747252747253,2.6852749925996817
3.145054945054945,2.661304256050143
3.1648351648351647,2.634729004314246
3.184615384615385,2.605576532376677
3.2043956043956046,2.5738768708384523
3.2241758241758243,2.5396627751928094
3.243956043956044,2.5029697158387414
3.2637362637362637,2.4638358694769953
3.2835164835164834,2.4223021126844215
3.3032967032967036,2.378412018653005
3.3230769230769233,2.3322118583220792
3.342857142857143,2.2837506074430913
3.3626373626373627,2.2330799615174364
3.3824175824175824,2.180254361071406
3.4021978021978025,2.125331030420148
3.4219780219780223,2.0683700339841335
3.441758241758242,2.009434355442452
3.4615384615384617,1.948590006656459
3.481318681318681,1.8859061755484758
3.501098901098901,1.8214554252272668
3.520879120879121,1.7553139609889352
3.5406593406593405,1.6875619879501875
3.5604395604395602,1.6182841908441612
3.58021978021978,1.5475703802452456
3.5999999999999996,1.475516368254995
3.61978021978022,1.4022251647762725
3.6395604395604395,1.3278086282864638
3.659340659340659,1.2523897713706382
3.679120879120879,1.1761060261832585
3.6989010989010986,1.0991139443109064
3.718681318681319,1.0215960846351295
3.7384615384615385,0.9437713131286581
3.758241758241758,0.8659105480800698
3.7780219780219784,0.7883614041332805
3.7978021978021976,0.7115877095773433
3.8175824175824173,0.6362343328736113
3.8373626373626375,0.5632353301914457
3.8571428571428568,0.4939944621282664
3.876923076923077,0.4306744448696075
3.896703296703296,0.37659356897440177
3.916483516483517,0.3365071606431477
3.936263736263736,0.315980414851155
3.956043956043956,0.3189078722709324
3.9758241758241755,0.3446915471138067
3.9956043956043956,0.38873202122071465
4.015384615384615,0.44551294728551605
4.035164835164835,0.5106257394048375
4.054945054945055,0.581070416407414
4.0747252747252745,0.6549013860307012
4.094505494505494,0.730850269389501
4.114285714285715,0.8080659414942309
4.134065934065934,0.8859548725127175
4.153846153846154,0.9640856888653601
4.173626373626373,1.0421317834611945
4.193406593406594,1.1198361485423487
4.213186813186813,1.1969893160362821
4.232967032967033,1.273415181464767
4.252747252747253,1.3489616797235597
4.2725274725274724,1.4234945183255165
4.292307692307692,1.4968928821095069
4.312087912087913,1.5690464370686887
4.331868131868132,1.639853207742748
4.351648351648352,1.7092180530980028
4.371428571428571,1.7770515595351464
4.391208791208792,1.843269229221238
4.410989010989011,1.907790880520425
4.43076923076923,1.9705402027377448
4.450549450549451,2.0314444244508203
4.4703296703296695,2.0904340663250736
4.49010989010989,2.147442757342012
4.50989010989011,2.2024070989987874
4.52967032967033,2.2552665660338165
4.549450549450549,2.305963435103807
4.569230769230769,2.354442734923249
4.589010989010989,2.400652212909525
4.608791208791209,2.444542314512953
4.628571428571428,2.48606617226202
4.648351648351649,2.5251796021973756
4.6681318681318675,2.5618411058584316
4.687912087912088,2.5960118763633306
4.707692307692308,2.6276558074154965
4.7274725274725276,2.656739504298037
4.747252747252747,2.6832322960974477
4.767032967032967,2.7071062485407147
4.786813186813187,2.7283361769445613
4.806593406593407,2.7468996588676946
4.826373626373626,2.7627770461329697
4.846153846153847,2.775951475947948
4.8659340659340655,2.7864088809049457
4.885714285714286,2.794137997685252
4.905494505494506,2.79913037433051
4.9252747252747255,2.801380375977173
4.945054945054945,2.8008851889802893
4.964835164835165,2.7976448233801032
4.984615384615385,2.7916621136913444
5.004395604395604,2.7829427180203785
5.024175824175824,2.7714951155416165
5.043956043956045,2.7573306023908586
5.0637362637362635,2.7404632860623948
5.083516483516483,2.7209100784283184
5.103296703296703,2.698690687534087
5.123076923076923,2.673827608365625
5.142857142857143,2.6463461128313006
5.162637362637362,2.6162742392598295
5.182417582417583,2.5836427817838485
5.2021978021978015,2.5484852800637814
5.221978021978022,2.5108380099100915
5.241758241758242,2.4707399754917048
5.2615384615384615,2.428232903980266
5.281318681318681,2.383361243685011
5.301098901098901,2.3361721669947917
5.320879120879121,2.2867155797794902
5.340659340659341,2.235044139339139
5.36043956043956,2.181213283557929
5.380219780219781,2.1252812746705443
5.3999999999999995,2.0673092620460145
5.41978021978022,2.0073613697330934
5.43956043956044,1.9455048163264754
5.4593406593406595,1.8818100771995003
5.479120879120879,1.8163511025921701
5.498901098901099,1.74920560986845
5.518681318681319,1.6804554751023344
5.538461538461538,1.6101872589957136
5.558241758241758,1.5384929164872763
5.578021978021979,1.4654707606720512
5.5978021978021975,1.3912267836525962
5.617582417582418,1.3158764859608965
5.637362637362637,1.239547442683845
5.6571428571428575,1.1623829561833297
5.676923076923077,1.0845473432011292
5.696703296703297,1.0062337328539066
5.716483516483517,0.9276758101675153
5.736263736263735,0.8491659076986326
5.756043956043956,0.7710835564270286
5.775824175824176,0.6939416522115656
5.795604395604395,0.6184627660307866
5.815384615384615,0.5457070491638444
5.835164835164835,0.47728504794823645
5.854945054945055,0.41569044983943415
5.874725274725275,0.3647153688626547
5.894505494505494,0.3295838489947993
5.914285714285715,0.3158013145191749
5.934065934065933,0.3261564546927802
5.953846153846154,0.3585420989663918
5.973626373626374,0.40764730393228465
5.993406593406593,0.46809296663712535
6.013186813186813,0.5358703930628572
6.032967032967033,0.6083214556614698
6.052747252747253,0.683729665936148
6.072527472527473,0.7609694877786258
6.092307692307692,0.8392778326790571
6.112087912087913,0.9181160876722052
6.131868131868131,0.9970878503551428
6.151648351648352,1.0758892939533165
6.171428571428572,1.1542785769096509
6.191208791208791,1.2320565285837106
6.210989010989011,1.309054155834184
6.230769230769231,1.3851243742754042
6.2505494505494505,1.4601364189690829
6.270329670329671,1.533971993634663
6.29010989010989,1.6065225722514211
6.309890109890111,1.6776874798382433
6.329670329670329,1.7473725097828214
6.349450549450549,1.8154889168867683
6.36923076923077,1.8819526775602997
6.3890109890109885,1.9466839426317033
6.408791208791209,2.0096066307904104
6.428571428571428,2.0706481258760343
6.4483516483516485,2.129739051621123
6.468131868131868,2.186813104669922
6.487912087912088,2.2418069317708427
6.507692307692308,2.2946600406559026
6.527472527472527,2.345314736726552
6.547252747252747,2.3937160795652015
6.567032967032967,2.4398118546909107
6.5868131868131865,2.483552557018869
6.606593406593407,2.5248913832649604
6.626373626373626,2.563784231129067
6.6461538461538465,2.6001897035436943
6.665934065934065,2.6340691166231913
6.685714285714286,2.6653865102202547
6.705494505494506,2.69410866020867
6.725274725274725,2.7202050917788596
6.745054945054945,2.743648093166662
6.764835164835165,2.7644127293425025
6.7846153846153845,2.7824768552756227
6.804395604395605,2.7978211284586143
6.824175824175824,2.8104290204368083
6.8439560439560445,2.8202868271362336
6.863736263736263,2.8273836778259946
6.883516483516484,2.8317115425872994
6.903296703296704,2.8332652381934182
6.923076923076923,2.8320424323343127
6.942857142857143,2.8280436461461216
6.962637362637362,2.8212722550322336
6.9824175824175825,2.8117344877876764
7.002197802197802,2.799439424064746
7.021978021978022,2.7843989902450192
7.041758241758242,2.7666279538125367
7.061538461538461,2.7461439163552037
7.081318681318681,2.722967305359101
7.101098901098901,2.6971213650028782
7.1208791208791204,2.668632146210281
7.140659340659341,2.637528496279083
7.16043956043956,2.603842048477957
7.1802197802197805,2.5676072120921285
7.199999999999999,2.528861163509281
7.21978021978022,2.4876438390749067
7.23956043956044,2.4439979306194997
7.259340659340659,2.3979688847799623
7.279120879120879,2.3496049075179375
7.298901098901099,2.2989569756002948
7.318681318681318,2.2460788572765145
7.338461538461539,2.191027145004221
7.358241758241758,2.1338613038879344
7.3780219780219785,2.074643740581887
7.397802197802197,2.013439898869884
7.417582417582418,1.9503183901230512
7.437362637362638,1.8853511695692529
7.457142857142857,1.8186137731066268
7.476923076923077,1.7501856347377514
7.496703296703297,1.6801505123153757
7.516483516483516,1.6085970602901054
7.536263736263736,1.5356196042712575
7.556043956043957,1.4613191962139123
7.575824175824176,1.3858050653807423
7.595604395604395,1.3091966362316836
7.615384615384615,1.2316263723808678
7.635164835164835,1.1532438468314843
7.654945054945055,1.0742216697835762
7.674725274725275,0.9947642923424228
7.694505494505494,0.9151213673265335
7.7142857142857135,0.8356085078842538
7.734065934065935,0.7566403477209837
7.753846153846154,0.6787845030316447
7.7736263736263735,0.6028515441147076
7.793406593406592,0.5300466421679669
7.813186813186814,0.4622210143851921
7.832967032967034,0.40225360503573004
7.852747252747252,0.35446989818150215
7.872527472527472,0.3245449675436606
7.892307692307693,0.3177186908118688
7.912087912087912,0.33545282008067395
7.931868131868132,0.3742311029000193
7.951648351648351,0.42826641646091057
7.971428571428572,0.49240361020591794
7.991208791208791,0.5630073733554634
8.010989010989011,0.6377142196806918
8.03076923076923,0.7150011425229839
8.05054945054945,0.793863208882668
8.07032967032967,0.8736121826969605
8.09010989010989,0.9537565585749114
8.10989010989011,1.0339301758319261
8.129670329670331,1.1138490228047666
8.149450549450549,1.1932844835348204
8.169230769230769,1.2720463508304094
8.189010989010988,1.3499717757200247
8.20879120879121,1.4269179139975061
8.22857142857143,1.5027569307961166
8.248351648351647,1.5773725435482784
8.268131868131867,1.650657590011118
8.287912087912087,1.7225122927797731
8.307692307692308,1.7928430055952198
8.327472527472528,1.8615612984444263
8.347252747252746,1.9285832844831792
8.367032967032966,1.993829121923431
8.386813186813187,2.057222644069663
8.406593406593407,2.118691084246982
8.426373626373627,2.17816487167654
8.446153846153845,2.23557748084085
8.465934065934066,2.2908653214608767
8.485714285714286,2.3439676594799224
8.505494505494505,2.3948265618157567
8.525274725274725,2.443386859372563
8.545054945054945,2.489596124082196
8.564835164835165,2.533404656697489
8.584615384615384,2.5747654827779263
8.604395604395604,2.6136343548530596
8.624175824175826,2.6499697591669116
8.643956043956043,2.6837329257289273
8.663736263736263,2.7148878406484243
8.683516483516483,2.743401259926855
8.703296703296704,2.7692427240380657
8.723076923076924,2.792384572751598
8.742857142857142,2.812801959754228
8.762637362637362,2.83047286670651
8.782417582417583,2.84537811643811
8.802197802197803,2.857501385041268
8.821978021978023,2.866829212668446
8.84175824175824,2.8733510128805135
8.86153846153846,2.8770590804263683
8.881318681318682,2.877948597366209
8.901098901098901,2.876017637478468
8.920879120879121,2.8712671689174605
8.940659340659339,2.863701055113579
8.96043956043956,2.8533260539339547
8.98021978021978,2.8401518151468452
9.0,2.82419087626114
9.01978021978022,2.8054586568420206
9.03956043956044,2.783973451437231
9.05934065934066,2.7597564212868955
9.079120879120879,2.73283158503389
9.098901098901099,2.70322580870449
9.11868131868132,2.6709687952919126
9.138461538461538,2.636093074351661
9.158241758241758,2.5986339921115302
9.178021978021977,2.558629702715016
9.197802197802199,2.5161211613621406
9.217582417582419,2.4711521202946174
9.237362637362637,2.4237691288046883
9.257142857142856,2.3740215387452377
9.276923076923078,2.3219615174031105
9.296703296703297,2.2676440700995073
9.316483516483517,2.2111270755393435
9.336263736263735,2.1524713378049287
9.356043956043957,2.0917406600562867
9.375824175824176,2.0290019465780746
9.395604395604396,1.9643253419648423
9.415384615384616,1.8977844192052573
9.435164835164835,1.8294564325685536
9.454945054945055,1.759422657048869
9.474725274725275,1.6877688444996948
9.494505494505495,1.6145858387489456
9.514285714285714,1.5399704099000782
9.534065934065934,1.464026394849097
9.553846153846154,1.3868662719119234
9.573626373626373,1.3086133608715462
9.593406593406593,1.229404940129061
9.613186813186815,1.1493967348960274
9.632967032967032,1.0687694985287246
9.652747252747252,0.9877388626226841
9.672527472527472,0.9065704163931746
9.692307692307693,0.8256033640412737
9.712087912087913,0.7452886060145049
9.731868131868131,0.6662516064649578
9.75164835164835,0.5893983897361742
9.771428571428572,0.5160957400995808
9.791208791208792,0.44846986603046124
9.810989010989012,0.38984648627205154
9.83076923076923,0.345159493619954
9.850549450549451,0.32053120333373614
9.87032967032967,0.3207512895052908
9.89010989010989,0.3458013883119018
9.90989010989011,0.3908790045412057
9.92967032967033,0.44988200401172335
9.94945054945055,0.5179042545953322
9.96923076923077,0.5916408573476701
9.989010989010989,0.668978359398721
10.008791208791209,0.7485571559567064
10.028571428571428,0.829475014101768
10.048351648351648,0.9111082429924213
10.068131868131868,0.9930064832994925
10.08791208791209,1.0748302842786914
10.107692307692307,1.1563132774543803
10.127472527472527,1.2372386692752118
10.147252747252747,1.3174242528129654
10.167032967032966,1.396712614901141
10.186813186813188,1.4749645921299888
10.206593406593406,1.5520548080034833
10.226373626373626,1.6278685737710832
10.246153846153845,1.7022997017482335
10.265934065934067,1.7752489411201342
10.285714285714286,1.8466228459660117
10.305494505494504,1.9163329482745362
10.325274725274724,1.98429514935133
10.345054945054946,2.0504292696958935
10.364835164835165,2.1146587152461684
10.384615384615385,2.176910229985214
10.404395604395603,2.2371137132407246
10.424175824175824,2.2952020858323414
10.443956043956044,2.3511111933460933
10.463736263736264,2.4047797377707663
10.483516483516484,2.456149230873929
10.503296703296703,2.5051639642659262
10.523076923076923,2.55177099226297
10.542857142857143,2.595920124529875
10.562637362637362,2.637563926139064
10.582417582417584,2.67665772318176
10.602197802197802,2.713159612450658
10.621978021978022,2.747030474010466
10.641758241758241,2.7782339857036953
