Frequency (Hz),Amplitude
0.0,4.608466752880005
0.01993355481727575,4.606190845098608
0.0398671096345515,4.599365373299811
0.059800664451827246,4.5879970899438955
0.079734219269103,4.572097241881149
0.09966777408637874,4.55168155948771
0.11960132890365449,4.526770241477806
0.13953488372093023,4.4973879354148405
0.159468438538206,4.463563713950559
0.17940199335548174,4.42533104682871
0.19933554817275748,4.382727768697164
0.21926910299003324,4.335796042780969
0.23920265780730898,4.28458232047748
0.25913621262458475,4.229137296945166
0.27906976744186046,4.169515862769044
0.29900332225913623,4.105777051798734
0.318936877076412,4.037983985270878
0.3388704318936877,3.9662038123460723
0.3588039867109635,3.890507647212926
0.37873754152823924,3.8109705029397416
0.39867109634551495,3.727671222289059
0.4186046511627907,3.6406924057546663
0.4385382059800665,3.550120337138116
0.4584717607973422,3.4560449070565715
0.47840531561461797,3.3585595348738186
0.49833887043189373,3.257761089680096
0.5182724252491695,3.153749811129813
0.5382059800664452,3.046629231199062
0.5581395348837209,2.9365060982803843
0.5780730897009968,2.823490305537841
0.5980066445182725,2.7076948261774514
0.6179401993355482,2.5892356593643457
0.637873754152824,2.4682317921298567
0.6578073089700996,2.3448051850745575
0.6777408637873754,2.219080793515619
0.6976744186046512,2.091186641867502
0.717607973421927,1.9612539791182209
0.7375415282392027,1.8294175602823075
0.7574750830564785,1.695816128432069
0.7774086378737541,1.5605932258053437
0.7973421926910299,1.423898564543918
0.8172757475083057,1.2858903908174049
0.8372093023255814,1.1467397052788437
0.8571428571428572,1.0066381755761413
0.877076411960133,0.8658139792375256
0.8970099667774087,0.7245664203162954
0.9169435215946844,0.5833510044129356
0.9368770764119602,0.4430257453485785
0.9568106312292359,0.3057586805751442
0.9767441860465116,0.1798799093522167
0.9966777408637875,0.11454787861721785
1.0166112956810631,0.18936826518853667
1.036544850498339,0.31699683248656685
1.0564784053156147,0.4546960791047483
1.0764119601328903,0.5951703893617195
1.0963455149501662,0.7364406249364442
1.1162790697674418,0.877700948296678
1.1362126245847177,1.0185146265057008
1.1561461794019936,1.1585904019354774
1.176079734219269,1.2977039998901578
1.196013289036545,1.4356658277882446
1.2159468438538206,1.5723060691627007
1.2358803986710964,1.7074671926413403
1.255813953488372,1.8409999376463395
1.275747508305648,1.9727610581573654
1.2956810631229239,2.102612011683597
1.3156146179401993,2.230418182801096
1.3355481727574752,2.356048422055666
1.3554817275747508,2.479374777615847
1.3754152823920267,2.6002723482645784
1.3953488372093024,2.7186192146485975
1.4152823920265782,2.8342964219746123
1.435215946843854,2.9471879969965817
1.4551495016611296,3.0571809880376297
1.4750830564784054,3.164165520489356
1.495016611295681,3.268034862606362
1.514950166112957,3.368685497971154
1.5348837209302328,3.4660172020463853
1.5548172757475083,3.5599331209400726
1.5747508305647842,3.6503398510008833
1.5946843853820598,3.7371475182050076
1.6146179401993357,3.820269856543063
1.6345514950166113,3.8996242847934295
1.6544850498338872,3.975131981199054
1.6744186046511629,4.046717955662553
1.6943521594684385,4.11431111914718
1.7142857142857144,4.177844350027767
1.73421926910299,4.2372545571787885
1.754152823920266,4.2924827396212875
1.7740863787375416,4.343474042577178
1.7940199335548175,4.390177809801915
1.8139534883720931,4.4325476320847335
1.8338870431893688,4.470541391820654
1.8538205980066447,4.504121303571877
1.8737541528239203,4.533253950547219
1.893687707641196,4.557910316938451
1.9136212624584719,4.578065816061201
1.9335548172757475,4.593700314256425
1.9534883720930232,4.604798150516035
1.9734219269102993,4.6113481518032655
1.993355481727575,4.613343644045376
2.0132890365448506,4.610782458782758
2.0332225913621262,4.603666935464746
2.0531561461794023,4.59200391938909
2.073089700996678,4.575804755287964
2.0930232558139537,4.55508527656994
2.1129568106312293,4.52986579023363
2.132890365448505,4.500171057475436
2.1528239202657806,4.46603027002066
2.1727574750830567,4.427477022214295
2.1926910299003324,4.3845492789159355
2.212624584717608,4.337289339251029
2.2325581395348837,4.285743796280456
2.25249169435216,4.229963492660105
2.2724252491694354,4.170003472374288
2.292358803986711,4.10592292863968
2.312292358803987,4.037785148092941
2.332225913621263,3.9656574513933966
2.352159468438538,3.889611130395691
2.3720930232558137,3.8097213820754066
2.39202657807309,3.7260672394265457
2.4119601328903655,3.6387314995950755
2.431893687707641,3.5478006495718235
2.4518272425249172,3.4533647898449473
2.471760797342193,3.3555175565150663
2.4916943521594686,3.2543560425142246
2.511627906976744,3.1499807187587954
2.5315614617940203,3.042495356328121
2.551495016611296,2.9320069511278355
2.5714285714285716,2.818625653021066
2.5913621262458477,2.7024647021692503
2.611295681063123,2.5836403764422857
2.6312292358803986,2.4622719554346753
2.6511627906976742,2.338481709189847
2.6710963455149503,2.2123949237466785
2.691029900332226,2.084139982045578
2.7109634551495017,1.9538485292947378
2.7308970099667778,1.8216557697887548
2.7508305647840534,1.6877009735113735
2.770764119601329,1.5521283278778422
2.7906976744186047,1.4150883783744055
2.810631229235881,1.2767405186757055
2.8305647840531565,1.1372574512726192
2.850498338870432,0.9968335901054516
2.870431893687708,0.8557019920890305
2.8903654485049834,0.7141716679363911
2.910299003322259,0.5727203486194761
2.9302325581395348,0.4322675438608267
2.950166112956811,0.29520620091250394
2.9700996677740865,0.17112853593293986
2.990033222591362,0.1162184892771769
3.0099667774086383,0.1997058661749024
3.029900332225914,0.3291139241656562
3.0498338870431896,0.467488072702641
3.0697674418604657,0.6083932721902265
3.089700996677741,0.7500112512873556
3.1096345514950166,0.8915808995577728
3.129568106312292,1.0326814138038956
3.1495016611295683,1.173028168073286
3.169435215946844,1.312399927862655
3.1893687707641196,1.4506085628330607
3.2093023255813957,1.5874849551893895
3.2292358803986714,1.7228718742131266
3.249169435215947,1.8566201401434077
3.2691029900332227,1.9885864608207116
3.289036544850499,2.118632171868177
3.3089700996677744,2.2466224898534897
3.32890365448505,2.37242606906878
3.3488372093023258,2.495914744390654
3.3687707641196014,2.6169633915504136
3.388704318936877,2.7354498632723088
3.4086378737541527,2.851254975363193
3.428571428571429,2.9642625261333064
3.4485049833887045,3.074359338221103
3.46843853820598,3.1814353154722492
3.4883720930232562,3.285383509824301
3.508305647840532,3.386100194659872
3.5282392026578075,3.483484942103578
3.548172757475083,3.5774407024283974
3.5681063122923593,3.6678738842153717
3.588039867109635,3.754694434247555
3.60797342192691,3.837815916359622
3.6279069767441863,3.9171555886392517
3.647840531561462,3.9926344785038173
3.6677740863787376,4.064177455272224
3.6877076411960132,4.131713299922806
3.7076411960132893,4.195174771783844
3.727574750830565,4.254498671945818
3.7475083056478407,4.3096259032179605
3.7674418604651168,4.360501526478974
3.787375415282392,4.407074813293111
3.807308970099668,4.4492992946812375
3.8272425249169437,4.487132805951424
3.8471760797342194,4.520537527506572
3.867109634551495,4.549480021557858
3.887043189368771,4.573931264682678
3.9069767441860463,4.593866676174692
3.9269102990033224,4.609266142141892
3.9468438538205985,4.620114035315887
3.9667774086378738,4.626399230543126
3.98671096345515,4.628115115935197
4.0066445182724255,4.625259599662228
4.026578073089701,4.617835112379606
4.046511627906977,4.605848605284653
4.0664451827242525,4.589311543806111
4.086378737541528,4.568239896935865
4.106312292358805,4.5426541222184476
4.1262458471760795,4.512579146420857
4.146179401993356,4.47804434191192
4.166112956810632,4.439083498787899
4.186046511627907,4.395734792788664
4.205980066445183,4.348040749057431
4.225913621262459,4.296048201806174
4.245847176079734,4.239808249959369
4.26578073089701,4.179376208860474
4.2857142857142865,4.114811558139385
4.305647840531561,4.046177885855077
4.325581395348838,3.973542829047211
4.345514950166113,3.896978010853847
4.365448504983389,3.816558974381686
4.385382059800665,3.7323651135520093
4.40531561461794,3.6444796011922023
4.425249169435216,3.5529893147035283
4.445182724252492,3.4579847597154294
4.465116279069767,3.359559992242648
4.485049833887043,3.257812540004563
4.50498338870432,3.1528433237616205
4.524916943521594,3.044756579795141
4.544850498338871,2.9336597850379755
4.5647840531561465,2.81966358690849
4.584717607973422,2.7028817406897474
4.604651162790698,2.5834310584616444
4.624584717607974,2.4614313753445507
4.644518272425249,2.3370055414968336
4.664451827242526,2.2102794525132277
4.6843853820598005,2.0813821376180837
4.704318936877076,1.950445936168582
4.724252491694353,1.8176068118715307
4.7441860465116275,1.683004887303143
4.764119601328904,1.5467853419152964
4.78405315614618,1.4090999323658633
4.803986710963455,1.2701096264297793
4.823920265780731,1.1299893380829302
4.8438538205980075,0.9889368913313579
4.863787375415282,0.8471912023169345
4.883720930232559,0.7050727017037478
4.9036544850498345,0.5630850619672688
4.92358803986711,0.4222198727302475
4.943521594684386,0.28513854902937713
4.963455149501661,0.16298688983180515
4.983388704318937,0.1195068845887742
5.003322259136213,0.21099259113450772
5.023255813953488,0.3422967321462122
5.043189368770764,0.4816183396570575
5.063122923588041,0.6232540603677768
5.083056478405315,0.7655263710996795
5.102990033222592,0.907713665792108
5.122923588039868,1.0494090748766565
5.142857142857143,1.1903335757416027
5.162790697674419,1.3302683095204082
5.182724252491695,1.4690261048513302
5.20265780730897,1.6064381206294749
5.222591362126246,1.742347050343427
5.242524916943522,1.8766034465978272
5.262458471760797,2.0090636413943237
5.282392026578074,2.1395885323833057
5.3023255813953485,2.268042862682416
5.322259136212625,2.3942947937795465
5.342192691029901,2.518215658557001
5.362126245847176,2.6396798282297445
5.382059800664452,2.7585646530341377
5.4019933554817285,2.8747504515481173
5.421926910299003,2.9881205324981863
5.44186046511628,3.0985612384170937
5.4617940199335555,3.2059620039849976
5.48172757475083,3.310215424122061
5.501661129568107,3.4112173283714493
5.5215946843853825,3.5088668590983745
5.541528239202658,3.603066551704679
5.561461794019934,3.693722415525849
5.5813953488372094,3.780744014407302
5.601328903654485,3.8640445461922392
5.621262458471762,3.9435409205246708
5.641196013289036,4.019153834496837
5.661129568106313,4.090807845764112
5.681063122923589,4.158431442821193
5.700996677740864,4.221957112187791
5.72093023255814,4.281321402293956
5.740863787375416,4.336464983888607
5.760797342192691,4.387332706821281
5.780730897009967,4.433873653068709
5.800664451827243,4.476041185895764
5.820598006644518,4.513792995055303
5.840531561461795,4.547091137944244
5.8604651162790695,4.5759020766444305
5.880398671096346,4.600196710786728
5.900332225913622,4.6199504061856995
5.920265780730897,4.635143019200427
5.940199335548173,4.645758916784464
5.960132890365449,4.651786992195322
5.980066445182724,4.653220676340383
6.0,4.650057944742985
6.0199335548172765,4.642301320118706
6.039867109634551,4.629957870558311
6.059800664451828,4.61303920332009
6.0797342192691035,4.591561454240799
6.099667774086379,4.565545272780873
6.119601328903655,4.535015802726325
6.139534883720931,4.500002658576778
6.159468438538206,4.46053989765633
6.179401993355482,4.4166659879921
6.1993355481727574,4.368423772013672
6.219269102990033,4.315860426136164
6.23920265780731,4.259027416300417
6.259136212624584,4.197980449555578
6.279069767441861,4.132779421783645
6.299003322259137,4.063488361681847
6.318936877076412,3.9901753711387338
6.338870431893688,3.9129125621638523
6.3588039867109645,3.831775990560934
6.378737541528239,3.746845586572384
6.398671096345516,3.6582050827709054
6.418604651162791,3.5659419395367897
6.438538205980066,3.470147268541675
6.458471760797343,3.3709157547689763
6.4784053156146175,3.2683455777495087
6.498338870431894,3.162538332893203
6.51827242524917,3.053598954079314
6.538205980066445,2.941635639063733
6.558139534883721,2.826759779828292
6.578073089700998,2.709085900819927
6.598006644518272,2.5887316092428905
6.617940199335549,2.4658175633971884
6.6378737541528245,2.3404674678656843
6.6578073089701,2.212808108762433
6.677740863787376,2.0829694493477326
6.6976744186046515,1.9510848180354448
6.717607973421927,1.8172912407800714
6.737541528239203,1.681730005013588
6.7574750830564785,1.5445476067766746
6.777408637873754,1.40589735626644
6.797342192691031,1.2659421665902313
6.8172757475083055,1.1248595865937057
6.837209302325582,0.9828513786306754
6.857142857142858,0.8401630825415293
6.877076411960133,0.6971279196557135
6.897009966777409,0.5542787139123272
6.9169435215946855,0.41268937769211955
6.93687707641196,0.27533786072539773
6.956810631229236,0.155285051910827
6.9767441860465125,0.1242753114218256
6.996677740863787,0.2232890703059865
7.016611295681064,0.3567051370708544
7.036544850498339,0.4972929926599966
7.056478405315615,0.6399913291671439
7.076411960132891,0.7832514923987179
7.096345514950166,0.9263888656152869
7.116279069767442,1.0690096667549882
7.136212624584719,1.2108400158171744
7.156146179401993,1.3516630731353354
7.17607973421927,1.4912923009328811
7.196013289036546,1.6295588193794834
7.21594684385382,1.7663049345678463
7.235880398671097,1.9013806221297769
7.2558139534883725,2.0346415310840626
7.275747508305648,2.16594781654399
7.295681063122924,2.2951634466912054
7.3156146179402,2.4221557923014734
7.335548172757475,2.5467953904005936
7.355481727574752,2.668955818301311
7.3754152823920265,2.7885136392393304
7.395348837209303,2.9053483952921875
7.415282392026579,3.019342631917034
7.435215946843854,3.13038194376641
7.45514950166113,3.2383550348001338
7.475083056478406,3.3431537878804765
7.495016611295681,3.44467334046717
7.514950166112956,3.5428121639895984
7.5348837209302335,3.6374721451302734
7.554817275747508,3.728558667710179
7.574750830564784,3.815980694188986
7.5946843853820605,3.899650846023606
7.614617940199336,3.97948548229663
7.634551495016611,4.055404776148961
7.6544850498338874,4.1273327886437325
7.674418604651163,4.195197539757688
7.694352159468439,4.258931076249851
7.714285714285715,4.318469536198948
7.73421926910299,4.373753210033468
7.754152823920266,4.424726597904939
7.774086378737542,4.47133846327596
7.794019933554818,4.51354188261258
7.813953488372093,4.551294291085271
7.83388704318937,4.5845575241955
7.853820598006645,4.613297855256344
7.8737541528239205,4.637486028664957
7.893687707641197,4.657097288914057
7.913621262458472,4.672111405297467
7.9335548172757475,4.682512692272436
7.953488372093024,4.68829002544867
7.9734219269103,4.689436853180641
7.9933554817275745,4.685951203746654
8.013289036544851,4.677835688104286
8.033222591362128,4.665097498218501
8.053156146179402,4.647748400964939
8.073089700996679,4.625804727617344
8.093023255813954,4.59928735893482
8.11295681063123,4.568221705871175
8.132890365448505,4.532637685935824
8.152823920265782,4.492569695243203
8.172757475083056,4.448056576295521
8.192691029900331,4.3991415815525645
8.21262458471761,4.345872332851692
8.232558139534884,4.288300776752049
8.252491694352159,4.226483135889253
8.272425249169435,4.160479856441019
8.292358803986712,4.090355551821203
8.312292358803987,4.016178942739619
8.332225913621263,3.938022793790127
8.352159468438538,3.8559638467597557
8.372093023255815,3.7700827508904315
8.392026578073091,3.6804639903744563
8.411960132890366,3.587195809428761
8.43189368770764,3.49037013537771
8.451827242524917,3.390082500286766
8.471760797342194,3.2864319618416777
8.491694352159469,3.1795210243768537
8.511627906976745,3.069455561246635
8.53156146179402,2.9563447401427463
8.551495016611296,2.8403009535469637
8.571428571428573,2.7214397573606703
8.591362126245848,2.5998798220143327
8.611295681063122,2.4757429022619633
8.6312292358804,2.34915383479193
8.651162790697676,2.22024057738809
8.67109634551495,2.089134310795949
8.691029900332227,1.9559696367415524
8.710963455149502,1.8208849265509655
8.730897009966778,1.6840229119541499
8.750830564784053,1.545531677973096
8.77076411960133,1.4055663493170032
8.790697674418604,1.26429202870989
8.81063122923588,1.1218891226796117
8.830564784053157,0.9785635353374122
8.850498338870432,0.8345676490616264
8.870431893687707,0.6902478869119193
8.890365448504983,0.5461676666542742
8.91029900332226,0.40349026147127987
8.930232558139535,0.2655561029905228
8.950166112956811,0.14777568597194138
8.970099667774086,0.13029454028489795
8.990033222591363,0.23660825745739683
9.00996677740864,0.3724662615977484
9.029900332225914,0.5147035886844294
9.049833887043189,0.6588458588618086
9.069767441860467,0.8034698304513518
9.089700996677742,0.9479284667978293
9.109634551495017,1.0918416485090097
9.129568106312293,1.2349409146567971
9.14950166112957,1.3770115023999392
9.169435215946844,1.517867426924484
9.189368770764121,1.6573396032644314
9.209302325581396,1.7952697300256955
9.22923588039867,1.9315069518399954
9.249169435215949,2.0659059592113684
9.269102990033224,2.198325875742736
9.289036544850498,2.328629597661777
9.308970099667773,2.456683403698148
9.328903654485051,2.582356732030358
9.348837209302326,2.7055220633782526
9.368770764119601,2.8260548730710737
9.388704318936878,2.943833628726097
9.408637873754152,3.058739818451102
9.428571428571429,3.1706579995896407
9.448504983388705,3.279475861256796
9.46843853820598,3.3850842960017964
9.488372093023255,3.4873774773130544
9.508305647840533,3.5862529406096217
9.528239202657808,3.6816116659986444
9.548172757475083,3.7733581615208243
9.56810631229236,3.861400545918827
9.588039867109636,3.9456506301875507
9.60797342192691,4.026023997328586
9.627906976744187,4.102440079851041
9.647840531561462,4.17482223465109
9.667774086378738,4.243097814970328
9.687707641196015,4.307198239185457
9.70764119601329,4.367059056222331
9.727574750830565,4.422620007419754
9.747508305647841,4.473825084693897
9.767441860465118,4.520622584875584
9.787375415282392,4.562965160109888
9.807308970099669,4.600809864222368
9.827242524916944,4.634118194968664
9.84717607973422,4.6628561320955875
9.867109634551497,4.686994171151128
9.887043189368772,4.706507352990242
9.906976744186046,4.72137528893082
9.926910299003321,4.731582181522313
9.9468438538206,4.737116840896361
9.966777408637874,4.737972696675556
9.986710963455149,4.7341478054234765
10.006644518272426,4.725644853625117
10.026578073089702,4.712471156193658
10.046511627906977,4.69463865050577
10.066445182724253,4.6721638859740064
10.086378737541528,4.6450680091718475
10.106312292358805,4.613376744533193
10.126245847176081,4.5771203706558845
10.146179401993356,4.53633369224575
10.16611295681063,4.491056007746189
10.186046511627907,4.441331072706784
10.205980066445184,4.387207058954225
10.225913621262459,4.328736509639643
10.245847176079735,4.265976290248864
10.26578073089701,4.198987535676248
10.285714285714286,4.127835593480139
10.305647840531563,4.052589963457859
10.325581395348838,3.973324233703499
10.345514950166113,3.8901160133423995
10.36544850498339,3.803046862175359
10.385382059800666,3.7122022175156046
10.40531561461794,3.617671318566336
10.425249169435217,3.519547128772177
10.445182724252492,3.4179262566920467
10.465116279069768,3.3129088760953302
10.485049833887045,3.204598646195346
10.50498338870432,3.093102633228897
10.524916943521594,2.978531235007416
10.544850498338871,2.8609981106620044
10.564784053156147,2.740620118674698
10.584717607973422,2.617517267577711
10.604651162790697,2.49181268565002
10.624584717607974,2.363632618942958
10.64451827242525,2.2331064716999935
10.664451827242525,2.1003669108850165
10.684385382059801,1.9655500692414962
10.704318936877076,1.828795903080624
10.724252491694353,1.690248799642245
10.74418604651163,1.550058600255366
10.764119601328904,1.4083823436082434
10.784053156146179,1.2653873153279647
10.803986710963457,1.1212566034427252
10.823920265780732,0.9761998005448608
