Frequency (Hz),Amplitude
0.0,1.5435473068431973
0.019867549668874173,1.5429798103896997
0.039735099337748346,1.5412783243512294
0.059602649006622516,1.5384458608106817
0.07947019867549669,1.534487446995777
0.09933774834437085,1.5294101360309371
0.11920529801324503,1.5232230222264092
0.13907284768211922,1.515937261144207
0.15894039735099338,1.5075660947536649
0.17880794701986755,1.4981248820653723
0.1986754966887417,1.4876311357126306
0.2185430463576159,1.4761045650337772
0.23841059602649006,1.4635671262978185
0.2582781456953642,1.4500430808091218
0.27814569536423844,1.4355590617245135
0.2980132450331126,1.420144150516504
0.31788079470198677,1.4038299641181986
0.33774834437086093,1.386650753884942
0.3576158940397351,1.3686435176012253
0.3774834437086093,1.3498481258414594
0.3973509933774834,1.3303074640503336
0.4172185430463576,1.3100675917294737
0.4370860927152318,1.2891779200832367
0.45695364238410596,1.2676914093620215
0.4768211920529801,1.24566478691396
0.49668874172185434,1.2231587865690106
0.5165562913907285,1.200238409377102
0.5364238410596026,1.176973204829055
0.5562913907284769,1.153437570413893
0.5761589403973509,1.1297110655954683
0.5960264900662252,1.1058787338939275
0.6158940397350993,1.0820314235837152
0.6357615894039735,1.058266093416086
0.6556291390728477,1.0346860846000672
0.6754966887417219,1.0114013339390706
0.695364238410596,0.9885284955315734
0.7152317880794702,0.9661909299935644
0.7350993377483444,0.9445185112242358
0.7549668874172186,0.923647192201391
0.7748344370860927,0.9037182645837484
0.7947019867549668,0.8848772440661318
0.8145695364238411,0.867272317139717
0.8344370860927152,0.851052298203593
0.8543046357615894,0.8363640717738887
0.8741721854304636,0.8233495347467217
0.8940397350993378,0.812142107986749
0.9139072847682119,0.8028629511748139
0.9337748344370861,0.7956170818321521
0.9536423841059603,0.7904896567382793
0.9735099337748344,0.7875427074829735
0.9933774834437087,0.7868126190044109
1.0132450331125828,0.7883085938255662
1.033112582781457,0.7920122577991795
1.0529801324503312,0.7978784482683552
1.0728476821192052,0.8058371030790339
1.0927152317880795,0.8157960614221006
1.1125827814569538,0.8276445133863585
1.1324503311258278,0.8412568037751157
1.1523178807947019,0.8564963062579168
1.1721854304635762,0.8732191270263286
1.1920529801324504,0.8912774592027057
1.2119205298013245,0.9105224766040451
1.2317880794701985,0.9308067173028869
1.2516556291390728,0.9519859572051762
1.271523178807947,0.973920609111071
1.2913907284768211,0.9964767040240042
1.3112582781456954,1.0195265211901958
1.3311258278145695,1.0429489345292327
1.3509933774834437,1.0666295387132256
1.370860927152318,1.090460610635596
1.390728476821192,1.1143409532145685
1.410596026490066,1.1381756596319543
1.4304635761589404,1.1618758279478576
1.4503311258278146,1.1853582489234733
1.4701986754966887,1.2085450839464773
1.4900662251655628,1.2313635451549039
1.5099337748344372,1.2537455860831024
1.5298013245033113,1.2756276082587676
1.5496688741721854,1.2969501870101792
1.5695364238410596,1.3176578181528804
1.5894039735099337,1.3376986860906508
1.609271523178808,1.3570244530793962
1.6291390728476822,1.3755900688804525
1.6490066225165563,1.3933535997021518
1.6688741721854303,1.4102760751432641
1.6887417218543048,1.4263213517677575
1.7086092715231789,1.4414559919273824
1.728476821192053,1.455649156483142
1.7483443708609272,1.4688725101429705
1.7682119205298013,1.4811001382182392
1.7880794701986755,1.4923084736976506
1.8079470198675496,1.5024762336379434
1.8278145695364238,1.5115843639721003
1.847682119205298,1.5196159919355745
1.8675496688741722,1.52655638540701
1.8874172185430464,1.5323929185519993
1.9072847682119205,1.5371150432457428
1.9271523178807946,1.5407142658335142
1.9470198675496688,1.543184128866427
1.9668874172185429,1.5445201975253386
1.9867549668874174,1.5447200505177754
2.0066225165562916,1.5437832753023693
2.0264900662251657,1.5417114675637007
2.0463576158940397,1.5385082349274666
2.066225165562914,1.5341792049731842
2.086092715231788,1.528732037669593
2.1059602649006623,1.5221764424270852
2.1258278145695364,1.514524200033126
2.1456953642384105,1.505789189811172
2.165562913907285,1.495987422421451
2.185430463576159,1.4851370788042642
2.205298013245033,1.4732585558531464
2.2251655629139075,1.4603745194965938
2.2450331125827816,1.4465099659631475
2.2649006622516556,1.4316922921045985
2.2847682119205297,1.4159513757549085
2.3046357615894038,1.3993196672057309
2.324503311258278,1.3818322929799867
2.3443708609271523,1.3635271731774337
2.364238410596027,1.3444451537429734
2.384105960264901,1.3246301550589525
2.403973509933775,1.3041293382719161
2.423841059602649,1.282993290711284
2.443708609271523,1.261276231614616
2.463576158940397,1.2390362391043048
2.4834437086092715,1.2163354989143231
2.5033112582781456,1.1932405746801316
2.52317880794702,1.1698226985990672
2.543046357615894,1.146158079842621
2.562913907284768,1.1223282261345326
2.5827814569536423,1.0984202712591586
2.6026490066225163,1.0745272977776228
2.622516556291391,1.050748639748356
2.642384105960265,1.0271901446394642
2.662251655629139,1.0039643668123062
2.6821192052980134,0.9811906570026344
2.7019867549668874,0.9589951033966347
2.7218543046357615,0.9375102707913305
2.741721854304636,0.9168746760019366
2.76158940397351,0.897231931778304
2.781456953642384,0.8787294903183954
2.801324503311258,0.8615169239009765
2.821192052980132,0.8457436973583632
2.8410596026490067,0.8315564178549941
2.8609271523178808,0.8190955931131001
2.8807947019867552,0.8084919885365691
2.9006622516556293,0.799862741443521
2.9205298013245033,0.7933074572042016
2.9403973509933774,0.7889045642114252
2.9602649006622515,0.7867082278787633
2.9801324503311255,0.7867461067816947
3.0,0.78901817246943
3.0198675496688745,0.7934967144821214
3.0397350993377485,0.8001275298716807
3.0596026490066226,0.8088321744312653
3.0794701986754967,0.8195110532322365
3.0993377483443707,0.8320470669996652
3.119205298013245,0.8463095142943362
3.1390728476821192,0.8621579731383553
3.1589403973509933,0.8794459380772911
3.1788079470198674,0.8980240553045226
3.198675496688742,0.9177428661403877
3.218543046357616,0.9384550282951889
3.23841059602649,0.960017029821302
3.2582781456953644,0.9822904412203245
3.2781456953642385,1.0051427682230856
3.2980132450331126,1.028447974092635
3.3178807947019866,1.0520867390655422
3.3377483443708607,1.0759465186194417
3.3576158940397347,1.0999214539239262
3.3774834437086096,1.1239121787353716
3.3973509933774837,1.1478255581856236
3.4172185430463577,1.1715743869832032
3.437086092715232,1.1950770677585096
3.456953642384106,1.2182572846945678
3.47682119205298,1.2410436831200131
3.4966887417218544,1.2633695622674748
3.5165562913907285,1.2851725857610945
3.5364238410596025,1.3063945124378133
3.556291390728477,1.3269809486866133
3.576158940397351,1.346881122488781
3.596026490066225,1.3660476786593079
3.615894039735099,1.3844364943457772
3.6357615894039736,1.4020065135722406
3.6556291390728477,1.4187195994736232
3.6754966887417218,1.4345404028137685
3.695364238410596,1.4494362453893486
3.7152317880794703,1.463377016972522
3.7350993377483444,1.4763350845218355
3.754966887417219,1.4882852124831345
3.774834437086093,1.4992044931026582
3.794701986754967,1.5090722857775218
3.814569536423841,1.517870164571459
3.834437086092715,1.5255818731234605
3.854304635761589,1.5321932862728398
3.8741721854304636,1.5376923778156835
3.8940397350993377,1.542069193894106
3.9139072847682117,1.5453158316021127
3.9337748344370858,1.5474264224697136
3.9536423841059607,1.5483971205619027
3.9735099337748347,1.548226095000374
3.993377483443709,1.5469135267859533
4.013245033112583,1.5444616098676893
4.033112582781457,1.540874556472333
4.052980132450331,1.536158606775882
4.072847682119205,1.5303220430676991
4.0927152317880795,1.523375208628569
4.112582781456953,1.5153305316172725
4.132450331125828,1.506202554336797
4.152317880794702,1.49600796833207
4.172185430463576,1.4847656558558804
4.19205298013245,1.4724967383298784
4.211920529801325,1.4592246325223803
4.231788079470199,1.444975115264622
4.251655629139073,1.4297763976312303
4.271523178807947,1.413659209617265
4.291390728476821,1.3966568964512376
4.311258278145695,1.3788055277869276
4.33112582781457,1.360144021110737
4.3509933774834435,1.3407142807775447
4.370860927152318,1.3205613541343648
4.390728476821192,1.299733606190978
4.410596026490066,1.278282914227347
4.43046357615894,1.2562648835578594
4.450331125827815,1.2337390853611594
4.470198675496689,1.2107693169776124
4.490066225165563,1.18742388430399
4.509933774834438,1.1637759047881926
4.529801324503311,1.1399036279365933
4.549668874172186,1.1158907680599923
4.569536423841059,1.0918268410506027
4.589403973509934,1.0678074931358756
4.6092715231788075,1.0439348046346597
4.629139072847682,1.0203175456159481
4.649006622516556,0.9970713529818082
4.66887417218543,0.9743187899643937
4.688741721854305,0.952189239699749
4.708609271523179,0.9308185751537343
4.728476821192054,0.910348539489259
4.748344370860927,0.8909257658844099
4.768211920529802,0.8727003664322273
4.788079470198675,0.8558240292231368
4.80794701986755,0.8404475843182506
4.827814569536423,0.8267180356910967
4.847682119205298,0.8147751081289633
4.867549668874172,0.80474742309515
4.887417218543046,0.7967484888364064
4.9072847682119205,0.790872756148561
4.927152317880794,0.7871920375212736
4.947019867549669,0.7857525992186438
4.966887417218543,0.7865732031553011
4.986754966887418,0.7896442971172546
5.006622516556291,0.7949284380347782
5.026490066225166,0.8023619033792392
5.04635761589404,0.811857324575116
5.066225165562914,0.8233070854065246
5.086092715231788,0.8365871811664147
5.105960264900662,0.8515612330363097
5.125827814569536,0.8680843892095768
5.14569536423841,0.8860069058403004
5.1655629139072845,0.9051772719330162
5.185430463576159,0.9254448101314736
5.205298013245033,0.9466617417377119
5.225165562913908,0.9686847454912866
5.245033112582782,0.9913760655901281
5.264900662251656,1.0146042373331352
5.28476821192053,1.0382445017904154
5.304635761589404,1.062178977309541
5.324503311258278,1.08629664823103
5.344370860927152,1.1104932220320438
5.364238410596027,1.1346708966914119
5.3841059602649,1.1587380712552722
5.403973509933775,1.1826090248392915
5.4238410596026485,1.2062035827999895
5.443708609271523,1.2294467835322067
5.463576158940397,1.2522685551920691
5.483443708609272,1.274603408448799
5.503311258278146,1.2963901489697833
5.52317880794702,1.317571611583673
5.543046357615895,1.338094416808932
5.562913907284768,1.3579087495629039
5.582781456953643,1.3769681592849827
5.602649006622516,1.3952293803413574
5.622516556291391,1.4126521713692417
5.642384105960264,1.429199172120844
5.662251655629139,1.4448357763478035
5.682119205298013,1.4595300192999177
5.701986754966887,1.4732524784798915
5.7218543046357615,1.4859761863845016
5.741721854304636,1.4976765540635135
5.7615894039735105,1.5083313044333664
5.781456953642384,1.517920414389679
5.801324503311259,1.5264260648670325
5.821192052980132,1.5338325980960128
5.841059602649007,1.5401264814035402
5.860927152317881,1.5452962769941914
5.880794701986755,1.549332617236803
5.900662251655629,1.5522281850625699
5.920529801324503,1.5539776991589154
5.940397350993377,1.5545779037179654
5.960264900662251,1.5540275625702349
5.980132450331126,1.5523274576042925
6.0,1.5494803914418183
6.0198675496688745,1.545491194406378
6.039735099337749,1.5403667358928799
6.059602649006623,1.5341159403157958
6.079470198675497,1.5267498078864261
6.099337748344371,1.51828144054553
6.119205298013245,1.5087260734569639
6.139072847682119,1.498101112552053
6.158940397350993,1.4864261787030777
6.178807947019867,1.4737231591991038
6.198675496688741,1.460016267296829
6.218543046357616,1.4453321107247479
6.23841059602649,1.4296997701286513
6.258278145695365,1.4131508885591202
6.2781456953642385,1.3957197732147928
6.298013245033113,1.377443510763911
6.317880794701987,1.3583620976652118
6.337748344370861,1.338518586987881
6.357615894039735,1.3179592532756557
6.377483443708609,1.2967337769945064
6.397350993377484,1.2748954500200789
6.417218543046357,1.2525014034270199
6.437086092715232,1.2296128584907358
6.456953642384105,1.206295401243308
6.47682119205298,1.1826192800613278
6.496688741721854,1.1586597245056869
6.516556291390729,1.1344972818604795
6.5364238410596025,1.110218165384405
6.556291390728477,1.0859146050270345
6.5761589403973515,1.0616851870953607
6.596026490066225,1.0376351639119339
6.6158940397351,1.013876707756714
6.635761589403973,0.9905290752997191
6.655629139072848,0.9677186394669078
6.675496688741721,0.9455787356921119
6.695364238410596,0.9242492596950349
6.715231788079469,0.9038759457916671
6.735099337748344,0.8846092505102864
6.754966887417219,0.866602768911002
6.774834437086093,0.8500111239679374
6.794701986754967,0.8349872961268001
6.814569536423841,0.8216794031378548
6.8344370860927155,0.8102269995386204
6.854304635761589,0.8007570368827184
6.874172185430464,0.7933797012006492
6.894039735099337,0.7881844096890982
6.913907284768212,0.785236288046075
6.933774834437086,0.7845734484086597
6.95364238410596,0.7862053372892289
6.973509933774834,0.7901123258529561
6.993377483443709,0.7962465859718577
7.013245033112583,0.804534158338117
7.033112582781457,0.8148779995333697
7.052980132450331,0.82716171419408
7.072847682119205,0.8412536465325641
7.0927152317880795,0.8570110206731804
7.112582781456954,0.8742838702721467
7.132450331125828,0.8929185688191498
7.152317880794702,0.9127608472905504
7.172185430463576,0.9336582535582537
7.19205298013245,0.9554620612955307
7.211920529801324,0.978028672842311
7.231788079470198,1.0012205817204227
7.251655629139073,1.0249069691811827
7.271523178807947,1.0489640088704508
7.291390728476822,1.0732749477325556
7.311258278145695,1.097730022328245
7.33112582781457,1.1222262597558115
7.3509933774834435,1.1466672025951432
7.370860927152318,1.1709625884590014
7.390728476821192,1.1950280071614536
7.410596026490066,1.218784552274812
7.430463576158941,1.2421584788692717
7.450331125827814,1.2650808753654952
7.470198675496689,1.2874873545021324
7.490066225165562,1.3093177662538622
7.509933774834438,1.3305159339715042
7.52980132450331,1.3510294139177093
7.549668874172186,1.3708092776276575
7.569536423841059,1.389809916043789
7.589403973509934,1.4079888640853708
7.6092715231788075,1.425306644165112
7.629139072847682,1.4417266271125504
7.649006622516557,1.4572149089789679
7.66887417218543,1.4717402022572672
7.6887417218543055,1.485273740136566
7.708609271523178,1.4977891925137437
7.728476821192054,1.5092625925946384
7.748344370860927,1.5196722730300805
7.768211920529802,1.528998810643524
7.788079470198675,1.537224978914884
7.80794701986755,1.5443357074882236
7.827814569536423,1.5503180480688799
7.847682119205298,1.555161146167585
7.8675496688741715,1.5588562182364323
7.887417218543046,1.5613965338241051
7.907284768211921,1.5627774024556071
7.927152317880795,1.5629961650173758
7.9470198675496695,1.562052189500541
7.966887417218543,1.5599468710263786
7.986754966887418,1.5566836361474357
8.006622516556291,1.5522679514882411
8.026490066225167,1.5467073368600526
8.046357615894038,1.5400113830570694
8.066225165562914,1.5321917746165843
8.086092715231787,1.5232623179048177
8.105960264900663,1.513238974973026
8.125827814569536,1.5021399037171914
8.14569536423841,1.489985504968244
8.165562913907285,1.47679847724033
8.185430463576159,1.4626038799707808
8.205298013245034,1.4474292061984113
8.225165562913906,1.431304465744238
8.245033112582782,1.4142622800803948
8.264900662251655,1.3963379901945263
8.28476821192053,1.3775697788751096
8.304635761589404,1.3579988089496362
8.324503311258278,1.33766937909281
8.344370860927151,1.3166290988712381
8.364238410596027,1.2949290846837926
8.3841059602649,1.2726241781644183
8.403973509933774,1.2497731883990133
8.42384105960265,1.2264391589181642
8.443708609271523,1.202689659795583
8.463576158940398,1.1785971042212988
8.483443708609272,1.154239087517331
8.503311258278146,1.129698744585974
8.52317880794702,1.105065119062803
8.543046357615895,1.0804335338021809
8.562913907284768,1.055905947554576
8.582781456953642,1.0315912766154447
8.602649006622515,1.0076056527044654
8.62251655629139,0.9840725793596748
8.642384105960264,0.9611229389187813
8.66225165562914,0.938894791281846
8.682119205298013,0.9175328952084036
8.701986754966887,0.8971878746982741
8.721854304635762,0.8780149496605614
8.741721854304636,0.8601721550058095
8.76158940397351,0.8438179894092622
8.781456953642383,0.8291084679613331
8.801324503311259,0.8161936039610962
8.821192052980132,0.8052134133511082
8.841059602649008,0.7962936151485495
8.86092715231788,0.789541281481316
8.880794701986755,0.785040755372765
8.90066225165563,0.7828501852491613
8.920529801324504,0.7829990075328891
8.940397350993377,0.785486636896638
8.960264900662251,0.7902825050115532
8.980132450331126,0.7973274429651693
9.0,0.8065362578500782
9.019867549668875,0.8178012379287017
9.039735099337747,0.8309962525314691
9.059602649006623,0.8459810987310874
9.079470198675496,0.862605780355173
9.099337748344372,0.8807144709228343
9.119205298013245,0.9001489926380365
9.139072847682119,0.9207517228120656
9.158940397350994,0.9423679061966163
9.178807947019868,0.9648474014655125
9.198675496688743,0.9880459218788208
9.218543046357615,1.011825846351118
9.23841059602649,1.0360566814380876
9.258278145695364,1.0606152510333686
9.27814569536424,1.0853856821910675
9.298013245033111,1.1102592450182762
9.317880794701987,1.1351340937620795
9.33774834437086,1.1599149461061165
9.357615894039736,1.1845127288382256
9.37748344370861,1.2088442106467405
9.397350993377483,1.2328316368305834
9.417218543046358,1.2564023760296748
9.437086092715232,1.2794885855115519
9.456953642384107,1.302026898890151
9.47682119205298,1.3239581382193282
9.496688741721854,1.3452270510357192
9.516556291390728,1.365782071988877
9.536423841059603,1.3855751080818108
9.556291390728477,1.4045613461673514
9.57615894039735,1.4226990811380884
9.596026490066224,1.4399495631607035
9.6158940397351,1.4562768623008562
9.635761589403973,1.471647748935657
9.655629139072847,1.486031588436401
9.675496688741722,1.499400248710847
9.695364238410596,1.511728019311436
9.715231788079471,1.5229915409371129
9.735099337748345,1.533169744276744
9.754966887417218,1.5422437972591865
9.774834437086092,1.5501970598867483
9.794701986754967,1.557015045934659
9.814569536423841,1.5626853908988232
9.834437086092716,1.5671978256676542
9.854304635761588,1.570544155482006
9.874172185430464,1.5727182438304868
9.894039735099337,1.5737160010063493
9.913907284768213,1.5735353771283502
9.933774834437086,1.572176359501162
9.95364238410596,1.5696409742630408
9.973509933774835,1.5659332923399536
9.993377483443709,1.5610594397971636
10.013245033112582,1.5550276127525244
10.033112582781456,1.5478480970912452
10.052980132450331,1.5395332933007344
10.072847682119205,1.5300977468268906
10.09271523178808,1.5195581844415096
10.112582781456952,1.507933557204189
10.132450331125828,1.49524509070278
10.152317880794701,1.4815163433642304
10.172185430463577,1.466773273742601
10.192052980132452,1.4510443178135812
10.211920529801324,1.4343604774333836
10.2317880794702,1.4167554212532143
10.251655629139073,1.3982655995152118
10.271523178807948,1.378930374287041
10.29139072847682,1.3587921668120795
10.311258278145695,1.3378966237500427
10.331125827814569,1.3162928041415565
10.350993377483444,1.294033388928126
10.370860927152318,1.2711749147637044
10.390728476821192,1.2477780336231683
10.410596026490065,1.2239077992883538
10.43046357615894,1.1996339810981536
10.450331125827816,1.1750314042853391
10.470198675496688,1.1501803146640026
10.490066225165563,1.1251667632210884
10.509933774834437,1.1000830031163158
10.529801324503312,1.0750278874936978
10.549668874172186,1.0501072511291487
10.56953642384106,1.0254342520720596
10.589403973509933,1.0011296409423303
10.609271523178808,0.9773219154245619
10.629139072847682,0.9541473060380026
10.649006622516556,0.9317495271702256
10.66887417218543,0.9102792159972863
10.688741721854305,0.8898929734577778
10.70860927152318,0.8707519190447498
