Frequency (Hz),Amplitude
0.0,1.3605208852586137
0.019867549668874173,1.3598808882115434
0.039735099337748346,1.35796160758171
0.059602649006622516,1.3547651750527987
0.07947019867549669,1.350295143946226
0.09933774834437085,1.3445564900532423
0.11920529801324503,1.337555612920353
0.13907284768211922,1.3293003377130257
0.15894039735099338,1.3197999178252666
0.17880794701986755,1.3090650384506415
0.1986754966887417,1.2971078213860332
0.2185430463576159,1.2839418314038635
0.23841059602649006,1.2695820846060082
0.2582781456953642,1.2540450592647325
0.27814569536423844,1.2373487097679479
0.2980132450331126,1.2195124844232226
0.31788079470198677,1.2005573480430114
0.33774834437086093,1.180505810442544
0.3576158940397351,1.1593819622423713
0.3774834437086093,1.1372115196945838
0.3973509933774834,1.1140218806647812
0.4172185430463576,1.0898421944272516
0.4370860927152318,1.0647034486020532
0.45695364238410596,1.0386385774267382
0.4768211920529801,1.0116825966733305
0.49668874172185434,0.983872771978071
0.5165562913907285,0.9552488292598127
0.5364238410596026,0.9258532184210093
0.5562913907284769,0.8957314448661806
0.5761589403973509,0.8649324878334845
0.5960264900662252,0.8335093305247592
0.6158940397350993,0.8015196351040894
0.6357615894039735,0.7690266065942714
0.6556291390728477,0.7361001046018452
0.6754966887417219,0.7028180820795303
0.695364238410596,0.66926845786452
0.7152317880794702,0.6355515668187381
0.7350993377483444,0.6017833805432932
0.7549668874172186,0.5680997546992577
0.7748344370860927,0.5346620348912668
0.7947019867549668,0.5016644324917078
0.8145695364238411,0.4693436349863506
0.8344370860927152,0.43799106750039707
0.8543046357615894,0.40796790664011595
0.8741721854304636,0.3797220348839072
0.8940397350993378,0.35380405724333247
0.9139072847682119,0.3308756103935304
0.9337748344370861,0.3116974329204805
0.9536423841059603,0.297079634973262
0.9735099337748344,0.28778016051684624
0.9933774834437087,0.28436020638704296
1.0132450331125828,0.2870446911959315
1.033112582781457,0.2956584500242192
1.0529801324503312,0.30967651220192727
1.0728476821192052,0.3283579241877896
1.0927152317880795,0.3508931175099989
1.1125827814569538,0.3765120136704618
1.1324503311258278,0.40453972147583855
1.1523178807947019,0.4344121996138386
1.1721854304635762,0.46566968725097346
1.1920529801324504,0.49794120005427306
1.2119205298013245,0.5309274939192322
1.2317880794701985,0.5643857492000148
1.2516556291390728,0.5981169693461703
1.271523178807947,0.6319560660632682
1.2913907284768211,0.6657642350682264
1.3112582781456954,0.6994231566274014
1.3311258278145695,0.7328306008835552
1.3509933774834437,0.7658970962372309
1.370860927152318,0.7985433960929055
1.390728476821192,0.8306985440408912
1.410596026490066,0.8622983883142894
1.4304635761589404,0.8932844347896312
1.4503311258278146,0.9236029563689706
1.4701986754966887,0.9532042976397966
1.4900662251655628,0.9820423291855056
1.5099337748344372,1.0100740172992968
1.5298013245033113,1.0372590832458624
1.5496688741721854,1.063559732428643
1.5695364238410596,1.088940438444778
1.5894039735099337,1.1133677704711693
1.609271523178808,1.136810255031066
1.6291390728476822,1.159238265165335
1.6490066225165563,1.180623931537756
1.6688741721854303,1.2009410711586914
1.6887417218543048,1.2201651303029504
1.7086092715231789,1.2382731388900678
1.728476821192053,1.2552436741364996
1.7483443708609272,1.271056831714604
1.7682119205298013,1.2856942029900638
1.7880794701986755,1.2991388571769833
1.8079470198675496,1.3113753274647348
1.8278145695364238,1.3223896003436106
1.847682119205298,1.3321691074963355
1.8675496688741722,1.3407027197378958
1.8874172185430464,1.3479807425804666
1.9072847682119205,1.3539949130791138
1.9271523178807946,1.3587383976804863
1.9470198675496688,1.3622057908533383
1.9668874172185429,1.3643931143286436
1.9867549668874174,1.3652978168208165
2.0066225165562916,1.3649187741403888
2.0264900662251657,1.3632562896450535
2.0463576158940397,1.360312095010498
2.066225165562914,1.3560893513365029
2.086092715231788,1.3505926506384052
2.1059602649006623,1.343828017809907
2.1258278145695364,1.335802913182313
2.1456953642384105,1.3265262358480518
2.165562913907285,1.3160083279646946
2.185430463576159,1.3042609803116987
2.205298013245033,1.291297439436999
2.2251655629139075,1.277132416808063
2.2450331125827816,1.2617821004746423
2.2649006622516556,1.245264169862381
2.2847682119205297,1.2275978144535038
2.3046357615894038,1.2088037572788426
2.324503311258278,1.1889042843537923
2.3443708609271523,1.1679232814503915
2.364238410596027,1.1458862799230496
2.384105960264901,1.1228205137159597
2.403973509933775,1.0987549902013012
2.423841059602649,1.07372057816214
2.443708609271523,1.0477501170884114
2.463576158940397,1.0208785530575002
2.4834437086092715,0.9931431079059992
2.5033112582781456,0.9645834902752288
2.52317880794702,0.9352421595822626
2.543046357615894,0.9051646572368284
2.562913907284768,0.8744000237764078
2.5827814569536423,0.8430013264189389
2.6026490066225163,0.811026329371811
2.622516556291391,0.778538349825857
2.642384105960265,0.7456073569053866
2.662251655629139,0.712311390278075
2.6821192052980134,0.6787384013822112
2.7019867549668874,0.6449886553989588
2.7218543046357615,0.6111778784013314
2.741721854304636,0.5774413930563788
2.76158940397351,0.5439395564963877
2.781456953642384,0.5108648862514596
2.801324503311258,0.4784513062365678
2.821192052980132,0.4469858950662568
2.8410596026490067,0.4168232209821723
2.8609271523178808,0.3884015031037776
2.8807947019867552,0.362257948760937
2.9006622516556293,0.3390370788415058
2.9205298013245033,0.31948059770080295
2.9403973509933774,0.3043825918429376
2.9602649006622515,0.2944963567764555
2.9801324503311255,0.2903986563534721
3.0,0.29235295871803485
3.0198675496688745,0.30023740237711455
3.0397350993377485,0.3135793441411074
3.0596026490066226,0.3316757997097687
3.0794701986754967,0.3537362535620907
3.0993377483443707,0.37899380544432926
3.119205298013245,0.40676676956556695
3.1390728476821192,0.4364796049275406
3.1589403973509933,0.46765981096781284
3.1788079470198674,0.49992426877198126
3.198675496688742,0.5329629838343104
3.218543046357616,0.566523962220342
3.23841059602649,0.6004005232368377
3.2582781456953644,0.6344211920340248
3.2781456953642385,0.6684418609848375
3.2980132450331126,0.7023397910870853
3.3178807947019866,0.736009046371402
3.3377483443708607,0.7693570213924341
3.3576158940397347,0.8023017943364387
3.3774834437086096,0.8347701015955405
3.3973509933774837,0.8666957803781483
3.4172185430463577,0.8980185648445709
3.437086092715232,0.9286831504627111
3.456953642384106,0.9586384629508592
3.47682119205298,0.9878370841812808
3.4966887417218544,1.0162347992331795
3.5165562913907285,1.0437902375202925
3.5364238410596025,1.0704645874027579
3.556291390728477,1.096221368527215
3.576158940397351,1.121026249762348
3.596026490066225,1.1448469033287905
3.615894039735099,1.1676528877933534
3.6357615894039736,1.189415554177733
3.6556291390728477,1.2101079706449838
3.6754966887417218,1.229704862163487
3.695364238410596,1.2481825622761762
3.7152317880794703,1.2655189746716327
3.7350993377483444,1.2816935427010114
3.754966887417219,1.2966872253387007
3.774834437086093,1.3104824783664466
3.794701986754967,1.323063239786027
3.814569536423841,1.3344149186477707
3.834437086092715,1.3445243866295356
3.854304635761589,1.3533799718215567
3.8741721854304636,1.3609714542722575
3.8940397350993377,1.367290062932606
3.9139072847682117,1.3723284737067658
3.9337748344370858,1.3760808083758258
3.9536423841059607,1.3785426342132858
3.9735099337748347,1.3797109641561796
3.993377483443709,1.379584257436958
4.013245033112583,1.3781624206190912
4.033112582781457,1.3754468090156886
4.052980132450331,1.371440228505704
4.072847682119205,1.3661469377986704
4.0927152317880795,1.3595726512358703
4.112582781456953,1.3517245422569322
4.132450331125828,1.3426112477046084
4.152317880794702,1.332242873191214
4.172185430463576,1.320630999807556
4.19205298013245,1.307788692522602
4.211920529801325,1.2937305107017782
4.231788079470199,1.27847252126729
4.251655629139073,1.2620323151387258
4.271523178807947,1.2444290277331205
4.291390728476821,1.2256833644755623
4.311258278145695,1.205817632484618
4.33112582781457,1.1848557798619068
4.3509933774834435,1.162823444346508
4.370860927152318,1.1397480135123774
4.390728476821192,1.1156586992154707
4.410596026490066,1.0905866296700166
4.43046357615894,1.0645649633958516
4.450331125827815,1.0376290303889442
4.470198675496689,1.0098165073069285
4.490066225165563,0.98116763533731
4.509933774834438,0.9517254918755013
4.529801324503311,0.9215363303822961
4.549668874172186,0.8906500070876108
4.569536423841059,0.8591205189314585
4.589403973509934,0.8270066847892376
4.6092715231788075,0.7943730123030797
4.629139072847682,0.7612908064503298
4.649006622516556,0.7278395945263514
4.66887417218543,0.6941089670106155
4.688741721854305,0.6602009665715513
4.708609271523179,0.6262331999252421
4.728476821192054,0.5923429001106165
4.748344370860927,0.5586922275623405
4.768211920529802,0.5254751567266723
4.788079470198675,0.4929263221986206
4.80794701986755,0.46133212747994756
4.827814569536423,0.4310441099077825
4.847682119205298,0.40249374264335996
4.867549668874172,0.3762061157502795
4.887417218543046,0.35280679684287913
4.9072847682119205,0.33301165500277646
4.927152317880794,0.3175854874009596
4.947019867549669,0.3072575732403046
4.966887417218543,0.30259869515014426
4.986754966887418,0.3038944006415781
5.006622516556291,0.311071501324603
5.026490066225166,0.3237182082222053
5.04635761589404,0.34118628090427033
5.066225165562914,0.3627222541521616
5.086092715231788,0.3875767486543271
5.105960264900662,0.4150703844929977
5.125827814569536,0.44462056549246876
5.14569536423841,0.47574319111245517
5.1655629139072845,0.5080421343530563
5.185430463576159,0.541194716082975
5.205298013245033,0.5749373847367157
5.225165562913908,0.6090532991990247
5.245033112582782,0.6433622179070488
5.264900662251656,0.6777125341547019
5.28476821192053,0.7119751095816879
5.304635761589404,0.7460385385181743
5.324503311258278,0.779805520626522
5.344370860927152,0.8131900802886219
5.364238410596027,0.8461154290168725
5.3841059602649,0.8785123155230121
5.403973509933775,0.9103177462030119
5.4238410596026485,0.9414739879453617
5.443708609271523,0.9719277871001581
5.463576158940397,1.0016297548151125
5.483443708609272,1.030533881126916
5.503311258278146,1.058597149265477
5.52317880794702,1.0857792283959609
5.543046357615895,1.1120422280918725
5.562913907284768,1.1373505016455054
5.582781456953643,1.1616704882058562
5.602649006622516,1.1849705859265196
5.622516556291391,1.2072210499829596
5.642384105960264,1.2283939106077748
5.662251655629139,1.248462907290629
5.682119205298013,1.267403436065295
5.701986754966887,1.2851925074143966
5.7218543046357615,1.301808712800222
5.741721854304636,1.3172321982092705
5.7615894039735105,1.3314446433995333
5.781456953642384,1.3444292457816662
5.801324503311259,1.356170708060095
5.821192052980132,1.3666552289185911
5.841059602649007,1.375870496164373
5.860927152317881,1.3838056818517877
5.880794701986755,1.3904514389954699
5.900662251655629,1.3957998995579586
5.920529801324503,1.3998446734605026
5.940397350993377,1.4025808484211624
5.960264900662251,1.4040049904733458
5.980132450331126,1.4041151450615799
6.0,1.4029108386525395
6.0198675496688745,1.4003930808377656
6.039735099337749,1.3965643669427719
6.059602649006623,1.391428681195548
6.079470198675497,1.384991500547636
6.099337748344371,1.3772597992841549
6.119205298013245,1.3682420546060852
6.139072847682119,1.3579482534221439
6.158940397350993,1.3463899006480136
6.178807947019867,1.3335800293826532
6.198675496688741,1.3195332134153783
6.218543046357616,1.304265582618215
6.23841059602649,1.2877948418993146
6.258278145695365,1.2701402945412636
6.2781456953642385,1.2513228709285698
6.298013245033113,1.2313651638921643
6.317880794701987,1.210291472175216
6.337748344370861,1.1881278538704199
6.357615894039735,1.1649021921124443
6.377483443708609,1.1406442758570048
6.397350993377484,1.11538589927287
6.417218543046357,1.089160984160689
6.437086092715232,1.0620057309506281
6.456953642384105,1.0339588053003625
6.47682119205298,1.0050615692207898
6.496688741721854,0.9753583681421587
6.516556291390729,0.9448968885910547
6.5364238410596025,0.9137286054373096
6.556291390728477,0.8819093433399532
6.5761589403973515,0.8494999845408525
6.596026490066225,0.8165673651453297
6.6158940397351,0.7831854153029557
6.635761589403973,0.7494366162812757
6.655629139072848,0.7154138705305688
6.675496688741721,0.6812229107421375
6.695364238410596,0.6469854115320897
6.715231788079469,0.6128430122964235
6.735099337748344,0.5789625079059336
6.754966887417219,0.5455425027437859
6.774834437086093,0.512821822726426
6.794701986754967,0.48108987362365946
6.814569536423841,0.450698792740939
6.8344370860927155,0.42207643663535815
6.854304635761589,0.39573764380954257
6.874172185430464,0.37228848840748485
6.894039735099337,0.35241458665665437
6.913907284768212,0.33684171884020736
6.933774834437086,0.32625962468686776
6.95364238410596,0.32121359868849847
6.973509933774834,0.32199263824116653
6.993377483443709,0.32856080102534685
7.013245033112583,0.34056683820515565
7.033112582781457,0.3574268330636333
7.052980132450331,0.3784388474941339
7.072847682119205,0.40288523853532343
7.0927152317880795,0.43009989762657114
7.112582781456954,0.4595001583562209
7.132450331125828,0.49059388873969834
7.152317880794702,0.5229730754561629
7.172185430463576,0.5563019295018533
7.19205298013245,0.5903040436342766
7.211920529801324,0.6247506950573116
7.231788079470198,0.6594510077105256
7.251655629139073,0.6942440202012248
7.271523178807947,0.7289924351313898
7.291390728476822,0.763577751895902
7.311258278145695,0.7978964969166877
7.33112582781457,0.8318573074995257
7.3509933774834435,0.8653786730783122
7.370860927152318,0.8983871806344859
7.390728476821192,0.930816146603681
7.410596026490066,0.962604545602615
7.430463576158941,0.9936961678734834
7.450331125827814,1.024038953719564
7.470198675496689,1.0535844655611684
7.490066225165562,1.0822874675419605
7.509933774834438,1.1101055896192202
7.52980132450331,1.1369990583573535
7.549668874172186,1.1629304806465763
7.569536423841059,1.1878646696124548
7.589403973509934,1.211768504307361
7.6092715231788075,1.234610816560755
7.629139072847682,1.2563622997436537
7.649006622516557,1.2769954352722714
7.66887417218543,1.2964844335110706
7.6887417218543055,1.3148051863900856
7.708609271523178,1.3319352295686826
7.728476821192054,1.3478537123877559
7.748344370860927,1.362541374179896
7.768211920529802,1.3759805257696196
7.788079470198675,1.3881550352083158
7.80794701986755,1.3990503169606714
7.827814569536423,1.4086533239012444
7.847682119205298,1.416952541596136
7.8675496688741715,1.4239379844421656
7.887417218543046,1.4296011933178918
7.907284768211921,1.4339352344707386
7.927152317880795,1.4369346994250989
7.9470198675496695,1.4385957057498058
7.966887417218543,1.43891589857175
7.986754966887418,1.4378944527668354
8.006622516556291,1.4355320758023467
8.026490066225167,1.431831011246061
8.046357615894038,1.4267950429998508
8.066225165562914,1.4204295003591692
8.086092715231787,1.412741264046994
8.105960264900663,1.4037387734223883
8.125827814569536,1.3934320351219538
8.14569536423841,1.3818326334589575
8.165562913907285,1.3689537429825283
8.185430463576159,1.3548101436903344
8.205298013245034,1.3394182394973273
8.225165562913906,1.3227960806938972
8.245033112582782,1.304963391285948
8.264900662251655,1.2859416023035142
8.28476821192053,1.265753892403307
8.304635761589404,1.2444252373864444
8.324503311258278,1.2219824706198235
8.344370860927151,1.1984543568100852
8.364238410596027,1.1738716821572919
8.3841059602649,1.1482673646469095
8.403973509933774,1.1216765891678036
8.42384105960265,1.094136973330791
8.443708609271523,1.0656887713846042
8.463576158940398,1.0363751255896334
8.483443708609272,1.0062423769522355
8.503311258278146,0.975340450528665
8.52317880794702,0.9437233348227664
8.543046357615895,0.911449680448277
8.562913907284768,0.8785835506276312
8.582781456953642,0.8451953657982307
8.602649006622515,0.8113630972717175
8.62251655629139,0.777173781344128
8.642384105960264,0.742725446335091
8.66225165562914,0.7081295714215666
8.682119205298013,0.6735142278010894
8.701986754966887,0.6390280877828228
8.721854304635762,0.6048455197111807
8.741721854304636,0.5711730010883335
8.76158940397351,0.5382570462470873
8.781456953642383,0.5063936938040765
8.801324503311259,0.47593921568086467
8.821192052980132,0.4473209053843618
8.841059602649008,0.4210453363447819
8.86092715231788,0.3976991979620971
8.880794701986755,0.3779350761405551
8.90066225165563,0.3624329931088974
8.920529801324504,0.3518316470231841
8.940397350993377,0.3466348259141925
8.960264900662251,0.3471167783925345
8.980132450331126,0.3532630576023793
9.0,0.36477455913812107
9.019867549668875,0.3811326656001166
9.039735099337747,0.40169531530041713
9.059602649006623,0.42578820298322184
9.079470198675496,0.4527696861469358
9.099337748344372,0.4820658317457593
9.119205298013245,0.5131824043773221
9.139072847682119,0.5457029071415018
9.158940397350994,0.5792799495540574
9.178807947019868,0.6136244952162804
9.198675496688743,0.648495368760634
9.218543046357615,0.6836900355637134
9.23841059602649,0.7190369306604288
9.258278145695364,0.7543892676135004
9.27814569536424,0.7896201257741512
9.298013245033111,0.8246185865333645
9.317880794701987,0.8592867064184098
9.33774834437086,0.8935371475175411
9.357615894039736,0.9272913201132765
9.37748344370861,0.9604779231265136
9.397350993377483,0.9930317934333404
9.417218543046358,1.024892995399623
9.437086092715232,1.0560060977869983
9.456953642384107,1.0863195973555688
9.47682119205298,1.1157854578021238
9.496688741721854,1.144358739781393
9.516556291390728,1.1719973031839326
9.536423841059603,1.198661566993132
9.556291390728477,1.2243143152249003
9.57615894039735,1.2489205399018197
9.596026490066224,1.2724473139052697
9.6158940397351,1.2948636880175328
9.635761589403973,1.316140607611267
9.655629139072847,1.3362508453414925
9.675496688741722,1.3551689469022805
9.695364238410596,1.3728711874706163
9.715231788079471,1.3893355369053972
9.735099337748345,1.4045416321265516
9.754966887417218,1.4184707553863114
9.774834437086092,1.431105817377384
9.794701986754967,1.44243134431203
9.814569536423841,1.4524334682620463
9.834437086092716,1.4610999201777222
9.854304635761588,1.46842002511194
9.874172185430464,1.4743846992658118
9.894039735099337,1.4789864485499065
9.913907284768213,1.4822193684224483
9.933774834437086,1.484079144825404
9.95364238410596,1.4845630560929295
9.973509933774835,1.4836699757567369
9.993377483443709,1.4814003762199897
10.013245033112582,1.4777563333181798
10.033112582781456,1.4727415318321526
10.052980132450331,1.4663612720675567
10.072847682119205,1.4586224776674388
10.09271523178808,1.4495337048822146
10.112582781456952,1.4391051535860315
10.132450331125828,1.4273486804024262
10.152317880794701,1.4142778143881352
10.172185430463577,1.3999077758249787
10.192052980132452,1.3842554987901503
10.211920529801324,1.3673396583195256
10.2317880794702,1.349180703153278
10.251655629139073,1.3298008952661937
10.271523178807948,1.309224357645795
10.29139072847682,1.2874771321032366
10.311258278145695,1.2645872493008197
10.331125827814569,1.2405848136766902
10.350993377483444,1.2155021065693634
10.370860927152318,1.1893737116272027
10.390728476821192,1.1622366675762283
10.410596026490065,1.1341306546745782
10.43046357615894,1.1050982227803863
10.450331125827816,1.0751850710054407
10.470198675496688,1.0444403915523341
10.490066225165563,1.0129172937135094
10.509933774834437,0.9806733283712009
10.529801324503312,0.9477711389681753
10.549668874172186,0.914279272183899
10.56953642384106,0.8802731908920229
10.589403973509933,0.8458365439038987
10.609271523178808,0.811062762041531
10.629139072847682,0.7760570686289316
10.649006622516556,0.7409390144946248
10.66887417218543,0.7058456718837105
