Frequency (Hz),Amplitude
0.0,3.6343734576219657
0.019823788546255508,3.6487823697802444
0.039647577092511016,3.691615764916663
0.059471365638766524,3.7617384176074062
0.07929515418502203,3.857395931648797
0.09911894273127755,3.976385520161526
0.11894273127753305,4.1162390349447175
0.13876651982378857,4.274388425612172
0.15859030837004406,4.448296162622238
0.17841409691629956,4.635545537200419
0.1982378854625551,4.83389440019945
0.2180616740088106,5.041300093583056
0.2378854625550661,5.255924127992161
0.25770925110132165,5.476124074964652
0.27753303964757714,5.7004383712666735
0.29735682819383263,5.9275679784512585
0.31718061674008813,6.156357406928359
0.3370044052863437,6.385776565613571
0.3568281938325991,6.614904190029725
0.37665198237885467,6.8429131536999686
0.3964757709251102,7.069057702254986
0.41629955947136565,7.292662504784618
0.4361233480176212,7.513113347638821
0.4559471365638767,7.729849271621887
0.4757709251101322,7.942355954585646
0.49559471365638774,8.150160155539428
0.5154185022026433,8.352825056215764
0.5352422907488987,8.549946357366093
0.5550660792951543,8.74114900765505
0.5748898678414097,8.92608446178505
0.5947136563876653,9.104428380995799
0.6145374449339208,9.275878703299393
0.6343612334801763,9.440154022874129
0.6541850220264318,9.59699222817676
0.6740088105726874,9.746149356797943
0.6938325991189428,9.88739863212687
0.7136563876651982,10.020529652734572
0.7334801762114539,10.145347710231079
0.7533039647577093,10.261673215370719
0.7731277533039648,10.369341215515183
0.7929515418502204,10.468200989339728
0.8127753303964759,10.558115706980411
0.8325991189427313,10.638962145755887
0.8524229074889869,10.710630453222501
0.8722466960352424,10.773023950693403
0.8920704845814978,10.826058971517165
0.9118942731277534,10.869664729408965
0.931718061674009,10.903783212987788
0.9515418502202644,10.928369103425357
0.9713656387665199,10.943389712777604
0.9911894273127755,10.948824941168528
1.0110132158590308,10.944667251545797
1.0308370044052866,10.93092166124122
1.0506607929515421,10.907605750064697
1.0704845814977975,10.87474968514684
1.090308370044053,10.832396263238488
1.1101321585903086,10.780600971687836
1.1299559471365639,10.719432069860707
1.1497797356828194,10.64897069336274
1.1696035242290752,10.56931098408042
1.1894273127753305,10.480560249800432
1.209251101321586,10.382839158016136
1.2290748898678416,10.276281969512395
1.248898678414097,10.161036818468164
1.2687224669603525,10.037266047166723
1.288546255506608,9.905146605003319
1.3083700440528636,9.764870523384918
1.3281938325991192,9.616645480393185
1.3480176211453747,9.460695471813118
1.36784140969163,9.297261608414223
1.3876651982378856,9.126603063328792
1.4074889867841411,8.94899819814625
1.4273127753303965,8.764745902104222
1.4471365638766522,8.574167185704793
1.4669603524229078,8.377607078447452
1.4867841409691631,8.175436890398133
1.5066079295154187,7.968056909271329
1.5264317180616742,7.7558996188299245
1.5462555066079295,7.539433540876381
1.5660792951541853,7.319167821917004
1.5859030837004409,7.0956577063821955
1.6057268722466962,6.869511060107445
1.6255506607929517,6.6413961285536836
1.6453744493392073,6.41205073005972
1.6651982378854626,6.182293088362962
1.6850220264317182,5.953034489041797
1.7048458149779737,5.725293882543117
1.7246696035242293,5.5002144226502185
1.7444933920704848,5.279081679882645
1.7643171806167404,5.063342843239828
1.7841409691629957,4.854625543069174
1.8039647577092512,4.65475390936859
1.8237885462555068,4.46575806820607
1.8436123348017623,4.2898715190651515
1.863436123348018,4.129508997881347
1.8832599118942732,3.9872161743183057
1.9030837004405288,3.8655830250689376
1.9229074889867843,3.767116503504381
1.9427312775330399,3.6940764033811764
1.9625550660792954,3.6482906434701508
1.982378854625551,3.6309791135319878
2.002202643171806,3.6426224089124144
2.0220264317180616,3.6829071596174345
2.041850220264317,3.7507622147567177
2.061674008810573,3.844476152411947
2.0814977973568287,3.9618670750883465
2.1013215859030843,4.100468221561649
2.1211453744493394,4.257698074594633
2.140969162995595,4.430995944617733
2.1607929515418505,4.6179168505079105
2.180616740088106,4.816188749105085
2.2004405286343616,5.02373980355263
2.220264317180617,5.238704423201945
2.2400881057268722,5.4594158023176975
2.2599118942731278,5.6843908991388385
2.2797356828193833,5.9123119901488765
2.299559471365639,6.142007443213261
2.319383259911895,6.372433256959807
2.3392070484581504,6.602656170383135
2.3590308370044055,6.831838675003631
2.378854625550661,7.059225981698834
2.3986784140969166,7.284134840733421
2.418502202643172,7.505944039439215
2.4383259911894277,7.724086375409676
2.4581497797356833,7.938041903225385
2.4779735682819384,8.147332266707245
2.497797356828194,8.351515948779275
2.5176211453744495,8.550184292792206
2.537444933920705,8.74295817023603
2.5572687224669606,8.929485188998308
2.577092511013216,9.109437353257674
2.5969162995594717,9.28250910068229
2.6167400881057272,9.448415654971278
2.6365638766519828,9.606891642169725
2.6563876651982383,9.757689927861865
2.676211453744494,9.900580639559175
2.6960352422907494,10.035350344582097
2.715859030837005,10.161801358692532
2.73568281938326,10.279751164842974
2.7555066079295156,10.389031924817884
2.775330396475771,10.489490069376172
2.7951541850220267,10.580985954864966
2.8149779735682823,10.663393576247906
2.834801762114538,10.736600328147913
2.854625550660793,10.80050680690017
2.874449339207049,10.855026647797223
2.8942731277533045,10.900086392719952
2.91409691629956,10.935625384222261
2.9339207048458156,10.961595682898661
2.953744493392071,10.977962005537076
2.9735682819383262,10.984701682163607
2.993392070484582,10.981804630638633
3.0132158590308373,10.969273347980934
3.033039647577093,10.947122918092012
3.0528634361233484,10.915381036038552
3.072687224669604,10.874088049543813
3.092511013215859,10.823297018846494
3.1123348017621146,10.763073796626937
3.1321585903083706,10.693497130288275
3.151982378854626,10.6146587895302
3.1718061674008817,10.52666372288739
3.1916299559471373,10.42963024774257
3.2114537444933924,10.323690279294054
3.231277533039648,10.20898960509087
3.2511013215859035,10.085688213080218
3.270925110132159,9.953960682693364
3.2907488986784146,9.813996650375065
3.31057268722467,9.666001363213992
3.3303964757709252,9.510196337031328
3.350220264317181,9.346820138538522
3.3700440528634363,9.176129315098182
3.389867841409692,8.9983995003635
3.4096916299559474,8.813926729802741
3.4295154185022034,8.623029007042083
3.4493392070484585,8.426048170318449
3.469162995594714,8.223352118390219
3.4889867841409696,8.015337467290317
3.508810572687225,7.802432723600957
3.5286343612334807,7.58510207670197
3.5484581497797363,7.363849931770835
3.5682819383259914,7.139226326961444
3.588105726872247,6.911833401359625
3.6079295154185025,6.682333103182552
3.627753303964758,6.4514563467009
3.6475770925110136,6.220013835086398
3.667400881057269,5.98890875380722
3.6872246696035247,5.759151487189414
3.7070484581497802,5.531876390706683
3.726872246696036,5.308360420181796
3.7466960352422913,5.090043014662287
3.7665198237885464,4.8785459714517465
3.7863436123348024,4.675691048587605
3.8061674008810575,4.483511610801794
3.8259911894273135,4.304252817537814
3.8458149779735686,4.140352868398607
3.8656387665198246,3.994396296465071
3.8854625550660797,3.869030400290574
3.905286343612335,3.766839259168372
3.925110132158591,3.6901778329134705
3.9449339207048464,3.640981301264461
3.964757709251102,3.6205788124482736
3.9845814977973575,3.6295496554254885
4.004405286343612,3.6676566589739763
4.024229074889869,3.733874370607101
4.044052863436123,3.8265044379073223
4.06387665198238,3.9433489526801337
4.083700440528634,4.081903341715262
4.103524229074891,4.239534958920722
4.123348017621146,4.413626330425213
4.143171806167401,4.601675807711065
4.162995594713657,4.801358479276408
4.182819383259912,5.010555347051639
4.2026431718061685,5.2273600017671455
4.222466960352423,5.450071004004577
4.242290748898679,5.677176282885801
4.262114537444934,5.907333936558037
4.28193832599119,6.139352227759951
4.301762114537445,6.3721704011041576
4.321585903083701,6.604841160645952
4.3414096916299565,6.836515148788854
4.361233480176212,7.06642747384696
4.381057268722468,7.293886173958435
4.400881057268723,7.518262429143271
4.420704845814979,7.7389823070563555
4.440528634361234,7.955519829459793
4.46035242290749,8.167391162063106
4.4801762114537445,8.374149752094315
4.500000000000001,8.575382261200936
4.5198237885462555,8.770705163606282
4.539647577092512,8.959761899706892
4.559471365638767,9.142220493063697
4.579295154185023,9.31777155398535
4.599118942731278,9.486126605797208
4.618942731277533,9.647016680696087
4.63876651982379,9.800191141089332
4.658590308370044,9.94541668978325
4.678414096916301,10.082476538566796
4.6982378854625555,10.21116970984971
4.718061674008811,10.331310450245182
4.737885462555067,10.44272773849185
4.757709251101322,10.545264873018109
4.777533039647578,10.638779126871524
4.797356828193833,10.723141459755446
4.817180616740089,10.798236278607483
4.837004405286344,10.863961239579274
4.856828193832599,10.920227085484592
4.876651982378855,10.966957513812632
4.896475770925111,11.004089071290133
4.9162995594713665,11.031571071748116
4.936123348017622,11.049365534728837
4.955947136563877,11.057447142878878
4.975770925110133,11.055803216729906
4.995594713656388,11.044433705988245
5.015418502202644,11.023351196949118
5.035242290748899,10.992580936137722
5.055066079295155,10.952160870768312
5.07488986784141,10.90214170711739
5.094713656387666,10.84258698844399
5.114537444933921,10.773573194670476
5.134361233480177,10.69518986668121
5.154185022026432,10.60753975882069
5.174008810572688,10.510739024001602
5.193832599118943,10.404917436789878
5.213656387665199,10.290218660954366
5.2334801762114544,10.166800569285417
5.25330396475771,10.034835625050473
5.2731277533039655,9.894511336317771
5.292951541850221,9.746030796611882
5.312775330396477,9.589613328048543
5.332599118942731,9.425495246333899
5.352422907488988,9.253930770927358
5.372246696035242,9.075193108407838
5.392070484581499,8.889575742831218
5.4118942731277535,8.69739397383657
5.43171806167401,8.498986751702827
5.451541850220265,8.294718868765214
5.47136563876652,8.084983578889661
5.491189427312777,7.870205731401895
5.511013215859031,7.650845523272473
5.530837004405288,7.427402993653848
5.550660792951542,7.200423407981851
5.570484581497798,6.9705037042156075
5.5903083700440535,6.738300199895877
5.610132158590309,6.504537782431149
5.6299559471365646,6.270020820519645
5.64977973568282,6.035646031570395
5.669603524229076,5.802417501048906
5.689427312775331,5.571463946813571
5.709251101321586,5.344058111389401
5.729074889867842,5.121637784220845
5.748898678414098,4.9058273179967085
5.768722466960353,4.698457504986521
5.788546255506609,4.501580227123684
5.808370044052864,4.317472368959695
5.82819383259912,4.148621271680395
5.848017621145375,3.9976820964693682
5.867841409691631,3.867397045653204
5.887665198237886,3.760469245389339
5.907488986784142,3.6793920211028612
5.927312775330397,3.626247646462606
5.9471365638766525,3.602505413166714
5.966960352422908,3.6088600625107596
5.986784140969164,3.6451500973582034
6.00660792951542,3.7103779530194063
6.026431718061675,3.8028264172629203
6.04625550660793,3.9202407453514447
6.066079295154186,4.060034482187351
6.085903083700441,4.219481256829147
6.105726872246697,4.395868797281121
6.125550660792952,4.586606844040558
6.145374449339208,4.789291988392414
6.1651982378854635,5.001738235705793
6.185022026431718,5.221983435152623
6.204845814977975,5.448280536991388
6.224669603524229,5.6790805135136635
6.244493392070486,5.9130116442028156
6.264317180616741,6.148858123010729
6.284140969162996,6.385539682148899
6.303964757709252,6.622093083535176
6.323788546255507,6.85765580382707
6.3436123348017635,7.091451933956996
6.363436123348018,7.322780152091022
6.3832599118942746,7.551003554993886
6.403083700440529,7.77554111023014
6.422907488986785,7.995860497156594
6.44273127753304,8.211472124058972
6.462555066079296,8.421924133743548
6.482378854625551,8.62679823579658
6.502202643171807,8.825706228179984
6.5220264317180625,9.018287092764748
6.541850220264318,9.204204568467462
6.561674008810574,9.3831451218997
6.581497797356829,9.55481624910177
6.601321585903085,9.718945053323706
6.62114537444934,9.87527705326243
6.640969162995596,10.023575183971662
6.6607929515418505,10.16361895910291
6.680616740088107,10.295203768448577
6.700440528634362,10.418140289141764
6.720264317180618,10.53225399248909
6.740088105726873,10.637384731411201
6.759911894273129,10.733386395953884
6.779735682819384,10.82012662640576
6.799559471365639,10.897486575291396
6.819383259911895,10.965360710964944
6.83920704845815,11.023656656760767
6.859030837004407,11.072295060705406
6.8788546255506615,11.111209491695972
6.898678414096917,11.140346358831268
6.918502202643173,11.15966485126966
6.938325991189428,11.169136896602064
6.958149779735684,11.168747136287056
6.977973568281939,11.158492917215018
6.997797356828195,11.138384298963008
7.01762114537445,11.108444076786174
7.037444933920705,11.068707820876844
7.0572687224669615,11.019223932923811
7.077092511013216,10.960053721534404
7.096916299559473,10.89127149865653
7.116740088105728,10.812964699772865
7.136563876651983,10.725234031354884
7.156387665198239,10.62819364988172
7.176211453744494,10.521971377675323
7.19603524229075,10.4067089619088
7.215859030837005,10.282562384449996
7.235682819383261,10.149702231750803
7.255506607929516,10.00831413584284
7.275330396475772,9.858599299720595
7.295154185022027,9.70077512306914
7.314977973568283,9.53507594752924
7.334801762114538,9.361753944617039
7.354625550660794,9.181080174184013
7.374449339207049,8.99334584710684
7.394273127753305,8.798863832966937
7.4140969162995605,8.597970462088593
7.433920704845816,8.391027681776622
7.453744493392072,8.178425639293742
7.473568281938327,7.960585779443219
7.493392070484583,7.73796456297137
7.513215859030838,7.511057933708001
7.533039647577093,7.28040668756021
7.552863436123348,7.046602924886652
7.572687224669605,6.810297798313152
7.59251101321586,6.572210798138754
7.612334801762115,6.33314084198681
7.6321585903083715,6.093979444828416
7.651982378854627,5.855726223491469
7.671806167400882,5.619506908869446
7.691629955947137,5.386593855563997
7.711453744493394,5.158428686356516
7.731277533039649,4.936646093739948
7.751101321585904,4.723096822862058
7.7709251101321595,4.51986635481793
7.790748898678416,4.329283728785766
7.81057268722467,4.153912409475401
7.830396475770926,3.996512661671685
7.850220264317182,3.859963759846025
7.870044052863436,3.747136549654305
7.889867841409693,3.6607146871393703
7.909691629955948,3.6029773171082944
7.929515418502204,3.5755743290662805
7.9493392070484585,3.5793399366020915
7.969162995594715,3.614191103595323
7.9889867841409705,3.679139025953103
8.008810572687224,3.772410298104034
8.02863436123348,3.891644472862592
8.048458149779737,4.034120195178441
8.068281938325994,4.196966347992502
8.088105726872246,4.377330805089961
8.107929515418503,4.572497399470816
8.12775330396476,4.7799548550483575
8.147577092511014,4.9974279432764686
8.167400881057269,5.222882459847231
8.187224669603525,5.454514091371546
8.207048458149782,5.690728718397823
8.226872246696036,5.930119243390078
8.246696035242293,6.171442072959814
8.266519823788547,6.4135949929166625
8.286343612334802,6.65559726624897
8.306167400881058,6.896572231553977
8.325991189427315,7.135732367743688
8.345814977973568,7.372366632218352
8.365638766519824,7.605829813102568
8.38546255506608,7.835533621774591
8.405286343612337,8.060939265030495
8.42511013215859,8.281551262066355
8.444933920704846,8.49691230163519
8.464757709251103,8.706598964733036
8.484581497797357,8.91021816578304
8.504405286343614,9.107404189622653
8.524229074889869,9.297816222480575
8.544052863436125,9.481136292739032
8.56387665198238,9.657067551963419
8.583700440528636,9.82533283883846
8.60352422907489,9.98567347867063
8.623348017621145,10.137848279353237
8.643171806167402,10.281632691454586
8.662995594713658,10.416818105644323
8.682819383259913,10.543211265237167
8.702643171806168,10.660633775392608
8.722466960352424,10.768921693609173
8.74229074889868,10.86792518871827
8.762114537444935,10.957508257713343
8.78193832599119,11.03754849152652
8.801762114537446,11.10793688235451
8.821585903083701,11.168577666390332
8.841409691629957,11.21938819688351
8.861233480176212,11.260298843364918
8.881057268722468,11.291252913662266
8.900881057268723,11.312206596026236
8.92070484581498,11.323128919303972
8.940528634361234,11.32400172965764
8.960352422907489,11.314819682844032
8.980176211453745,11.29559025156493
9.000000000000002,11.266333747877697
9.019823788546258,11.227083361136959
9.039647577092511,11.177885212433198
9.059471365638768,11.118798427017412
9.079295154185024,11.049895226766763
9.099118942731279,10.971261045372186
9.118942731277533,10.882994669633176
9.13876651982379,10.78520841105094
9.158590308370046,10.678028312844127
9.1784140969163,10.561594398603875
9.198237885462555,10.436060970095628
9.218061674008812,10.301596963250374
9.237885462555067,10.158386373225833
9.257709251101323,10.00662876163038
9.27753303964758,9.846539861675138
9.297356828193834,9.678352300263796
9.317180616740089,9.502316459976505
9.337004405286345,9.318701508723002
9.356828193832602,9.127796630730536
9.376651982378855,8.929912499749053
9.396475770925111,8.725383044197772
9.416299559471367,8.514567564812113
9.436123348017622,8.297853278602103
9.455947136563877,8.075658379092394
9.475770925110133,7.848435722406094
9.49559471365639,7.61667727229815
9.515418502202644,7.380919465145055
9.5352422907489,7.141749688255352
9.555066079295155,6.899814101114433
9.57488986784141,6.655827067465171
9.594713656387666,6.410582502251326
9.614537444933923,6.164967463102682
9.634361233480178,5.919978315992258
9.654185022026432,5.676739752476066
9.674008810572689,5.436526787590523
9.693832599118945,5.200789553495037
9.713656387665198,4.971180120670569
9.733480176211454,4.749579584371989
9.75330396475771,4.5381220829715545
9.773127753303967,4.339210131634575
9.792951541850222,4.1555126924391494
9.812775330396477,3.989934221122835
9.832599118942733,3.8455407835857978
9.852422907488988,3.725430534495162
9.872246696035244,3.632543412034554
9.892070484581499,3.569420838911772
9.911894273127754,3.537948415232165
9.93171806167401,3.539134328402571
9.951541850220266,3.572980476035092
9.971365638766521,3.6384836997981687
9.991189427312776,3.733766641577928
10.011013215859032,3.8563001207628496
10.030837004405289,4.003159941184046
10.050660792951543,4.171265824128182
10.070484581497798,4.357570076100428
10.090308370044054,4.559185667558357
10.11013215859031,4.773459094889505
10.129955947136565,4.998000758669663
10.14977973568282,5.2306866813379465
10.169603524229077,5.469643208788565
10.189427312775331,5.7132231711857475
10.209251101321588,5.959979043126551
10.229074889867842,6.208636387184007
10.248898678414099,6.458069314936282
10.268722466960353,6.707278719844339
10.28854625550661,6.955373461907354
10.308370044052865,7.201554374990452
10.32819383259912,7.4451008218491
10.348017621145376,7.685359470643653
10.367841409691632,7.921734966862838
10.387665198237887,8.153682199995801
10.407488986784141,8.380699900011424
10.427312775330398,8.602325336542517
10.447136563876654,8.81812992949093
10.466960352422909,9.027715611744389
10.486784140969164,9.230711812270629
10.50660792951542,9.426772951125718
10.526431718061675,9.61557635728401
10.546255506607931,9.796820536174904
10.566079295154186,9.970223726920253
10.585903083700442,10.135522699983134
10.605726872246697,10.292471754688737
10.625550660792953,10.440841883219012
10.645374449339208,10.580420073514288
10.665198237885463,10.711008728284673
10.685022026431719,10.832425181242659
10.704845814977975,10.944501294880014
10.724669603524232,11.047083126759528
10.744493392070485,11.140030653482498
10.764317180616741,11.223217543313158
10.784140969162998,11.29653096996154
