Time (s),Filtered Signal
0.0,-0.009367159254606613
0.03337028824833703,-0.21276508174272443
0.06674057649667406,-0.32600254332601275
0.10011086474501109,-0.2909283209806436
0.13348115299334812,-0.10147113759925984
0.16685144124168516,0.1970376217142092
0.20022172949002218,0.5279076711158059
0.2335920177383592,0.813407035412438
0.26696230598669624,1.002082277353625
0.3003325942350333,1.0816819971303597
0.3337028824833703,1.0735345030267447
0.3670731707317073,1.0133786639161229
0.40044345898004435,0.9299475933588528
0.4338137472283814,0.8326509139693301
0.4671840354767184,0.7135786853701309
0.5005543237250555,0.5604798045511984
0.5339246119733925,0.37145356511855665
0.5672949002217295,0.16207702824526202
0.6006651884700666,-0.03898261971692877
0.6340354767184035,-0.20280089272319501
0.6674057649667406,-0.3138288430394522
0.7007760532150776,-0.37671964298489286
0.7341463414634146,-0.41279562428520383
0.7675166297117517,-0.44816796678774545
0.8008869179600887,-0.4997310635747516
0.8342572062084257,-0.5661679586663483
0.8676274944567628,-0.6284211191655139
0.9009977827050998,-0.6592128807359648
0.9343680709534368,-0.6366377224757838
0.9677383592017739,-0.5549586915452189
1.001108647450111,-0.427466086433387
1.0344789356984478,-0.2805440824116289
1.067849223946785,-0.1424940602583911
1.101219512195122,-0.03281426066971299
1.134589800443459,0.043364802762688205
1.167960088691796,0.0941687124454051
1.2013303769401331,0.13497678174825706
1.23470066518847,0.1809834940197206
1.268070953436807,0.24133481527974646
1.3014412416851442,0.3161544873093664
1.3348115299334813,0.39622551936918965
1.3681818181818182,0.46460783100828573
1.4015521064301553,0.49993466769029715
1.4349223946784924,0.4815996576179366
1.4682926829268292,0.3965832442355226
1.5016629711751663,0.2461793021993891
1.5350332594235034,0.04939094637243227
1.5684035476718403,-0.1601985188250617
1.6017738359201774,-0.3448422368895468
1.6351441241685145,-0.4770355625328207
1.6685144124168514,-0.5512337545015175
1.7018847006651885,-0.5860400690254014
1.7352549889135256,-0.6140186206528293
1.7686252771618625,-0.6628074853060134
1.8019955654101996,-0.7366919127559218
1.8353658536585367,-0.8087889907430369
1.8687361419068735,-0.8293412606884595
1.9021064301552106,-0.7474339506419917
1.9354767184035477,-0.536125073656875
1.9688470066518848,-0.20866877605971793
2.002217294900222,0.18234996796735217
2.035587583148559,0.5627692823370352
2.0689578713968957,0.8631997562479189
2.102328159645233,1.0420644503420993
2.13569844789357,1.0958125039690254
2.1690687361419068,1.0534236281746328
2.202439024390244,0.9595000546299896
2.235809312638581,0.8545186984422055
2.269179600886918,0.7606865795347689
2.302549889135255,0.6781246207807726
2.335920177383592,0.5910904911273244
2.369290465631929,0.48002684150520636
2.4026607538802662,0.3337452232113433
2.436031042128603,0.15699454489263984
2.46940133037694,-0.02898526220680527
2.5027716186252773,-0.19273137289899067
2.536141906873614,-0.303367827329336
2.569512195121951,-0.3423430215544948
2.6028824833702884,-0.31198314925252124
2.6362527716186253,-0.23730365011595184
2.6696230598669626,-0.15938671369074284
2.7029933481152995,-0.12166713215958681
2.7363636363636363,-0.15372828761185442
2.7697339246119737,-0.25910578185607136
2.8031042128603105,-0.41272779199354637
2.8364745011086474,-0.5698275400819823
2.8698447893569847,-0.6829831413521387
2.9032150776053216,-0.7199800831169219
2.9365853658536585,-0.6746712522219256
2.969955654101996,-0.5663853107429698
3.0033259423503327,-0.4290098489998743
3.0366962305986696,-0.29570199196512026
3.070066518847007,-0.18673600809097876
3.1034368070953438,-0.10563396141657919
3.1368070953436806,-0.04397032257320482
3.170177383592018,0.009176582443847458
3.203547671840355,0.05892301002162501
3.2369179600886917,0.10170806089633315
3.270288248337029,0.12855733263893973
3.303658536585366,0.1317594326991437
3.337028824833703,0.11076848804735767
3.37039911308204,0.07410524743430572
3.403769401330377,0.03648967101326386
3.437139689578714,0.012891294533896553
3.470509977827051,0.012487889895685325
3.503880266075388,0.03535366779742543
3.537250554323725,0.07338587992125009
3.5706208425720622,0.11511639107576373
3.603991130820399,0.15227922072429237
3.637361419068736,0.1849679080531918
3.6707317073170733,0.22248207011565743
3.70410199556541,0.2786933250122609
3.737472283813747,0.3634072467796377
3.7708425720620844,0.47355756877426397
3.8042128603104213,0.5888375649632566
3.8375831485587586,0.6748957039939034
3.8709534368070955,0.6939503669681235
3.9043237250554323,0.6190509030559168
3.9376940133037697,0.4460214447457202
3.9710643015521065,0.19764724613382859
4.004434589800444,-0.08208321120531752
4.037804878048781,-0.3413516541158796
4.071175166297118,-0.5357300624844771
4.1045454545454545,-0.6390121910606033
4.137915742793791,-0.6461545773401141
4.171286031042128,-0.5690699272351923
4.204656319290466,-0.4292204080967077
4.238026607538803,-0.2513637815243624
4.27139689578714,-0.06055423024639678
4.304767184035477,0.11856204758810653
4.3381374722838135,0.2627770353970865
4.371507760532151,0.3535092644900354
4.404878048780488,0.3815282125860858
4.438248337028825,0.35044588414604194
4.471618625277162,0.27607726803359944
4.504988913525499,0.18088565367307374
4.538359201773836,0.08569882111504763
4.571729490022173,0.0027036726028709696
4.60509977827051,-0.06683812208395691
4.638470066518847,-0.12933112265831498
4.671840354767184,-0.19227457912204468
4.705210643015521,-0.25827455656601206
4.738580931263858,-0.3229192151393472
4.771951219512196,-0.37738050861554
4.8053215077605325,-0.41384750290278144
4.838691796008869,-0.4303391394233944
4.872062084257206,-0.4318962116606018
4.905432372505543,-0.4273274740660291
4.93880266075388,-0.4233817961724937
4.972172949002218,-0.4199143316739487
5.005543237250555,-0.4092458291157856
5.0389135254988915,-0.38051850633848333
5.072283813747228,-0.3266987575828228
5.105654101995565,-0.24987163369744014
5.139024390243902,-0.16104712826193435
5.17239467849224,-0.07382300199178753
5.205764966740577,0.004757962724687323
5.239135254988914,0.08042197515672739
5.2725055432372505,0.17017789277452683
5.305875831485587,0.2925260789327616
5.339246119733925,0.4539205596522891
5.372616407982262,0.6390864968041506
5.405986696230599,0.8115795792555148
5.439356984478936,0.9258215182113465
5.472727272727273,0.9455712803831872
5.5060975609756095,0.8600498405992403
5.539467849223947,0.689905555653392
5.572838137472284,0.48024090360293065
5.606208425720621,0.2840997591461878
5.639578713968958,0.1438693541025928
5.672949002217295,0.07822128374250821
5.706319290465632,0.07893247654391117
5.7396895787139695,0.11723563079530154
5.773059866962306,0.1556648648556107
5.806430155210643,0.16023715037095482
5.83980044345898,0.10922438424519877
5.873170731707317,-0.002693910560627685
5.906541019955654,-0.16424286841157867
5.939911308203992,-0.3503700279687522
5.9732815964523285,-0.5277679382938678
6.006651884700665,-0.6629923089752804
6.040022172949002,-0.731925223094624
6.073392461197339,-0.7275113117618485
6.106762749445676,-0.6619508264587163
6.140133037694014,-0.5612264891327358
6.173503325942351,-0.4535921376867506
6.2068736141906875,-0.35732652219005945
6.240243902439024,-0.2741468003683103
6.273614190687361,-0.1920715884952852
6.306984478935698,-0.09640581121330512
6.340354767184036,0.01723225139253335
6.373725055432373,0.13545500934181898
6.40709534368071,0.23007967190191475
6.4404656319290465,0.27075086708658336
6.473835920177383,0.24098698867039575
6.507206208425721,0.1491923042660811
6.540576496674058,0.028432747103128625
6.573946784922395,-0.07561215718923332
6.607317073170732,-0.12307298646399654
6.640687361419069,-0.09598440422071235
6.674057649667406,-0.004601138842813402
6.707427937915743,0.11846855661036215
6.74079822616408,0.2326995192499332
6.774168514412417,0.30531434083473813
6.807538802660754,0.32118041571051814
6.840909090909091,0.2837336131772233
6.874279379157428,0.20851043581802317
6.9076496674057655,0.11403551848037252
6.941019955654102,0.015041878092617113
6.974390243902439,-0.07927588987796398
7.007760532150776,-0.16251001583640007
7.041130820399113,-0.22682092270683663
7.07450110864745,-0.2609228348451477
7.107871396895788,-0.2525077499340287
7.1412416851441245,-0.19454478918370038
7.174611973392461,-0.09215543391739862
7.207982261640798,0.0343679296942901
7.241352549889135,0.153499876711078
7.274722838137472,0.23309623262364232
7.30809312638581,0.2536270849715858
7.341463414634147,0.21787032227261915
7.3748337028824835,0.15183203684435828
7.40820399113082,0.09540186536115909
7.441574279379157,0.08606568238909164
7.474944567627494,0.14249729889221577
7.508314855875832,0.2552692928242006
7.541685144124169,0.3890207383665259
7.575055432372506,0.4955354669358057
7.6084257206208425,0.5325012912757695
7.641796008869179,0.48023218583474553
7.675166297117517,0.34934459603546014
7.708536585365854,0.17599591986979482
7.741906873614191,0.006422872331573039
7.775277161862528,-0.12282783761952476
7.808647450110865,-0.20033333196430136
7.842017738359202,-0.243605026293579
7.875388026607539,-0.28883543756707986
7.908758314855876,-0.37074895843479505
7.942128603104213,-0.5020877730924868
7.97549889135255,-0.6633407609075308
8.008869179600888,-0.8088223246822848
8.042239467849225,-0.8868754829949965
8.075609756097561,-0.8641769696951427
8.108980044345898,-0.7414902059298898
8.142350332594235,-0.5526348143609293
8.175720620842572,-0.34756919262273855
8.209090909090909,-0.16900700171458702
8.242461197339246,-0.034968558005179985
8.275831485587583,0.06436913479283352
8.30920177383592,0.1554477717376691
8.342572062084257,0.26315358273759054
8.375942350332595,0.3957651348366217
8.409312638580932,0.540094588692848
8.442682926829269,0.6677416725522287
8.476053215077606,0.747879804166704
8.509423503325943,0.7598428189128614
8.54279379157428,0.7002794918900744
8.576164079822616,0.5831074383776655
8.609534368070953,0.4337341383525684
8.64290465631929,0.2806720199223635
8.676274944567627,0.14767269242754655
8.709645232815964,0.048538943139960135
8.743015521064303,-0.01443101810201626
8.77638580931264,-0.04850110436852718
8.809756097560976,-0.06610149463435051
8.843126385809313,-0.07969449578541636
8.87649667405765,-0.09782736985917566
8.909866962305987,-0.12379157302965205
8.943237250554324,-0.15709018453212614
8.97660753880266,-0.19645684980085587
9.009977827050998,-0.24227476999247216
9.043348115299334,-0.2965667825148227
9.076718403547671,-0.3602514154232377
9.110088691796008,-0.42926393839868676
9.143458980044347,-0.4922267519869166
9.176829268292684,-0.5318123146143596
9.21019955654102,-0.529962100223021
9.243569844789358,-0.47485447017879345
9.276940133037694,-0.3663347672326638
9.310310421286031,-0.21713784870386507
9.343680709534368,-0.049257109937243505
9.377050997782705,0.11290734831580727
9.410421286031042,0.2496250860636108
9.443791574279379,0.35027134562976453
9.477161862527716,0.4137028362165314
9.510532150776053,0.4451669025154848
9.543902439024391,0.4519636871004369
9.577272727272728,0.44051605999458765
9.610643015521065,0.41643603686041936
9.644013303769402,0.38704180353879664
9.677383592017739,0.363720243350222
9.710753880266076,0.3609146760476456
9.744124168514412,0.3901192815429557
9.77749445676275,0.45058031866143133
9.810864745011086,0.5216653053052392
9.844235033259423,0.5628631741548755
9.87760532150776,0.524817737987438
9.910975609756099,0.3693168746229523
9.944345898004435,0.09038486707834151
9.977716186252772,-0.2740584560783867
10.01108647450111,-0.6478909056022337
10.044456762749446,-0.9403509718443919
10.077827050997783,-1.0791600754247788
10.11119733924612,-1.0392329543361731
10.144567627494457,-0.853814208133667
10.177937915742794,-0.6022020605086311
10.21130820399113,-0.37867006634688105
10.244678492239467,-0.25569877396332064
10.278048780487804,-0.2570686415043789
10.311419068736143,-0.35167905437562164
10.34478935698448,-0.46958008911986177
10.378159645232817,-0.5322068012427993
10.411529933481154,-0.483524701561847
10.44490022172949,-0.30971835997279695
10.478270509977827,-0.04107441520816733
10.511640798226164,0.2624745771784082
10.545011086474501,0.5346419303810904
10.578381374722838,0.7252607028640835
10.611751662971175,0.8140564542005163
10.645121951219512,0.8120654835986264
10.67849223946785,0.7518387195108617
10.711862527716187,0.6713639597237756
10.745232815964524,0.5984336220992335
10.778603104212861,0.5415326578933062
10.811973392461198,0.49039101017361947
10.845343680709535,0.42511343971536364
10.878713968957872,0.32900818043861046
10.912084257206208,0.1987426783776446
10.945454545454545,0.04712971661489022
10.978824833702882,-0.10218278538402017
11.012195121951219,-0.2248122294062012
11.045565410199556,-0.30530420647524764
11.078935698447895,-0.34205520960350533
11.112305986696231,-0.34599326447256107
11.145676274944568,-0.3344300048262847
11.179046563192905,-0.32319354934472366
11.212416851441242,-0.32029408703233725
11.245787139689579,-0.323382410281385
11.279157427937916,-0.3217410769386234
11.312527716186253,-0.30195250483567004
11.34589800443459,-0.2550443665139766
11.379268292682926,-0.18217305234459125
11.412638580931263,-0.09615457019622489
11.4460088691796,-0.01757320856582952
11.479379157427939,0.033516251053469524
11.512749445676276,0.046997314606097816
11.546119733924613,0.028781417876773317
11.57949002217295,1.4528214620251333e-05
11.612860310421286,-0.011284240060451044
11.646230598669623,0.01694989928047675
11.67960088691796,0.08941456754290718
11.712971175166297,0.18932252148322878
11.746341463414634,0.2842338152437168
11.77971175166297,0.33949888107148485
11.813082039911308,0.3329434155548349
11.846452328159646,0.2637414651087809
11.879822616407983,0.1515442998262771
11.91319290465632,0.027024979492979977
11.946563192904657,-0.08089643239919392
11.979933481152994,-0.15494580833632374
12.01330376940133,-0.19267101535587372
12.046674057649668,-0.20298735340503066
12.080044345898004,-0.19931528087130454
12.113414634146341,-0.19335808919633518
12.146784922394678,-0.19206667524071347
12.180155210643015,-0.1978011798510065
12.213525498891352,-0.20984025089513994
12.24689578713969,-0.22528669613578975
12.280266075388028,-0.23885052269479626
12.313636363636364,-0.2426316973987958
12.347006651884701,-0.22745430896572763
12.380376940133038,-0.1861128794167098
12.413747228381375,-0.11702479350799141
12.447117516629712,-0.025812308137709704
12.480487804878049,0.07676958951187736
12.513858093126386,0.17981534507593705
12.547228381374723,0.2772322323720247
12.58059866962306,0.36934157586580546
12.613968957871396,0.45963465028282496
12.647339246119735,0.5483030855588974
12.680709534368072,0.6265677383725777
12.714079822616409,0.6759222249958128
12.747450110864746,0.6739347854315102
12.780820399113082,0.6045119022192783
12.81419068736142,0.4676290540943729
12.847560975609756,0.2831915376551658
12.880931263858093,0.08623704657045562
12.91430155210643,-0.0851099396049078
12.947671840354767,-0.20381784377129095
12.981042128603104,-0.26384537595924235
13.014412416851442,-0.2811410154303519
13.04778270509978,-0.2852005251202046
13.081152993348116,-0.3050387744240999
13.114523281596453,-0.3560493493729495
13.14789356984479,-0.43378808683348946
13.181263858093127,-0.5174049598157943
13.214634146341464,-0.5808188299857967
13.2480044345898,-0.6059891705746954
13.281374722838137,-0.5916114750980611
13.314745011086474,-0.5528106747979198
13.348115299334811,-0.5119134382745073
13.381485587583148,-0.48497223664655015
13.414855875831487,-0.471074101587277
13.448226164079824,-0.4502949988943383
13.48159645232816,-0.39190752833843234
13.514966740576497,-0.2691951348074056
13.548337028824834,-0.07368001858683972
13.581707317073171,0.1783397050154423
13.615077605321508,0.4502654488160059
13.648447893569845,0.6984582954086028
13.681818181818182,0.8876764533796617
13.715188470066519,1.0012268801006328
13.748558758314855,1.041474163329383
13.781929046563192,1.0216675943351095
13.815299334811531,0.9546196379473451
13.848669623059868,0.8451022427408166
13.882039911308205,0.6902702779008119
13.915410199556542,0.48748142693295593
13.948780487804878,0.24435689141469005
13.982150776053215,-0.015633333501768463
14.015521064301552,-0.25645923701756107
14.048891352549889,-0.441135619953938
14.082261640798226,-0.5462326620758178
14.115631929046563,-0.571866295854217
14.1490022172949,-0.5417331976808926
14.182372505543238,-0.4927005654634272
14.215742793791575,-0.45872058042784986
14.249113082039912,-0.45667616897030217
14.282483370288249,-0.48077876206932607
14.315853658536586,-0.5078993196883088
14.349223946784923,-0.5108746741573723
14.38259423503326,-0.473018326276647
14.415964523281596,-0.39660426449925473
14.449334811529933,-0.3011689030189206
14.48270509977827,-0.21258181524499967
14.516075388026607,-0.14849455330928818
14.549445676274944,-0.10770612857093288
14.582815964523283,-0.06918400195806028
14.61618625277162,-0.0017527686761668036
14.649556541019956,0.11991640377379306
14.682926829268293,0.3007348294059559
14.71629711751663,0.5193244031124933
14.749667405764967,0.7339849247099859
14.783037694013304,0.8978092229070677
14.81640798226164,0.9757346343072627
14.849778270509978,0.9555403626357383
14.883148558758315,0.8482140574484077
14.916518847006651,0.6788242887395287
14.949889135254988,0.47383432218704574
14.983259423503327,0.25202136370295397
15.016629711751664,0.02329841326412303
15.05,-0.20536640443876153
15.083370288248338,-0.42202235747203287
15.116740576496674,-0.605944699718818
15.150110864745011,-0.7315001940124923
15.183481152993348,-0.7784921587592689
15.216851441241685,-0.7436621464035431
15.250221729490022,-0.6466575254424478
15.283592017738359,-0.5259585206757185
15.316962305986696,-0.4250474967899213
15.350332594235034,-0.3742808324912644
15.383702882483371,-0.3769188332328601
15.417073170731708,-0.4067766189128045
15.450443458980045,-0.4199360484472757
15.483813747228382,-0.37598517409004795
15.517184035476719,-0.25879980647549083
15.550554323725056,-0.08610817765088553
15.583924611973393,0.09801604152957752
15.61729490022173,0.24502176465140435
15.650665188470066,0.327440531530482
15.684035476718403,0.3545195946333477
15.71740576496674,0.36848963630255965
15.750776053215079,0.4217656148228901
15.784146341463416,0.5458623013549678
15.817516629711752,0.728315826939785
15.85088691796009,0.9109508893103567
15.884257206208426,1.0123883531206082
15.917627494456763,0.9650128630962906
15.9509977827051,0.7485509173053275
15.984368070953437,0.403513407706932
16.017738359201775,0.017627508557983576
16.05110864745011,-0.30824298205481543
16.08447893569845,-0.4984785078743215
16.117849223946784,-0.528100106475415
16.151219512195123,-0.42546686851730914
16.184589800443458,-0.2540871985805975
16.217960088691797,-0.08448940456571533
16.251330376940132,0.03041984386657837
16.28470066518847,0.06734546250139149
16.31807095343681,0.030389916550263362
16.351441241685144,-0.06034375072700798
16.384811529933483,-0.18162926977101398
16.418181818181818,-0.3152453797453194
16.451552106430157,-0.449027760544023
16.48492239467849,-0.5725600331945015
16.51829268292683,-0.6717210783259655
16.551662971175165,-0.7265783295660408
16.585033259423504,-0.7152707755455665
16.61840354767184,-0.6232492927648143
16.651773835920178,-0.4537840619139771
16.685144124168513,-0.233694789815794
16.71851441241685,-0.009286257856534233
16.75188470066519,0.16828890290429782
16.785254988913525,0.2632388962618253
16.818625277161864,0.27168136519943087
16.8519955654102,0.22547522012696633
16.885365853658538,0.17958468515222883
16.918736141906873,0.18740159249711222
16.95210643015521,0.2752051543355846
16.985476718403547,0.4283123325699725
17.018847006651885,0.596263338101054
17.05221729490022,0.7150591108444455
17.08558758314856,0.735904119515921
17.118957871396898,0.6466821299200066
17.152328159645233,0.47617992255540226
17.18569844789357,0.27975758739779294
17.219068736141907,0.11412667741041775
17.252439024390245,0.013627524966611177
17.28580931263858,-0.021175796238702756
17.31917960088692,-0.01843290077244532
