Time (s),Filtered Signal
0.0,-0.0006765604390562395
0.0334075723830735,0.24297280455322548
0.066815144766147,0.466765658282843
0.1002227171492205,0.6450548220362349
0.133630289532294,0.7467625078783223
0.1670378619153675,0.7444539719337979
0.200445434298441,0.6278618190458006
0.23385300668151449,0.41397293879133007
0.267260579064588,0.14675353248622888
0.3006681514476615,-0.11513040345066045
0.334075723830735,-0.3177232627495181
0.3674832962138085,-0.4294787827660122
0.400890868596882,-0.4492073646220446
0.4342984409799555,-0.40124783578678325
0.46770601336302897,-0.321202054889382
0.5011135857461025,-0.2398314458749323
0.534521158129176,-0.17278365203729296
0.5679287305122495,-0.12000338108423544
0.601336302895323,-0.07332714696132892
0.6347438752783965,-0.026797476847577925
0.66815144766147,0.016449638538723697
0.7015590200445435,0.04430249307079243
0.734966592427617,0.042259967979420936
0.7683741648106905,0.002551443212706409
0.801781737193764,-0.06923111367098961
0.8351893095768375,-0.15353642727923342
0.868596881959911,-0.22279100843869137
0.9020044543429845,-0.2512999537425895
0.9354120267260579,-0.22481260470175504
0.9688195991091315,-0.14570316008418807
1.002227171492205,-0.03170402873558817
1.0356347438752784,0.09107786580844622
1.069042316258352,0.19775184758863903
1.1024498886414256,0.27277066719967713
1.135857461024499,0.3133694066778885
1.1692650334075725,0.3273414241439299
1.202672605790646,0.3267876986341646
1.2360801781737194,0.321212083865934
1.269487750556793,0.3133565672840497
1.3028953229398665,0.29949302166637043
1.33630289532294,0.273426401959493
1.3697104677060135,0.2315620557928234
1.403118040089087,0.17605500115002445
1.4365256124721606,0.11438043546945846
1.469933184855234,0.05579042861565783
1.5033407572383075,0.006805867423426073
1.536748329621381,-0.03175744113153108
1.5701559020044544,-0.06477008560692145
1.603563474387528,-0.10001498979238921
1.6369710467706016,-0.14422891532252044
1.670378619153675,-0.19983788538607597
1.7037861915367485,-0.26358640117881527
1.737193763919822,-0.3272004985226924
1.7706013363028954,-0.37946024584466437
1.804008908685969,-0.40888059647844266
1.8374164810690425,-0.40641826932264274
1.8708240534521159,-0.3678286346789526
1.9042316258351895,-0.29524962499050017
1.937639198218263,-0.1974173752391372
1.9710467706013366,-0.08799792266755103
2.00445434298441,0.017882087737568598
2.0378619153674835,0.10787954655892791
2.071269487750557,0.17574823487969227
2.1046770601336307,0.22220802203706466
2.138084632516704,0.2529792772794295
2.1714922048997773,0.2750025399276673
2.204899777282851,0.29267372172090433
2.2383073496659245,0.305691135584978
2.271714922048998,0.3091348545933748
2.3051224944320716,0.2953959989028141
2.338530066815145,0.2570636062872925
2.3719376391982183,0.18987126914414615
2.405345211581292,0.09499263974303757
2.4387527839643655,-0.019882140606958372
2.472160356347439,-0.1411210404047192
2.5055679287305126,-0.2515074803578825
2.538975501113586,-0.33400436680607776
2.5723830734966593,-0.37601252423731574
2.605790645879733,-0.37290572943136185
2.6391982182628064,-0.32969391827548833
2.67260579064588,-0.26008927588936376
2.7060133630289536,-0.18292786877430733
2.739420935412027,-0.11671776977409054
2.7728285077951007,-0.07386468793228404
2.806236080178174,-0.05656535985105929
2.8396436525612474,-0.05611243873719208
2.873051224944321,-0.05627268379682478
2.9064587973273945,-0.039757437685766034
2.939866369710468,0.00469672844553378
2.9732739420935417,0.07765759376850953
3.006681514476615,0.168876951296515
3.0400890868596884,0.26182566348413533
3.073496659242762,0.3407500458495616
3.1069042316258355,0.39684203426713716
3.140311804008909,0.43054636070100294
3.1737193763919826,0.44900592252746624
3.207126948775056,0.4601523330589258
3.2405345211581293,0.4666496031959312
3.273942093541203,0.4629009240878411
3.3073496659242765,0.4366753397488945
3.34075723830735,0.3745340712177911
3.3741648106904236,0.2684026041488239
3.407572383073497,0.12023797284876273
3.4409799554565703,-0.05715218598720193
3.474387527839644,-0.2431904732973686
3.5077951002227175,-0.41492133881416715
3.541202672605791,-0.5524943436031413
3.5746102449888646,-0.6430152116806448
3.608017817371938,-0.6821604365865853
3.6414253897550113,-0.6739420411798461
3.674832962138085,-0.6293311841694668
3.7082405345211584,-0.5640897677933652
3.7416481069042318,-0.4956238413997228
3.7750556792873056,-0.4386328630274393
3.808463251670379,-0.4000977415319634
3.8418708240534527,-0.37533572974352813
3.875278396436526,-0.3475089395907195
3.9086859688195994,-0.29225995248219266
3.942093541202673,-0.18701246123645945
3.9755011135857465,-0.021861306825101623
4.00890868596882,0.19265333963471679
4.042316258351893,0.4250930160828813
4.075723830734967,0.6314297024069483
4.109131403118041,0.769605043074118
4.142538975501114,0.8145754746230988
4.1759465478841875,0.767309461409879
4.209354120267261,0.6535950346842836
4.242761692650334,0.5131054050623501
4.276169265033408,0.383712883593797
4.309576837416482,0.28816714221217715
4.342984409799555,0.22880696087023886
4.3763919821826285,0.1917378842482754
4.409799554565702,0.15721755865717463
4.443207126948775,0.1103902775445278
4.476614699331849,0.04724417581834256
4.510022271714923,-0.026033070560800637
4.543429844097996,-0.09842512378931503
4.5768374164810695,-0.16033506479504303
4.610244988864143,-0.20738451519054432
4.643652561247216,-0.24062083344621113
4.67706013363029,-0.264195859940787
4.710467706013364,-0.28254411814249797
4.743875278396437,-0.2986083780074016
4.77728285077951,-0.31346078299960245
4.810690423162584,-0.32671452970141074
4.844097995545657,-0.33695232312556955
4.877505567928731,-0.34188126609924085
4.910913140311805,-0.3384946072707336
4.944320712694878,-0.3236607100986196
4.977728285077951,-0.29517604364684186
5.011135857461025,-0.2527724754275257
5.044543429844098,-0.19835445452608844
5.077951002227172,-0.13509240540615844
5.111358574610246,-0.06572790113244475
5.144766146993319,0.00890038207073445
5.178173719376392,0.08996224531218462
5.211581291759466,0.1788054205184693
5.244988864142539,0.27376561823236334
5.278396436525613,0.36735571245531135
5.311804008908687,0.4459732443625869
5.34521158129176,0.49333998798330386
5.378619153674833,0.49681804048142997
5.412026726057907,0.4536228271629187
5.445434298440981,0.3732400230748406
5.478841870824054,0.2738972615247649
5.512249443207128,0.1742059733491485
5.545657015590201,0.08425614821996708
5.579064587973274,0.0014399696938714305
5.612472160356348,-0.08589442407733919
5.645879732739422,-0.1882999680085779
5.679287305122495,-0.3041666014355439
5.712694877505569,-0.41463477845129265
5.746102449888642,-0.4886375836434804
5.779510022271715,-0.49664460602109145
5.812917594654789,-0.42639282007755275
5.846325167037863,-0.2920668664511255
5.879732739420936,-0.1313043034434263
5.91314031180401,0.009409231280146844
5.946547884187083,0.09427822380457254
5.979955456570156,0.11326661493111392
6.01336302895323,0.08538614501925458
6.046770601336304,0.0486507507043738
6.080178173719377,0.041578528765987055
6.1135857461024505,0.08503543250149849
6.146993318485524,0.17281938450876858
6.180400890868597,0.2750634853793925
6.213808463251671,0.35248287270892104
6.247216035634745,0.37455554083384746
6.280623608017818,0.3331269595000916
6.3140311804008915,0.2453017375734959
6.347438752783965,0.14464880875709468
6.380846325167038,0.06522701882934921
6.414253897550112,0.026127820138258488
6.447661469933186,0.023665101972210487
6.481069042316259,0.034436923413671716
6.5144766146993325,0.02730160409474768
6.547884187082406,-0.021576022090831686
6.581291759465479,-0.1173392373803547
6.614699331848553,-0.24329292734873653
6.648106904231627,-0.36677049375069626
6.6815144766147,-0.4511781522035899
6.7149220489977735,-0.46930710855932184
6.748329621380847,-0.41294261595809867
6.78173719376392,-0.295497451029282
6.815144766146994,-0.14712905802164597
6.848552338530068,-0.00455007479954301
6.881959910913141,0.10051722882744833
6.915367483296214,0.15018037641366733
6.948775055679288,0.14386224489741425
6.982182628062361,0.09598400695998409
7.015590200445435,0.029429587582180495
7.048997772828509,-0.03246678842546499
7.082405345211582,-0.07263582153673731
7.115812917594655,-0.08382033176174765
7.149220489977729,-0.06844833987308506
7.182628062360802,-0.035599035958585865
7.216035634743876,0.003410235887112688
7.24944320712695,0.03918419032245124
7.282850779510023,0.06694644746802429
7.316258351893096,0.08722920177793611
7.34966592427617,0.10466888255701212
7.383073496659243,0.12552660350151398
7.416481069042317,0.15484499623582004
7.449888641425391,0.19417870696306883
7.4832962138084635,0.24055842733856164
7.516703786191537,0.28684997121877603
7.550111358574611,0.3231928244696745
7.583518930957685,0.33900981633067045
7.616926503340758,0.3252198521433595
7.650334075723832,0.27650767304606133
7.683741648106905,0.19346516028898428
7.717149220489978,0.08403635090424755
7.750556792873052,-0.03668751839207549
7.783964365256126,-0.14914238142795933
7.817371937639199,-0.2343583287620442
7.850779510022273,-0.28001766584392707
7.884187082405346,-0.2851139074681549
7.917594654788419,-0.26088106723083054
7.951002227171493,-0.22695678062506844
7.984409799554567,-0.20378101191223344
8.01781737193764,-0.2040820060015657
8.051224944320714,-0.22704908984153657
8.084632516703786,-0.25798235972967903
8.118040089086861,-0.2740695245724124
8.151447661469934,-0.2543077100510215
8.184855233853007,-0.18957724986231406
8.218262806236082,-0.08841883177883383
8.251670378619155,0.024483563377640478
8.285077951002227,0.11717669350855706
8.318485523385302,0.16342480629395364
8.351893095768375,0.15432424498097702
8.385300668151448,0.10308034775519707
8.418708240534523,0.040092694779483525
8.452115812917596,-0.00019046420838888473
8.485523385300668,0.004921071747165479
8.518930957683743,0.05525845099509982
8.552338530066816,0.12705794987172603
8.585746102449889,0.18354909151265258
8.619153674832964,0.19229079903932772
8.652561247216036,0.14111600801583202
8.68596881959911,0.04492227895314989
8.719376391982184,-0.06014385026670814
8.752783964365257,-0.13241739144796558
8.78619153674833,-0.14283450833273031
8.819599109131405,-0.08689672110338659
8.853006681514477,0.014777631582777229
8.88641425389755,0.1267869652320944
8.919821826280625,0.21445289537575915
8.953229398663698,0.2568583076369397
8.98663697104677,0.2518583638705582
9.020044543429846,0.21213674218232886
9.053452115812918,0.15585140308045345
9.086859688195991,0.09740754158941645
9.120267260579066,0.04274446149497552
9.153674832962139,-0.009623046943465904
9.187082405345212,-0.06368263311968249
9.220489977728286,-0.12049006674510254
9.25389755011136,-0.17511945950928895
9.287305122494432,-0.2172202632368607
9.320712694877507,-0.2346362730049555
9.35412026726058,-0.21841904443456897
9.387527839643653,-0.16723683519761143
9.420935412026727,-0.08945012158884624
9.4543429844098,-0.001815662060726169
9.487750556792873,0.07516507168852267
9.521158129175948,0.12392891488288359
9.55456570155902,0.13607312746128936
9.587973273942094,0.11527128783170448
9.621380846325168,0.0750670042823693
9.654788418708241,0.03203787419124343
9.688195991091314,-0.002614735972938676
9.721603563474389,-0.028688403312762175
9.755011135857462,-0.0564476423750628
9.788418708240535,-0.09963280022975017
9.82182628062361,-0.165307509415445
9.855233853006682,-0.2459839883223415
9.888641425389755,-0.31881709267998176
9.92204899777283,-0.35333577452353054
9.955456570155903,-0.3247586377022326
9.988864142538976,-0.22669988884200212
10.02227171492205,-0.0768279764086649
10.055679287305123,0.08787993341991078
10.089086859688196,0.2246765208868615
10.12249443207127,0.30141933422868394
10.155902004454344,0.30835743333170745
10.189309576837417,0.26009852921277354
10.222717149220491,0.18727374166770253
10.256124721603564,0.12230725280800676
10.289532293986637,0.08627236232616961
10.322939866369712,0.08283320146288972
10.356347438752785,0.10133001962890598
10.389755011135858,0.12627351716003551
10.423162583518932,0.14738233325568498
10.456570155902005,0.16442646294253124
10.489977728285078,0.184379929064986
10.523385300668153,0.21293878318015236
10.556792873051226,0.24583930367243975
10.590200445434299,0.26575834959061856
10.623608017817373,0.24764566217269
10.657015590200446,0.1706370840653355
10.69042316258352,0.030730822680165977
10.723830734966594,-0.1526277316304898
10.757238307349667,-0.3402990881805474
10.790645879732741,-0.48674678388365494
10.824053452115814,-0.5571926349090583
10.857461024498887,-0.5408056362516134
10.890868596881962,-0.453900523581681
10.924276169265035,-0.33192622559790036
10.957683741648108,-0.21429222776362863
10.991091314031182,-0.12911435685062603
11.024498886414255,-0.08438932940203757
11.057906458797328,-0.0685271823247953
11.091314031180403,-0.05865568369976498
11.124721603563476,-0.031972248628391334
11.158129175946549,0.025025886935362944
11.191536748329623,0.11259411590499721
11.224944320712696,0.21923011460083852
11.25835189309577,0.3264553163950066
11.291759465478844,0.41413684756390867
11.325167037861917,0.46454600497179577
11.35857461024499,0.4648709997649442
11.391982182628064,0.40889270376248876
11.425389755011137,0.29844699361767746
11.45879732739421,0.1444351938901684
11.492204899777285,-0.033620543803070405
11.525612472160358,-0.2103674308931948
11.55902004454343,-0.35958451839688754
11.592427616926505,-0.45983768935975966
11.625835189309578,-0.49875283743424514
11.659242761692651,-0.47442866801061767
11.692650334075726,-0.39394809526062285
11.726057906458799,-0.2703056302308234
11.759465478841872,-0.11949676841105328
11.792873051224946,0.0411923325289471
11.82628062360802,0.19393596419164644
11.859688195991092,0.3213067733397309
11.893095768374167,0.40839208389794496
11.92650334075724,0.4459283169048905
11.959910913140313,0.4329677928624319
11.993318485523387,0.37716877167740176
12.02672605790646,0.2918319195481256
12.060133630289533,0.1908085425925343
12.093541202672608,0.08404479233056666
12.12694877505568,-0.023494038640422488
12.160356347438753,-0.12872905012732636
12.193763919821828,-0.2252232437029944
12.227171492204901,-0.29966200136379767
12.260579064587974,-0.3334603725587796
12.293986636971049,-0.31010262507054226
12.327394209354122,-0.2251710968712471
12.360801781737194,-0.0936451072410119
12.39420935412027,0.050493870325899935
12.427616926503342,0.1639521387405198
12.461024498886415,0.2099815561518157
12.49443207126949,0.17361867590981842
12.527839643652563,0.06901576652290306
12.561247216035635,-0.0652088659921743
12.59465478841871,-0.1811519567803587
12.628062360801783,-0.24081842559910047
12.661469933184856,-0.23080935624629226
12.69487750556793,-0.16608554151005625
12.728285077951004,-0.08148152175910524
12.761692650334076,-0.01519821715493465
12.795100222717151,0.008087835771438663
12.828507795100224,-0.012964581886686949
12.861915367483297,-0.05758914714003461
12.895322939866372,-0.09401721311984229
12.928730512249444,-0.09492225787216098
12.962138084632517,-0.04998046954179615
12.995545657015592,0.03000105005976721
13.028953229398665,0.11880391996977681
13.062360801781738,0.18720416748669624
13.095768374164813,0.216023246706958
13.129175946547885,0.20384834464674276
13.162583518930958,0.1662501576653255
13.195991091314033,0.12740013631305336
13.229398663697106,0.10838131756115865
13.262806236080179,0.11770501449362492
13.296213808463254,0.1481823768189969
13.329621380846326,0.18111940249958364
13.3630289532294,0.19535013320451286
13.396436525612474,0.1765369947345129
13.429844097995547,0.12243448161309933
13.46325167037862,0.04222548952554984
13.496659242761694,-0.04877300230737689
13.530066815144767,-0.13558420791423123
13.56347438752784,-0.20781136090533675
13.596881959910915,-0.2602244035574664
13.630289532293988,-0.29077981012246734
13.66369710467706,-0.298503754000322
13.697104677060135,-0.28310074441604055
13.730512249443208,-0.24630660881825686
13.763919821826281,-0.19337710285337875
13.797327394209356,-0.13290662526257235
13.830734966592429,-0.07447099468311924
13.864142538975502,-0.025323062336159993
13.897550111358576,0.011792011041298815
13.93095768374165,0.03830270805215763
13.964365256124722,0.0572297459354271
13.997772828507797,0.07012475288311448
14.03118040089087,0.07562477151641878
14.064587973273943,0.07070473741839682
14.097995545657017,0.054026438109371244
14.13140311804009,0.029447626148137628
14.164810690423163,0.007502763509421783
14.198218262806238,0.003570281329730474
14.23162583518931,0.03296033043634923
14.265033407572384,0.10452194940358024
14.298440979955458,0.21503394698671033
14.331848552338531,0.34651732572619937
14.365256124721604,0.4679182400134489
14.398663697104679,0.5415838557080235
14.432071269487752,0.5336377578665137
14.465478841870825,0.42580881862557296
14.4988864142539,0.22487199410343964
14.532293986636972,-0.034559501258614365
14.565701559020045,-0.29676218940458515
14.59910913140312,-0.5006936069392904
14.632516703786193,-0.6001795045815337
14.665924276169266,-0.580763884907854
14.69933184855234,-0.46557253827661754
14.732739420935413,-0.30648051844771323
14.766146993318486,-0.16332044345829858
14.79955456570156,-0.07979360410909218
14.832962138084634,-0.06692994184262871
14.866369710467707,-0.10181844612450884
14.899777282850781,-0.14209044953952898
14.933184855233854,-0.14884154632039526
14.966592427616927,-0.10641593451968255
15.0,-0.029110515027313467
