Time (s),Filtered Signal
0.0,-0.07939455836818367
0.033370165745856356,0.15363770341040847
0.06674033149171271,0.2928037026381621
0.10011049723756907,0.27342395360045957
0.13348066298342542,0.08133513154743949
0.16685082872928178,-0.24471074545847832
0.20022099447513814,-0.6276320044845862
0.2335911602209945,-0.9770751733301934
0.26696132596685085,-1.2155014084491802
0.30033149171270723,-1.296915328337343
0.33370165745856356,-1.2138291375646828
0.3670718232044199,-0.9928015373439564
0.4004419889502763,-0.6823709357446245
0.43381215469613266,-0.33844417565043544
0.467182320441989,-0.011477965876316764
0.5005524861878453,0.2619380838519756
0.5339226519337017,0.46232733922201874
0.5672928176795581,0.5861203550268395
0.6006629834254145,0.6416769605748371
0.6340331491712707,0.644495183872704
0.6674033149171271,0.6130733815756201
0.7007734806629835,0.5658565774631781
0.7341436464088398,0.5187495215317649
0.7675138121546962,0.4825037478661439
0.8008839779005525,0.4600747824090151
0.8342541436464089,0.44521669078614584
0.8676243093922653,0.4240896419734159
0.9009944751381216,0.38074234528149364
0.934364640883978,0.30518105174254057
0.9677348066298344,0.2005447174351555
1.0011049723756906,0.08522393599582649
1.0344751381215471,-0.012503745329922964
1.0678453038674034,-0.06608272136040318
1.1012154696132597,-0.06354856926542211
1.1345856353591162,-0.015148570194625427
1.1679558011049724,0.048779619548181774
1.201325966850829,0.08931768445689418
1.2346961325966852,0.07445151130301146
1.2680662983425415,-0.00909257890966168
1.301436464088398,-0.1531276933987157
1.3348066298342542,-0.3345410608635033
1.3681767955801105,-0.5260309206377403
1.401546961325967,-0.7042503860649615
1.4349171270718233,-0.8513349097529841
1.4682872928176796,-0.9511002886963364
1.501657458563536,-0.9853148020726887
1.5350276243093923,-0.9354259339504452
1.5683977900552488,-0.7908661237270725
1.601767955801105,-0.5594790772875915
1.6351381215469614,-0.2726731093415798
1.6685082872928179,0.020062929581072548
1.7018784530386741,0.2666480807207339
1.7352486187845306,0.4310275010060921
1.768618784530387,0.5055768735169167
1.8019889502762432,0.5109327345256435
1.8353591160220997,0.4835995088732555
1.868729281767956,0.4581293521891566
1.9020994475138122,0.4531089215903456
1.9354696132596687,0.46738921185748383
1.968839779005525,0.48686632041784095
2.0022099447513813,0.49639693351354647
2.0355801104972375,0.4893472563796176
2.0689502762430942,0.4696850456120977
2.1023204419889505,0.4465896859835808
2.135690607734807,0.42605052246002206
2.169060773480663,0.4052676586759072
2.2024309392265193,0.3733838175430165
2.235801104972376,0.31786879156402686
2.2691712707182323,0.23243654660958896
2.3025414364640886,0.12168962760612478
2.335911602209945,-7.646671184711966e-05
2.369281767955801,-0.11492030230520378
2.402651933701658,-0.20854247390040784
2.436022099447514,-0.2749715538248347
2.4693922651933704,-0.3167946750624012
2.5027624309392267,-0.3417833747521101
2.536132596685083,-0.358448021204605
2.5695027624309392,-0.37288890179748524
2.602872928176796,-0.3877912795545655
2.636243093922652,-0.4028330215348164
2.6696132596685085,-0.41524545602217405
2.7029834254143648,-0.4199667536924275
2.736353591160221,-0.409981583255704
2.7697237569060777,-0.37797100869290146
2.803093922651934,-0.3197069390101683
2.8364640883977903,-0.23804701907478912
2.8698342541436466,-0.14502661343760864
2.903204419889503,-0.059616565731550206
2.936574585635359,-0.0006793914239637758
2.969944751381216,0.022294605089147195
3.003314917127072,0.015770494847432
3.0366850828729284,0.0013729164462951084
3.0700552486187846,0.0062763566709647285
3.103425414364641,0.04833274308842583
3.1367955801104976,0.12347759386365208
3.170165745856354,0.20330072386906037
3.20353591160221,0.24641245827393485
3.2369060773480665,0.21997428089158408
3.2702762430939227,0.12113563443677984
3.3036464088397794,-0.013930648988238445
3.3370165745856357,-0.12113697484276847
3.370386740331492,-0.13766903055580026
3.4037569060773483,-0.03673005324960888
3.4371270718232045,0.15004782237571904
3.4704972375690613,0.33686656666903253
3.5038674033149175,0.41714852801498464
3.537237569060774,0.31354672257409916
3.57060773480663,0.021765403788474486
3.6039779005524863,-0.3742235667603901
3.6373480662983426,-0.726010873221912
3.6707182320441993,-0.8759291062838593
3.7040883977900556,-0.7207256321890388
3.737458563535912,-0.2565496747289806
3.770828729281768,0.4134621925568778
3.8041988950276244,1.1114063451861749
3.837569060773481,1.6432648684467874
3.8709392265193374,1.8619879437038014
3.9043093922651937,1.7133679197613993
3.93767955801105,1.2503143815097095
3.9710497237569062,0.6119047059092056
4.0044198895027625,-0.025064511493752644
4.037790055248619,-0.505075912238898
4.071160220994475,-0.7424282440694179
4.104530386740332,-0.7418447042810883
4.1379005524861885,-0.5845849291297026
4.171270718232044,-0.38763675976580714
4.204640883977901,-0.25447647692604464
4.238011049723757,-0.23824855238608464
4.271381215469614,-0.33100510559903334
4.30475138121547,-0.4797579424366362
4.338121546961326,-0.6181311725587787
4.371491712707183,-0.697044499970164
4.404861878453039,-0.700987526063684
4.438232044198895,-0.6455061769848252
4.471602209944752,-0.5612710845842551
4.504972375690608,-0.47557721368972333
4.538342541436465,-0.40117141520772936
4.5717127071823205,-0.3363584347811024
4.605082872928177,-0.2732958049257282
4.638453038674034,-0.20728253885696857
4.67182320441989,-0.14061989353719925
4.7051933701657465,-0.07922733484182662
4.738563535911602,-0.02543469707663426
4.771933701657459,0.027072987579411872
4.805303867403316,0.09175246907105894
4.8386740331491715,0.18124503423160448
4.872044198895028,0.29756143780547467
4.905414364640884,0.4266429755229881
4.938784530386741,0.5413144209373091
4.972154696132597,0.611933054136717
5.005524861878453,0.6196353240440747
5.03889502762431,0.5654963207135631
5.072265193370166,0.47092716166482834
5.105635359116023,0.3690036287277725
5.1390055248618784,0.2907761675854
5.172375690607735,0.2528227628568309
5.205745856353592,0.25148912528928113
5.239116022099448,0.2660213891156225
5.272486187845304,0.2687712856216202
5.30585635359116,0.2376849396862121
5.339226519337017,0.16560641968691617
5.372596685082874,0.06267208609437404
5.4059668508287295,-0.04868954506277043
5.439337016574586,-0.14341356790465534
5.472707182320442,-0.2035611333055694
5.506077348066299,-0.22395879764250934
5.5394475138121555,-0.21169607260584597
5.572817679558011,-0.18048341263258186
5.606187845303868,-0.1432393093898398
5.639558011049724,-0.10682447120991946
5.672928176795581,-0.07133007874503927
5.706298342541437,-0.033621155864960346
5.739668508287293,0.007526868181383793
5.77303867403315,0.048047534201847514
5.806408839779006,0.07899360779589597
5.839779005524862,0.09033800391827558
5.873149171270718,0.07573347006166783
5.906519337016575,0.03536948135539592
5.939889502762432,-0.024623111330010432
5.9732596685082875,-0.09564615163527342
6.006629834254144,-0.17080273803842694
6.04,-0.24734267676976662
6.073370165745857,-0.32607880458627303
6.1067403314917135,-0.408173259214208
6.140110497237569,-0.4910663759347712
6.173480662983426,-0.5657601220329828
6.206850828729282,-0.6170846428329761
6.240220994475139,-0.6272990344846479
6.273591160220995,-0.5819322441426218
6.306961325966851,-0.4756949534066547
6.340331491712708,-0.31601500215014977
6.373701657458564,-0.12246595442705728
6.40707182320442,0.07808908401732284
6.440441988950277,0.25900124665368457
6.473812154696133,0.40110190618382024
6.50718232044199,0.49685387480356635
6.5405524861878455,0.5498820453208566
6.573922651933702,0.5704777178223335
6.607292817679559,0.5694449242365136
6.640662983425415,0.5532369097084759
6.674033149171271,0.5224961751747766
6.707403314917127,0.4743311808686284
6.740773480662984,0.4067971110073808
6.774143646408841,0.3229552881936425
6.8075138121546965,0.23208878829137314
6.840883977900553,0.14711213552443012
6.874254143646409,0.07927983893945964
6.907624309392266,0.032929896489017105
6.9409944751381225,0.0032526973614504314
6.974364640883978,-0.021331379252062563
7.007734806629835,-0.053027384906996065
7.041104972375691,-0.09774150882496217
7.074475138121548,-0.15100806069411826
7.107845303867403,-0.19912485184388914
7.14121546961326,-0.22529892626660014
7.174585635359117,-0.2180751948959531
7.207955801104973,-0.17807237790907907
7.241325966850829,-0.11966979982678205
7.274696132596685,-0.06647176439557342
7.308066298342542,-0.042137104958212365
7.341436464088399,-0.060297676297041886
7.3748066298342545,-0.11788269804096184
7.408176795580111,-0.19493117610166652
7.441546961325967,-0.2613672478706089
7.474917127071824,-0.2882753842855807
7.5082872928176805,-0.2591935568910853
7.541657458563536,-0.1767852081785391
7.575027624309393,-0.062122723077459974
7.608397790055249,0.053063264985031174
7.641767955801106,0.13786628638151296
7.675138121546962,0.17270781796013446
7.708508287292818,0.15487430476362252
7.741878453038675,0.09747562444908071
7.775248618784531,0.023020066230112123
7.808618784530387,-0.04524402559081273
7.841988950276244,-0.09068917004373402
7.8753591160221,-0.10695717400131169
7.908729281767957,-0.09737526619131981
7.9420994475138125,-0.07134909728969861
7.975469613259669,-0.039787665912786874
8.008839779005525,-0.0114001759806458
8.042209944751383,0.009202036128344708
8.075580110497238,0.02164136332287421
8.108950276243094,0.028754044658338838
8.14232044198895,0.03506534987082963
8.175690607734808,0.04516013194491367
8.209060773480664,0.06212958399562431
8.24243093922652,0.08627810014753894
8.275801104972377,0.11444912644970451
8.309171270718233,0.14044141220207532
8.342541436464089,0.15679445741136067
8.375911602209946,0.1576623979593501
8.409281767955802,0.1417810168811653
8.442651933701658,0.11408062173095174
8.476022099447514,0.08471415117961514
8.509392265193371,0.06527633591140071
8.542762430939227,0.06344706510351944
8.576132596685083,0.0784692062272313
8.60950276243094,0.09999206804981209
8.642872928176796,0.11153620703119928
8.676243093922652,0.09758719599136124
8.709613259668508,0.051208864183722835
8.742983425414366,-0.02167651670147634
8.776353591160222,-0.10391679620588444
8.809723756906077,-0.17438744552615523
8.843093922651935,-0.2175806968066104
8.87646408839779,-0.23071877505534624
8.909834254143647,-0.22454906652453402
8.943204419889504,-0.2170705916580101
8.97657458563536,-0.22311276733115928
9.009944751381216,-0.24501576987354082
9.043314917127072,-0.2693847279439532
9.07668508287293,-0.27206750177518163
9.110055248618785,-0.22947504308255637
9.143425414364641,-0.13107530051014377
9.176795580110499,0.01301177166276115
9.210165745856354,0.17335750221217508
9.24353591160221,0.3114331409450044
9.276906077348068,0.39436102937164347
9.310276243093924,0.40761348241061246
9.34364640883978,0.3599547074469745
9.377016574585635,0.27854979349895087
9.410386740331493,0.19670857691075244
9.443756906077349,0.139964225050998
9.477127071823205,0.11664158529612262
9.510497237569062,0.11670315271124333
9.543867403314918,0.11872804821393772
9.577237569060774,0.10125259846320049
9.610607734806631,0.05300353440423314
9.643977900552487,-0.022527796474101226
9.677348066298343,-0.10973072672058676
9.710718232044199,-0.18875931695561166
9.744088397790057,-0.24435273451010242
9.777458563535912,-0.2712903950580585
9.810828729281768,-0.2743472568003003
9.844198895027626,-0.26363957784071834
9.877569060773482,-0.24844914388763634
9.910939226519337,-0.2328982086413449
9.944309392265193,-0.21530632901084004
9.97767955801105,-0.19079620662033636
10.011049723756907,-0.15509413825076884
10.044419889502763,-0.10728633668275017
10.07779005524862,-0.05037556223887599
10.111160220994476,0.010048607028917099
10.144530386740332,0.06779353958034762
10.17790055248619,0.11751384247465055
10.211270718232045,0.15519991082363352
10.244640883977901,0.178112576955894
10.278011049723757,0.1848962356910995
10.311381215469615,0.1762296322853201
10.34475138121547,0.15562507871211465
10.378121546961326,0.12947569051671387
10.411491712707184,0.10563978596945059
10.44486187845304,0.09070461500630725
10.478232044198895,0.08706007298405007
10.511602209944753,0.09137303982170997
10.544972375690609,0.09561282504894938
10.578342541436465,0.09058661013828222
10.61171270718232,0.0705942349535839
10.645082872928178,0.037029911091093964
10.678453038674034,-0.0009808911420953995
10.71182320441989,-0.02955928955544621
10.745193370165747,-0.03562074195391476
10.778563535911603,-0.012652362714769664
10.811933701657459,0.035844735291474784
10.845303867403315,0.09682081155462058
10.878674033149172,0.15189121936584565
10.912044198895028,0.18351123958999171
10.945414364640884,0.1805669826381324
10.978784530386742,0.14125746699380595
11.012154696132598,0.0724716241594218
11.045524861878453,-0.013579123263676494
11.078895027624311,-0.1036685131793855
11.112265193370167,-0.18690907765432
11.145635359116023,-0.25606281493540395
11.179005524861878,-0.30693162969877763
11.212375690607736,-0.3369231341975341
11.245745856353592,-0.34413833103483676
11.279116022099448,-0.3277572192697323
11.312486187845305,-0.28944975753769264
11.345856353591161,-0.2346573373095781
11.379226519337017,-0.17247499043711173
11.412596685082875,-0.11366504066410399
11.44596685082873,-0.06755871490348024
11.479337016574586,-0.039390105896540385
11.512707182320442,-0.0293365736171982
11.5460773480663,-0.033362033668095405
11.579447513812156,-0.04476738980521144
11.612817679558011,-0.05511927094206992
11.646187845303869,-0.054198298828107734
11.679558011049725,-0.030025874860386832
11.71292817679558,0.02931826217472777
11.746298342541436,0.13122079940767914
11.779668508287294,0.27254074339371365
11.81303867403315,0.43515484606086496
11.846408839779006,0.5865458976219043
11.879779005524863,0.6872427838005223
11.91314917127072,0.7036306156681301
11.946519337016575,0.6213640644148203
11.979889502762433,0.4532393856548702
12.013259668508288,0.23705362097025884
12.046629834254144,0.0232704438272069
12.08,-0.14279336794345682
12.113370165745858,-0.23665081075217112
12.146740331491714,-0.26137222267345567
12.18011049723757,-0.24270350386675973
12.213480662983427,-0.2153287343969167
12.246850828729283,-0.20691888880309547
12.280220994475139,-0.22714685065415063
12.313591160220996,-0.2660240163955728
12.346961325966852,-0.3013448623244115
12.380331491712708,-0.3109793866888061
12.413701657458564,-0.28399900815818446
12.447071823204421,-0.2257034895486242
12.480441988950277,-0.15477647184929225
12.513812154696133,-0.09445639075181883
12.54718232044199,-0.06212553936486244
12.580552486187846,-0.062087294434701734
12.613922651933702,-0.0845274243795339
12.64729281767956,-0.11068595818053852
12.680662983425416,-0.12151107556621114
12.714033149171271,-0.10573936266033589
12.747403314917127,-0.0639266969389325
12.780773480662985,-0.00702326226123729
12.81414364640884,0.049400801772340394
12.847513812154697,0.09235842649730562
12.880883977900554,0.11676856142745332
12.91425414364641,0.1266737200762511
12.947624309392266,0.13210030118177765
12.980994475138122,0.1432692509417704
13.01436464088398,0.16497835376579964
13.047734806629835,0.1938095261218055
13.081104972375691,0.21947009765479433
13.114475138121549,0.22964672366426803
13.147845303867404,0.21608451829927808
13.18121546961326,0.17897399486153784
13.214585635359118,0.12747399642695387
13.247955801104974,0.07601560525842224
13.28132596685083,0.03806153090891583
13.314696132596685,0.02023629521529166
13.348066298342543,0.019578386821759778
13.381436464088399,0.02519028508299771
13.414806629834255,0.023507462125281046
13.448176795580112,0.00474677605649267
13.481546961325968,-0.03242342676255051
13.514917127071824,-0.08011247294393678
13.548287292817681,-0.1246522345752527
13.581657458563537,-0.15261709884243863
13.615027624309393,-0.15657262559685392
13.648397790055249,-0.13784384446087902
13.681767955801106,-0.10505304637940299
13.715138121546962,-0.06928448714709544
13.748508287292818,-0.038455247371914296
13.781878453038676,-0.01391215555894249
13.815248618784532,0.008859701243452534
13.848618784530387,0.0357403955309284
13.881988950276245,0.06818642488865956
13.9153591160221,0.09958001331043499
13.948729281767957,0.1162126355754273
13.982099447513813,0.10298305128049341
14.01546961325967,0.051270470292068555
14.048839779005526,-0.03492856764416233
14.082209944751382,-0.137876815393936
14.11558011049724,-0.23097251010447406
14.148950276243095,-0.287843739117848
14.182320441988951,-0.29195570899846235
14.215690607734807,-0.24277052801612542
14.249060773480664,-0.155951793446598
14.28243093922652,-0.05758671762569367
14.315801104972376,0.025170977509731993
14.349171270718234,0.07327739004700724
14.38254143646409,0.08129333412012239
14.415911602209945,0.05740391588572533
14.449281767955803,0.01852273517205691
14.482651933701659,-0.017022874551396453
14.516022099447515,-0.0360403492100923
14.54939226519337,-0.03383229928226895
14.582762430939228,-0.013664524997321532
14.616132596685084,0.016601250327251127
14.64950276243094,0.048673543555859865
14.682872928176797,0.07688925264068784
14.716243093922653,0.09922068490517288
14.749613259668509,0.11645042749272408
14.782983425414367,0.13049438000699018
14.816353591160222,0.14295421610828243
14.849723756906078,0.1545455681879598
14.883093922651934,0.16540998567437987
14.916464088397792,0.17580031921364003
14.949834254143648,0.18643574075253955
14.983204419889503,0.19803235247186954
15.016574585635361,0.21006445902802665
15.049944751381217,0.21945257064153614
15.083314917127073,0.22021886573758837
15.116685082872928,0.20487590236238046
15.150055248618786,0.16742507627679154
15.183425414364642,0.1067718428440568
15.216795580110498,0.028779017762789225
15.250165745856355,-0.0544457602625071
15.283535911602211,-0.12817254130962963
15.316906077348067,-0.18023483448206018
15.350276243093925,-0.2055575229914209
15.38364640883978,-0.2080425959287849
15.417016574585636,-0.19901402183325137
15.450386740331492,-0.19289216218785643
15.48375690607735,-0.2018095993952171
15.517127071823205,-0.2311332259596086
15.550497237569061,-0.2773923237435811
15.583867403314919,-0.3292354852733643
15.617237569060775,-0.3710568447430231
15.65060773480663,-0.3880691034245342
15.683977900552488,-0.3710646020692721
15.717348066298344,-0.3191261428798465
15.7507182320442,-0.23926557757008599
15.784088397790056,-0.14322593124809938
15.817458563535913,-0.042959342630767026
15.85082872928177,0.05308799451384787
15.884198895027625,0.14120324121485095
15.917569060773483,0.22081245058113055
15.950939226519338,0.29125659008588395
15.984309392265194,0.34898756991558566
16.01767955801105,0.38694833811697427
16.051049723756908,0.39665954581064017
16.084419889502765,0.3720598254174573
16.11779005524862,0.3132425963228402
16.151160220994477,0.22830755128695554
16.18453038674033,0.13242599677109024
16.21790055248619,0.04435908051972013
16.251270718232046,-0.018456853892465836
16.2846408839779,-0.04476383317500512
16.318011049723758,-0.03284918240407893
16.351381215469615,0.00861591190497451
16.38475138121547,0.06268391907354053
16.418121546961327,0.10878941172984317
16.451491712707185,0.12871648056757845
16.48486187845304,0.11205009177074585
16.518232044198896,0.05927802748463935
16.551602209944754,-0.018600104732928585
16.584972375690608,-0.103890525900844
16.618342541436466,-0.17809130353084768
16.651712707182323,-0.2276481789366369
16.685082872928177,-0.24740434745342857
16.718453038674035,-0.2405302752643716
16.751823204419892,-0.2152548555501599
16.785193370165747,-0.18013071446844667
16.818563535911604,-0.1401630866274745
16.851933701657458,-0.09560956179136103
16.885303867403316,-0.04387420162405969
16.918674033149173,0.016650196461348986
16.952044198895027,0.08294434889037457
16.985414364640885,0.14604599354613354
17.018784530386743,0.19308403242897365
17.052154696132597,0.21202617335839927
17.085524861878454,0.1970373748635508
17.118895027624312,0.15184017142894693
17.152265193370166,0.08926694478416303
17.185635359116024,0.02697271079052181
