Frequency (Hz),Amplitude
0.0,1.4069662727452203
0.019801980198019802,1.4074359782860415
0.039603960396039604,1.4088423514868815
0.0594059405940594,1.411177196314777
0.07920792079207921,1.4144269657928208
0.09900990099009901,1.418572928076353
0.1188118811881188,1.4235913920805134
0.13861386138613863,1.4294539862346716
0.15841584158415842,1.4361279827090851
0.1782178217821782,1.443576658611508
0.19801980198019803,1.4517596852031427
0.21782178217821782,1.460633536122667
0.2376237623762376,1.4701519058984631
0.25742574257425743,1.480266130618665
0.27722772277227725,1.4909256034503746
0.297029702970297,1.5020781786828004
0.31683168316831684,1.5136705590442021
0.33663366336633666,1.525648662146681
0.3564356435643564,1.5379579629904956
0.37623762376237624,1.5505438104696136
0.39603960396039606,1.563351716730105
0.4158415841584158,1.5763276190248252
0.43564356435643564,1.5894181143710067
0.45544554455445546,1.6025706678521752
0.4752475247524752,1.6157337958169071
0.495049504950495,1.6288572255252263
0.5148514851485149,1.6418920329916002
0.5346534653465347,1.6547907608862453
0.5544554455445545,1.6675075183986026
0.5742574257425742,1.67999806495233
0.594059405940594,1.6922198796038488
0.613861386138614,1.7041322178666767
0.6336633663366337,1.7156961575930259
0.6534653465346534,1.7268746354192954
0.6732673267326733,1.7376324751508725
0.6930693069306931,1.7479364093288057
0.7128712871287128,1.757755095090535
0.7326732673267327,1.7670591253117103
0.7524752475247525,1.775821035898958
0.7722772277227723,1.7840153099936014
0.7920792079207921,1.7916183797472893
0.8118811881188118,1.798608626239281
0.8316831683168316,1.8049663780245693
0.8514851485148516,1.8106739087290826
0.8712871287128713,1.8157154340447124
0.891089108910891,1.8200771084200316
0.9108910891089109,1.823747021693465
0.9306930693069307,1.8267151958719186
0.9504950495049505,1.8289735822199036
0.9702970297029703,1.8305160587907108
0.99009900990099,1.8313384285011356
1.00990099009901,1.8314384178246308
1.0297029702970297,1.830815676153041
1.0495049504950495,1.8294717758541086
1.0693069306930694,1.8274102130297603
1.0891089108910892,1.8246364089579519
1.108910891089109,1.8211577121781515
1.1287128712871286,1.8169834011569803
1.1485148514851484,1.8121246874437043
1.1683168316831685,1.8065947191974367
1.188118811881188,1.8004085849348843
1.2079207920792079,1.793583317311556
1.227722772277228,1.7861378967070471
1.2475247524752475,1.778093254338115
1.2673267326732673,1.769472274568705
1.2871287128712872,1.7602997960244495
1.3069306930693068,1.7506026110493669
1.3267326732673268,1.7404094629638784
1.3465346534653466,1.729751040495213
1.3663366336633662,1.718659968653568
1.3861386138613863,1.7071707952208233
1.405940594059406,1.6953199719019874
1.4257425742574257,1.6831458290653805
1.4455445544554455,1.6706885428673686
1.4653465346534653,1.6579900934222878
1.4851485148514851,1.6450942125439014
1.504950495049505,1.6320463194540837
1.5247524752475248,1.61889344273507
1.5445544554455446,1.60568412670034
1.5643564356435644,1.5924683202862615
1.5841584158415842,1.5792972465328008
1.6039603960396038,1.5662232507395986
1.6237623762376237,1.5532996254680658
1.6435643564356437,1.5405804107254466
1.6633663366336633,1.5281201679283944
1.683168316831683,1.5159737266152276
1.7029702970297032,1.5041959033699779
1.7227722772277227,1.4928411930449066
1.7425742574257426,1.4819634331234646
1.7623762376237624,1.4716154429466999
1.782178217821782,1.4618486405172262
1.801980198019802,1.4527126406687312
1.8217821782178218,1.4442548395072026
1.8415841584158414,1.4365199911404147
1.8613861386138615,1.4295497837542932
1.881188118811881,1.4233824229982248
1.900990099009901,1.4180522313344457
1.920792079207921,1.4135892724193546
1.9405940594059405,1.410019009656559
1.9603960396039604,1.4073620077491198
1.98019801980198,1.4056336853603997
2.0,1.4048441258759339
2.01980198019802,1.4049979517789184
2.0396039603960396,1.4060942663748568
2.0594059405940595,1.4081266646169
2.0792079207920793,1.4110833127009734
2.099009900990099,1.4149470940362665
2.118811881188119,1.4196958172671739
2.1386138613861387,1.425302480331324
2.1584158415841586,1.431735583167864
2.1782178217821784,1.4389594806972574
2.1980198019801978,1.4469347671050494
2.217821782178218,1.4556186822749557
2.237623762376238,1.4649655314023111
2.257425742574257,1.474927109327249
2.2772277227722775,1.4854531218944003
2.297029702970297,1.4964915976008406
2.3168316831683167,1.5079892838643805
2.336633663366337,1.5198920233633293
2.3564356435643563,1.5321451070072172
2.376237623762376,1.544693601149248
2.3960396039603964,1.5574826476092918
2.4158415841584158,1.5704577359183
2.4356435643564356,1.583564947908754
2.455445544554456,1.5967511753573014
2.4752475247524752,1.609964311839831
2.495049504950495,1.6231534202945008
2.514851485148515,1.6362688780176529
2.5346534653465347,1.6492625009554276
2.5544554455445545,1.6620876492159293
2.5742574257425743,1.674699315726729
2.594059405940594,1.6870541999151882
2.6138613861386135,1.6991107682060853
2.633663366336634,1.7108293030232937
2.6534653465346536,1.7221719418586976
2.673267326732673,1.7331027078391226
2.6930693069306932,1.7435875330874688
2.712871287128713,1.7535942760402503
2.7326732673267324,1.7630927337555364
2.7524752475247527,1.7720546501233985
2.7722772277227725,1.780453720777872
2.792079207920792,1.788265595405646
2.811881188118812,1.7954678780523223
2.8316831683168315,1.8020401259423455
2.8514851485148514,1.8079638472531099
2.8712871287128716,1.8132224982168843
2.891089108910891,1.8178014798650013
2.910891089108911,1.821688134677311
2.9306930693069306,1.82487174335438
2.9504950495049505,1.827343521890333
2.9702970297029703,1.8290966190895852
2.99009900990099,1.8301261146396437
3.00990099009901,1.830429017825149
3.0297029702970297,1.830004266942951
3.0495049504950495,1.8288527294552748
3.0693069306930694,1.826977202895696
3.089108910891089,1.8243824165212228
3.108910891089109,1.8210750336814894
3.128712871287129,1.817063654853196
3.148514851485148,1.8123588212628878
3.1683168316831685,1.80697301899381
3.1881188118811883,1.8009206834416998
3.2079207920792077,1.7942182039497105
3.227722772277228,1.7868839284126459
3.2475247524752473,1.7789381675953064
3.267326732673267,1.770403198857508
3.2871287128712874,1.7613032689187382
3.3069306930693068,1.7516645952276109
3.3267326732673266,1.7415153654244648
3.346534653465347,1.730885734298956
3.366336633663366,1.7198078175481808
3.386138613861386,1.70831568153417
3.4059405940594063,1.69644532812298
3.4257425742574257,1.684234673561816
3.4455445544554455,1.6717235202165937
3.4653465346534653,1.6589535198528893
3.485148514851485,1.6459681270008397
3.504950495049505,1.6328125408039602
3.5247524752475248,1.6195336336188046
3.5445544554455446,1.606179864514136
3.564356435643564,1.5928011757240412
3.5841584158415842,1.5794488700499905
3.603960396039604,1.5661754671953956
3.6237623762376234,1.5530345370664822
3.6435643564356437,1.5400805082014277
3.6633663366336635,1.5273684497116153
3.683168316831683,1.514953825450076
3.702970297029703,1.5028922195770875
3.722772277227723,1.4912390332816803
3.7425742574257423,1.4800491531460322
3.762376237623762,1.469376592505011
3.7821782178217824,1.4592741081440366
3.801980198019802,1.4497927957717627
3.8217821782178216,1.4409816688636552
3.841584158415842,1.4328872266502934
3.8613861386138613,1.4255530181581653
3.881188118811881,1.419019210230595
3.9009900990099013,1.4133221682857415
3.9207920792079207,1.408494059130756
3.9405940594059405,1.4045624853774108
3.96039603960396,1.4015501608397027
3.98019801980198,1.3994746357059304
4.0,1.3983480792611303
4.01980198019802,1.3981771265176277
4.03960396039604,1.3989627933497781
4.0594059405940595,1.4007004627113933
4.079207920792079,1.4033799423504958
4.099009900990099,1.406985592248454
4.118811881188119,1.4114965179244348
4.138613861386139,1.416886823877055
4.158415841584159,1.4231259198794952
4.178217821782178,1.4301788716726582
4.198019801980198,1.438006786850825
4.217821782178218,1.4465672264132625
4.237623762376238,1.4558146325397454
4.257425742574258,1.4657007635912804
4.2772277227722775,1.4761751280746083
4.297029702970297,1.487185410265754
4.316831683168317,1.4986778812871753
4.336633663366336,1.5105977906012853
4.356435643564357,1.5228897340550134
4.376237623762377,1.5354979957326773
4.3960396039603955,1.5483668619061772
4.415841584158416,1.5614409062853902
4.435643564356436,1.5746652465514726
4.455445544554455,1.5879857727962634
4.475247524752476,1.60134934899473
4.4950495049504955,1.6147039890134385
4.514851485148514,1.6279990089190837
4.534653465346535,1.6411851575124499
4.554455445544555,1.6542147270910736
4.574257425742574,1.6670416464538083
4.594059405940594,1.6796215581177474
4.613861386138614,1.691911881635725
4.633663366336633,1.7038718647923712
4.653465346534653,1.7154626243286588
4.673267326732674,1.7266471777065981
4.693069306930693,1.7373904672838956
4.712871287128713,1.7476593781276137
4.732673267326733,1.7574227505600146
4.752475247524752,1.7666513884009283
4.772277227722772,1.7753180637512866
4.792079207920793,1.783397519052395
4.811881188118812,1.7908664670556382
4.8316831683168315,1.7977035892476914
4.851485148514852,1.803889533196342
4.871287128712871,1.8094069092113938
4.891089108910891,1.8142402866530662
4.910891089108912,1.818376190165878
4.930693069306931,1.8218030960688272
4.9504950495049505,1.8245114290912579
4.97029702970297,1.8264935596079004
4.99009900990099,1.8277438014951404
5.00990099009901,1.8282584107025037
5.02970297029703,1.828035584608612
5.0495049504950495,1.8270754622076846
5.069306930693069,1.8253801251513602
5.089108910891089,1.8229535996495696
5.108910891089109,1.819801859213295
5.128712871287129,1.8159328282001068
5.148514851485149,1.811356386100089
5.1683168316831685,1.8060843724738647
5.188118811881188,1.8001305924256432
5.207920792079208,1.7935108224613174
5.227722772277227,1.7862428165438975
5.247524752475248,1.7783463121152812
5.267326732673268,1.7698430358032746
5.2871287128712865,1.7607567084752935
5.306930693069307,1.7511130492341072
5.326732673267327,1.7409397778757747
5.346534653465346,1.7302666152443567
5.366336633663367,1.7191252808218789
5.3861386138613865,1.7075494867845533
5.405940594059405,1.6955749276376682
5.425742574257426,1.683239264411729
5.445544554455446,1.6705821022629448
5.465346534653465,1.6576449601729148
5.485148514851486,1.6444712312887235
5.504950495049505,1.6311061322891536
5.524752475247524,1.6175966400104578
5.544554455445545,1.6039914134235478
5.564356435643565,1.5903406989317963
5.584158415841584,1.5766962168662602
5.603960396039604,1.563111027005405
5.623762376237624,1.549639370954615
5.643564356435643,1.5363364893035507
5.663366336633663,1.5232584116538552
5.683168316831684,1.5104617178948685
5.702970297029703,1.4980032695168157
5.7227722772277225,1.4859399103045157
5.742574257425743,1.4743281364592307
5.762376237623762,1.4632237370549204
5.782178217821782,1.4526814067406935
5.801980198019803,1.4427543337355409
5.821782178217822,1.433493767392205
5.841584158415841,1.424948570887155
5.861386138613861,1.4171647658620934
5.881188118811881,1.4101850770248405
5.900990099009901,1.4040484857311706
5.920792079207921,1.3987898023278573
5.9405940594059405,1.3944392674590442
5.96039603960396,1.3910221925535178
5.98019801980198,1.3885586492716562
6.0,1.3870632167776955
6.01980198019802,1.3865447943310945
6.03960396039604,1.3870064849103425
6.0594059405940595,1.3884455534795506
6.079207920792079,1.39085346119645
6.099009900990099,1.3942159744727942
6.118811881188119,1.3985133454745962
6.138613861386139,1.4037205585243993
6.158415841584159,1.4098076350564237
6.178217821782178,1.4167399883662906
6.198019801980198,1.4244788184440507
6.217821782178218,1.43298153670018
6.237623762376237,1.4422022103722585
6.257425742574258,1.4520920167891347
6.2772277227722775,1.4625996984017144
6.297029702970296,1.4736720104838397
6.316831683168317,1.485254154576885
6.336633663366337,1.497290192014587
6.356435643564356,1.5097234331450684
6.376237623762377,1.5224967991026848
6.396039603960396,1.5355531541251028
6.415841584158415,1.5488356074274527
6.435643564356436,1.562287784515975
6.455445544554456,1.5758540685406643
6.475247524752475,1.5894798128520478
6.495049504950495,1.6031115263503475
6.514851485148515,1.6166970335103004
6.534653465346534,1.6301856111482886
6.554455445544554,1.6435281040883418
6.574257425742575,1.6566770218976843
6.594059405940594,1.6695866188175814
6.6138613861386135,1.682212958926183
6.633663366336634,1.6945139684502084
6.653465346534653,1.706449477002152
6.673267326732673,1.7179812493689277
6.693069306930694,1.7290730093226567
6.712871287128713,1.7396904567710803
6.732673267326732,1.749801279416738
6.752475247524753,1.7593751599543042
6.772277227722772,1.7683837797055568
6.792079207920792,1.7768008194721798
6.811881188118813,1.7846019582791917
6.8316831683168315,1.7917648705851195
6.851485148514851,1.798269222449391
6.871287128712871,1.8040966670721725
6.891089108910891,1.8092308400557862
6.910891089108911,1.8136573546793848
6.930693069306931,1.8173637974290981
6.9504950495049505,1.8203397239826606
6.97029702970297,1.822576655810523
6.99009900990099,1.8240680775234301
7.00990099009901,1.8248094350681388
7.02970297029703,1.8247981348485123
7.0495049504950495,1.8240335438266901
7.069306930693069,1.8225169906386298
7.089108910891089,1.8202517677386105
7.108910891089109,1.8172431345678028
7.128712871287128,1.8134983217221365
7.148514851485149,1.8090265360730973
7.1683168316831685,1.8038389667718544
7.188118811881187,1.7979487920403665
7.207920792079208,1.7913711866230757
7.227722772277228,1.7841233297375676
7.247524752475247,1.7762244133219807
7.267326732673268,1.7676956503295584
7.287128712871287,1.7585602827654239
7.306930693069306,1.748843589097073
7.326732673267327,1.7385728905959867
7.346534653465347,1.727777556083429
7.366336633663366,1.716489004456966
7.3861386138613865,1.7047407042653728
7.405940594059406,1.6925681694775547
7.425742574257425,1.6800089504560192
7.445544554455446,1.667102618997379
7.465346534653466,1.6538907461427947
7.485148514851485,1.6404168712919407
7.504950495049505,1.6267264609783483
7.524752475247524,1.6128668554864332
7.544554455445544,1.5988872013176483
7.564356435643565,1.5848383673531874
7.584158415841584,1.5707728424245122
7.603960396039604,1.5567446119035429
7.623762376237624,1.542809010877312
7.643564356435643,1.5290225514953293
7.663366336633663,1.5154427221915798
7.683168316831684,1.5021277567081734
7.702970297029703,1.4891363712052623
7.7227722772277225,1.4765274682513745
7.742574257425743,1.4643598071656048
7.762376237623762,1.4526916410370803
7.782178217821782,1.4415803217785375
7.801980198019803,1.4310818757665724
7.821782178217822,1.4212505539547613
7.841584158415841,1.4121383617726473
7.861386138613862,1.4037945755819712
7.881188118811881,1.396265253872322
7.900990099009901,1.3895927526497762
7.92079207920792,1.3838152555034178
7.9405940594059405,1.3789663295255967
7.96039603960396,1.375074518521776
7.980198019801979,1.372162984704172
8.0,1.3702492092797829
8.01980198019802,1.3693447610160066
8.03960396039604,1.369455140036415
8.05940594059406,1.3705797018497912
8.07920792079208,1.3727116640679191
8.099009900990099,1.3758381955720191
8.118811881188119,1.3799405852069124
8.138613861386139,1.384994484578336
8.158415841584159,1.390970217347337
8.178217821782178,1.3978331456715014
8.198019801980198,1.4055440832120838
8.217821782178218,1.414059743441916
8.237623762376238,1.423333211841501
8.257425742574258,1.4333144309139088
8.277227722772277,1.4439506877075523
8.297029702970297,1.4551870946166547
8.316831683168317,1.4669670555313565
8.336633663366337,1.479232710833383
8.356435643564357,1.4919253561891175
8.376237623762377,1.5049858315041527
8.396039603960396,1.518354877712777
8.415841584158416,1.5319734602420667
8.435643564356436,1.545783058988484
8.455445544554456,1.5597259254657094
8.475247524752476,1.5737453084276383
8.495049504950495,1.5877856497507397
8.514851485148515,1.6017927526919236
8.534653465346535,1.6157139248414367
8.554455445544555,1.6294980981863414
8.574257425742575,1.6430959287097697
8.594059405940595,1.6564598778939215
8.613861386138613,1.6695442783882244
8.633663366336634,1.6823053859633152
8.653465346534654,1.6947014197092807
8.673267326732672,1.7066925922629796
8.693069306930694,1.718241131672568
8.712871287128714,1.7293112963330612
8.732673267326732,1.7398693842600825
8.752475247524753,1.7498837378119745
8.772277227722773,1.7593247448256262
8.792079207920791,1.7681648369995158
8.811881188118813,1.7763784862386218
8.831683168316832,1.7839421995704026
8.85148514851485,1.790834513147576
8.871287128712872,1.7970359857722162
8.891089108910892,1.8025291923045825
8.91089108910891,1.807298717259369
8.930693069306932,1.8113311488394905
8.950495049504951,1.814615073612816
8.97029702970297,1.8171410719992556
8.990099009900991,1.818901714702957
9.00990099009901,1.8198915601966623
9.029702970297029,1.8201071533412432
9.04950495049505,1.8195470252022516
9.06930693069307,1.81821169410652
9.089108910891088,1.8161036679640516
9.10891089108911,1.8132274478632922
9.12871287128713,1.8095895329305585
9.148514851485148,1.8051984264258423
9.16831683168317,1.800064643026866
9.188118811881187,1.7942007172301595
9.207920792079207,1.7876212127710693
9.227722772277229,1.7803427329334258
9.247524752475247,1.7723839315821353
9.267326732673267,1.7637655247085726
9.287128712871288,1.754510302226502
9.306930693069306,1.7446431396955244
9.326732673267326,1.7341910095774968
9.346534653465348,1.7231829915482153
9.366336633663366,1.7116502812904124
9.386138613861386,1.6996261970836102
9.405940594059407,1.6871461833805053
9.425742574257425,1.674247810417831
9.445544554455445,1.6609707687515165
9.465346534653467,1.647356857431573
9.485148514851485,1.6334499643433753
9.504950495049505,1.6192960370401308
9.524752475247526,1.6049430421809756
9.544554455445544,1.5904409114755422
9.564356435643564,1.5758414718263072
9.584158415841586,1.5611983571658494
9.603960396039604,1.5465668993195842
9.623762376237623,1.5320039951025
9.643564356435645,1.51756794680037
9.663366336633663,1.5033182732145713
9.683168316831683,1.4893154885898785
9.702970297029704,1.475620847023509
9.722772277227723,1.462296050397366
9.742574257425742,1.4494029185080826
9.762376237623764,1.437003020910557
9.782178217821782,1.42515727104935
9.801980198019802,1.4139254845270812
9.821782178217823,1.4033659048302378
9.841584158415841,1.3935347014615072
9.861386138613861,1.384485447152646
9.881188118811881,1.3762685825686007
9.900990099009901,1.3689308785570433
9.92079207920792,1.3625149074274525
9.94059405940594,1.357058535832649
9.96039603960396,1.3525944524503857
9.98019801980198,1.3491497437181363
10.0,1.346745530287259
10.01980198019802,1.345396675604239
10.03960396039604,1.3451115761204664
10.05940594059406,1.3458920401580718
10.07920792079208,1.347733259550097
10.099009900990099,1.3506238750033241
10.118811881188119,1.3545461329020065
10.138613861386139,1.3594761281872783
10.158415841584159,1.3653841252016747
10.178217821782178,1.3722349461397298
10.198019801980198,1.3799884151051707
10.217821782178218,1.3885998447985661
10.237623762376238,1.3980205525480236
10.257425742574258,1.408198392699621
10.277227722772277,1.4190782932163384
10.297029702970297,1.4306027855793602
10.316831683168317,1.4427125186179162
10.336633663366337,1.455346748587359
10.356435643564357,1.468443799555673
10.376237623762377,1.4819414898488985
10.396039603960396,1.4957775218723526
10.415841584158416,1.5098898340140758
10.435643564356436,1.524216914520639
10.455445544554454,1.5386980782004682
10.475247524752476,1.5532737075607377
10.495049504950495,1.5678854605337553
10.514851485148514,1.5824764473199515
10.534653465346535,1.5969913790920969
10.554455445544555,1.6113766913959842
10.574257425742573,1.6255806450726404
10.594059405940595,1.6395534074406366
10.613861386138614,1.6532471163347118
10.633663366336632,1.6666159294183958
10.653465346534654,1.6796160609868116
10.673267326732674,1.6922058082650224
10.693069306930692,1.7043455689951428
