Frequency (Hz),Amplitude
0.0,2.1752652931610816
0.04,2.1759876844920156
0.08,2.1781504786047465
0.12,2.181740591274592
0.16,2.1867363985025126
0.19999999999999998,2.193108005306568
0.24,2.200817610819731
0.27999999999999997,2.209819959231661
0.32,2.2200628641173776
0.36,2.231487792329126
0.39999999999999997,2.244030492914571
0.44,2.257621656444924
0.48,2.272187590630768
0.52,2.287650899081453
0.5599999999999999,2.3039311514166974
0.6,2.320945534550895
0.64,2.3386094767266425
0.6799999999999999,2.3568372376710056
0.72,2.3755424599977757
0.76,2.394638678612738
0.7999999999999999,2.414039786347084
0.84,2.433660455316552
0.88,2.4534165145660833
0.9199999999999999,2.473225285411903
0.96,2.4930058765447605
1.0,2.5126794414268834
1.04,2.5321694008231743
1.0799999999999998,2.5514016334779783
1.1199999999999999,2.5703046380067507
1.1600000000000001,2.5888096690404194
1.2,2.6068508505602255
1.24,2.6243652692112547
1.28,2.641293050199417
1.3199999999999998,2.6575774181729788
1.3599999999999999,2.6731647452759644
1.4,2.688004588345779
1.44,2.70204971701678
1.48,2.7152561342903376
1.52,2.7275830909426975
1.5599999999999998,2.738993094966762
1.5999999999999999,2.749451917083548
1.64,2.7589285932137657
1.68,2.767395424669238
1.72,2.774827976707108
1.76,2.781205075985868
1.7999999999999998,2.78650880736996
1.8399999999999999,2.790724510447834
1.88,2.7938407760554926
1.92,2.7958494430320453
1.9599999999999997,2.796745595374975
2.0,2.7965275599082267
2.0399999999999996,2.795196904525558
2.08,2.7927584370227874
2.12,2.7892202044845646
2.1599999999999997,2.784593493142812
2.2,2.778892828573621
2.2399999999999998,2.7721359760457216
2.28,2.7643439407757864
2.3200000000000003,2.7555409677817653
2.36,2.745754540954754
2.4,2.7350153808903013
2.44,2.7233574409312213
2.48,2.710817900774192
2.5199999999999996,2.697437156880664
2.56,2.683258808808339
2.6,2.668329640441963
2.6399999999999997,2.652699594950977
2.68,2.636421742137748
2.7199999999999998,2.6195522366638424
2.76,2.602150265455864
2.8,2.5842779823992896
2.84,2.566000428233257
2.88,2.547385433367156
2.92,2.528503501159743
2.96,2.50942766904249
2.9999999999999996,2.4902333447444507
3.04,2.4709981148000906
3.08,2.4518015225121497
3.1199999999999997,2.4327248126173586
3.16,2.413850640085313
3.1999999999999997,2.3952627407909732
3.2399999999999998,2.3770455622606113
3.28,2.3592838533182006
3.32,2.3420622122687393
3.36,2.325464594254522
3.4,2.3095737796078595
3.44,2.2944708063851076
3.4799999999999995,2.2802343717728877
3.52,2.266940208662459
3.5599999999999996,2.2546604453293853
3.5999999999999996,2.2434629577534584
3.64,2.2334107255753426
3.6799999999999997,2.2245612039096945
3.7199999999999998,2.2169657241163376
3.76,2.2106689370748023
3.7999999999999994,2.205708312433694
3.84,2.202113706661423
3.88,2.199907011490712
3.9199999999999995,2.1991018925473944
3.96,2.1997036256495117
4.0,2.2017090355594937
4.04,2.2051065390086775
4.079999999999999,2.209876290749319
4.12,2.215990428393575
4.16,2.2234134090346656
4.199999999999999,2.232102428255561
4.24,2.2420079102265644
4.28,2.253074056247725
4.319999999999999,2.26523943833528
4.36,2.2784376242718043
4.4,2.2925978208907987
4.4399999999999995,2.3076455231721145
4.4799999999999995,2.3235031578914738
4.5200000000000005,2.340090711991997
4.56,2.3573263374258238
4.6,2.375126925854173
4.640000000000001,2.393408648212287
4.68,2.4120874556754566
4.72,2.4310795399545064
4.76,2.450301752071921
4.8,2.4696719798060855
4.84,2.4891094848366415
4.88,2.508535201285289
4.92,2.5278719978362263
4.96,2.547044905957388
5.0,2.5659813169484678
5.039999999999999,2.5846111506357943
5.08,2.6028669985388557
5.12,2.6206842442681038
5.159999999999999,2.6380011637963316
5.2,2.6547590080918275
5.24,2.6709020704232462
5.279999999999999,2.6863777404545854
5.319999999999999,2.701136547052098
5.36,2.7151321915294826
5.3999999999999995,2.7283215728685497
5.4399999999999995,2.7406648062726995
5.48,2.7521252362421262
5.52,2.762669445204187
5.56,2.7722672585897867
5.6,2.780891747117546
5.64,2.7885192269306645
5.68,2.7951292581265768
5.72,2.800704642125339
5.76,2.805231418238253
5.8,2.8086988597219915
5.84,2.81109946953463
5.879999999999999,2.8124289759466645
5.92,2.812686328101488
5.96,2.8118736915643625
5.999999999999999,2.8099964438453937
6.04,2.807063169829435
6.08,2.8030856569925606
6.119999999999999,2.798078890230008
6.16,2.7920610460628144
6.2,2.785053485928829
6.239999999999999,2.777080748197196
6.279999999999999,2.7681705384726913
6.32,2.758353717676755
6.359999999999999,2.747664287304366
6.3999999999999995,2.7361393711600166
6.44,2.723819192770799
6.4799999999999995,2.710747047560298
6.52,2.6969692687435236
6.56,2.682535185771119
6.6,2.6674970740118464
6.64,2.6519100942177527
6.68,2.6358322201692985
6.72,2.6193241527518296
6.76,2.602449218575563
6.8,2.5852732511246637
6.84,2.567864452315516
6.88,2.550293232269235
6.92,2.5326320250702663
6.959999999999999,2.5149550783040824
7.0,2.497338214256937
7.04,2.4798585608339003
7.08,2.4625942505233813
7.119999999999999,2.4456240861213407
7.16,2.429027172439018
7.199999999999999,2.412882513863429
7.239999999999999,2.3972685784245793
7.28,2.3822628299444597
7.32,2.367941230889913
7.359999999999999,2.354377719702873
7.3999999999999995,2.3416436676050982
7.4399999999999995,2.329807321126249
7.4799999999999995,2.318933237828819
7.52,2.309081723836311
7.5600000000000005,2.3003082827411174
7.599999999999999,2.2926630862029396
7.64,2.2861904769773886
7.68,2.2809285151782075
7.719999999999999,2.276908578231198
7.76,2.2741550242018214
7.800000000000001,2.2726849269757774
7.839999999999999,2.2725078901755715
7.88,2.2736259447674967
7.92,2.2760335331386363
7.959999999999999,2.279717580108091
8.0,2.284657648997367
8.040000000000001,2.290826178640299
8.08,2.298188795174101
8.12,2.306704690715123
8.159999999999998,2.3163270596571843
8.2,2.3270035823815296
8.24,2.3386769456513608
8.28,2.3512853888683884
8.32,2.364763265658568
8.36,2.379041610874877
8.399999999999999,2.3940487039901215
8.44,2.409710620930189
8.48,2.4259517675949693
8.52,2.4426953895633163
8.56,2.459864053719878
8.6,2.477380098727402
8.639999999999999,2.4951660523604495
8.68,2.5131450146905414
8.72,2.531241006952814
8.76,2.549379286625616
8.8,2.56748662981784
8.84,2.585491582492482
8.879999999999999,2.6033246823698906
8.92,2.620918653564318
8.959999999999999,2.6382085761278113
9.0,2.6551320327212635
9.040000000000001,2.671629234617648
9.079999999999998,2.6876431291812413
9.12,2.7031194908698213
9.16,2.7180069976855403
9.2,2.732257294862543
9.24,2.7458250474326427
9.280000000000001,2.758667983160146
9.32,2.7707469271874645
9.36,2.7820258295876434
9.399999999999999,2.792471786880904
9.44,2.802055058440651
9.48,2.8107490785916127
9.52,2.818530465088534
9.559999999999999,2.825379024558632
9.6,2.8312777553938666
9.639999999999999,2.836212848489882
9.68,2.840173686146084
9.72,2.843152839365045
9.76,2.845146063718255
9.8,2.846152293878137
9.84,2.8461736368522503
9.879999999999999,2.8452153638937663
9.92,2.8432859010013516
9.959999999999999,2.840396817861087
10.0,2.836562815021448
10.04,2.831801709029443
10.079999999999998,2.8261344151903005
10.12,2.819584927544752
10.16,2.8121802955854567
10.2,2.8039505971579373
10.24,2.794928906910529
10.280000000000001,2.7851512595729906
10.319999999999999,2.774656607254119
10.36,2.7634867698562524
10.4,2.7516863776095186
10.44,2.7393028046325942
10.48,2.7263860923321657
10.52,2.712988861362095
10.559999999999999,2.6991662107799934
10.6,2.6849756029667797
10.639999999999999,2.6704767328197674
10.68,2.6557313796974134
10.72,2.64080324059113
10.76,2.6257577430341934
10.799999999999999,2.6106618363377674
10.84,2.59558375987841
10.879999999999999,2.580592787358223
10.92,2.565758946226471
10.96,2.551152711796803
11.0,2.5368446760221297
11.04,2.522905191402092
11.08,2.5094039910947568
11.12,2.496409786978417
11.16,2.4839898481504226
11.2,2.4722095631404155
11.24,2.4611319899318094
11.28,2.4508173986982524
11.319999999999999,2.441322812936042
11.36,2.432701555369705
11.4,2.4250028055843056
11.44,2.418271176753137
11.48,2.412546319044575
11.52,2.407862557274871
11.559999999999999,2.4042485701018994
11.6,2.4017271175176256
11.64,2.4003148225985806
11.68,2.4000220124330935
11.72,2.400852621896122
11.759999999999998,2.402804162535624
11.799999999999999,2.405867757327785
11.84,2.410028240518072
11.879999999999999,2.4152643202598827
11.92,2.421548800358253
11.96,2.4288488561819688
11.999999999999998,2.4371263587712915
12.04,2.4463382403749323
12.08,2.456436894117548
12.12,2.467370600231895
12.16,2.479083971276813
12.200000000000001,2.4915184089804625
12.239999999999998,2.5046125657656524
12.28,2.518302804591674
12.32,2.532523651443394
12.36,2.5472082355720023
12.4,2.5622887134030705
12.44,2.5776966728418587
12.479999999999999,2.5933635154934795
12.52,2.609220815053463
12.559999999999999,2.6252006507952137
12.6,2.64123591567406
12.64,2.657260599076917
12.68,2.673210044671159
12.719999999999999,2.689021184148108
12.76,2.7046327479208396
12.799999999999999,2.719985454029615
12.84,2.7350221766391725
12.88,2.749688095588878
12.92,2.7639308284879225
12.959999999999999,2.777700546841528
12.999999999999998,2.7909500776579668
13.04,2.8036349919271166
13.08,2.8157136812849863
13.12,2.827147424090458
13.16,2.8379004420443525
13.2,2.847939948380625
13.239999999999998,2.8572361885573585
13.28,2.865762474273502
13.32,2.8734952115374512
13.36,2.8804139234166395
13.4,2.8865012680036597
13.44,2.891743052044891
13.479999999999999,2.896128240591345
13.52,2.8996489629493736
13.559999999999999,2.9023005151295456
13.6,2.9040813589159455
13.64,2.904993117603974
13.68,2.9050405683829115
13.719999999999999,2.904231631268283
13.76,2.902577354419109
13.799999999999999,2.9000918956050548
13.84,2.8967924995184324
13.88,2.8926994705554283
13.919999999999998,2.887836140619751
13.959999999999999,2.882228831430136
14.0,2.875906810740977
14.04,2.8689022418132537
14.08,2.861250125401706
14.120000000000001,2.852988233454747
14.16,2.8441570336575217
14.2,2.834799603887679
14.239999999999998,2.8249615355997446
14.28,2.814690825110892
14.32,2.8040377517308945
14.36,2.793054741666514
14.399999999999999,2.7817962166393118
14.44,2.770318426190546
14.479999999999999,2.758679262712541
14.52,2.746938058347267
14.56,2.7351553630352483
14.6,2.723392703185483
14.64,2.7117123206741147
14.68,2.7001768921684723
14.719999999999999,2.6888492291157498
14.76,2.6777919591306123
14.799999999999999,2.667067189961027
14.84,2.6567361577000237
14.879999999999999,2.646858861434226
14.919999999999998,2.637493687064811
14.959999999999999,2.628697023587418
15.0,2.620522875654792
15.04,2.613022476747969
15.079999999999998,2.6062439077244397
15.120000000000001,2.6002317258705285
15.159999999999998,2.595026609835864
15.199999999999998,2.590665025948522
15.24,2.5871789213820966
15.28,2.584595449457787
15.319999999999999,2.582936732009825
15.36,2.582219663223453
15.399999999999999,2.582455758681383
15.439999999999998,2.5836510525466934
15.48,2.585806044893579
15.52,2.588915700206014
15.559999999999999,2.592969497035189
15.600000000000001,2.597951527779979
15.639999999999999,2.6038406465700867
15.679999999999998,2.610610662325896
15.72,2.618230573274977
15.76,2.6266648385476876
15.799999999999999,2.6358736819715625
15.84,2.6458134228450576
15.879999999999999,2.656436828297103
15.919999999999998,2.6676934818224436
15.96,2.6795301627111683
16.0,2.69189123134498
16.04,2.7047190156912833
16.080000000000002,2.7179541947643577
16.12,2.7315361753172236
16.16,2.7454034585543665
16.200000000000003,2.75949399419321
16.24,2.7737455197326515
16.279999999999998,2.7880958832944236
16.319999999999997,2.8024833488758736
16.36,2.8168468832821514
16.4,2.8311264243862104
16.439999999999998,2.8452631306938336
16.48,2.859199612467366
16.52,2.8728801448877177
16.56,2.8862508639120055
16.6,2.8992599456179375
16.64,2.9118577699200308
16.68,2.9239970696020268
16.72,2.935633065638601
16.759999999999998,2.9467235897831587
16.799999999999997,2.9572291953806786
16.84,2.967113257329865
16.88,2.976342062070222
16.919999999999998,2.9848848884106327
16.96,2.99271407994877
17.0,2.9998051097574936
17.04,3.006136637937049
17.080000000000002,3.0116905625512977
17.12,3.016452064383966
17.16,3.0204096458669203
17.2,3.0235551644477265
17.24,3.0258838605782143
17.279999999999998,3.027394380419309
17.32,3.0280887932703746
17.36,3.0279726036430357
17.4,3.027054757810185
17.44,3.025347644570203
17.48,3.022867089874241
17.52,3.0196323448708937
17.56,3.0156660668274795
17.6,3.010994292291427
17.64,3.0056464017586753
17.68,2.999655075020396
17.72,2.993056236265238
17.759999999999998,2.985888987923973
17.799999999999997,2.9781955321587454
17.84,2.9700210788231987
17.88,2.9614137386557577
17.919999999999998,2.952424400420245
17.96,2.943106590680798
18.0,2.9335163148963757
18.04,2.923711878550455
18.080000000000002,2.9137536870991485
18.12,2.9037040236331495
18.159999999999997,2.8936268033110877
18.2,2.883587303840523
18.24,2.8736518715626085
18.279999999999998,2.863887603041342
18.32,2.8543620024698977
18.36,2.845142615684403
18.4,2.8362966421156175
18.44,2.827890526604202
18.48,2.819989533643944
18.52,2.8126573072838656
18.560000000000002,2.8059554205942963
18.6,2.799942919259636
18.64,2.7946758644743857
18.679999999999996,2.7902068808588383
18.72,2.786584715546544
18.759999999999998,2.783853814897075
18.799999999999997,2.782053925428476
18.84,2.7812197255220013
18.88,2.7813804942131384
18.919999999999998,2.782559822941468
18.96,2.7847753754917846
19.0,2.7880387005352727
19.04,2.7923551001968683
19.080000000000002,2.7977235569682395
19.119999999999997,2.804136720096381
19.159999999999997,2.811580951352704
19.2,2.8200364288751687
19.24,2.829477306624416
19.279999999999998,2.8398719259473846
19.32,2.851183074835627
19.36,2.8633682897289385
19.4,2.876380194166104
19.44,2.8901668682319728
19.48,2.9046722425917677
19.52,2.919836510928218
19.560000000000002,2.9355965547875247
19.6,2.9518863751710787
19.639999999999997,2.9686375256554665
19.68,2.9857795423533755
19.72,3.0032403666149157
19.759999999999998,3.0209467569849404
19.8,3.038824687553532
19.84,3.0567997304430268
19.88,3.0747974207495843
19.919999999999998,3.0927436027872655
19.96,3.1105647569602
20.0,3.1281883070074037
20.04,3.1455429077242885
20.08,3.162558713564556
20.119999999999997,3.179167628768925
20.159999999999997,3.195303539856679
20.2,3.210902531457266
20.24,3.225903086557663
20.279999999999998,3.240246272302292
20.32,3.25387591251166
20.36,3.2667387480889265
20.4,3.278784586464656
20.44,3.2899664411941316
20.48,3.300240662771698
20.52,3.309567061666568
20.560000000000002,3.3179090245163434
20.599999999999998,3.3252336243406204
20.639999999999997,3.3315117255585673
20.68,3.3367180845126247
20.72,3.3408314461156583
20.759999999999998,3.343834637151405
20.8,3.3457146566674116
20.84,3.3464627638054307
20.88,3.346074563315294
20.92,3.344550088893742
20.96,3.341893884377679
21.0,3.338115082700494
21.04,3.3332274823884642
21.08,3.3272496212296407
21.119999999999997,3.320204846588149
21.159999999999997,3.31212138165999
21.2,3.3030323867703792
21.24,3.2929760145950846
21.279999999999998,3.2819954579476613
21.32,3.270138988509486
21.36,3.257459984589755
21.4,3.2440169456882333
21.44,3.2298734912967846
21.48,3.2150983410196057
21.52,3.199765272722786
21.56,3.183953055049393
21.599999999999998,3.1677453502687163
21.639999999999997,3.1512305830826737
21.68,3.1345017707088307
21.72,3.117656309321626
21.759999999999998,3.100795711790773
21.8,3.0840252916413085
21.84,3.0674537883109707
21.88,3.051192929136915
21.92,3.0353569241057494
21.96,3.020061890286341
22.0,3.005425204065729
22.04,2.991564780846634
22.08,2.978598283745867
22.119999999999997,2.9666422650424664
22.16,2.9558112466207187
22.2,2.9462167483667803
22.24,2.937966276305354
22.28,2.9311622850715464
22.32,2.9259011319420525
22.36,2.9222720419210737
22.4,2.9203561051044766
22.44,2.9202253285568553
22.48,2.9219417650826283
22.519999999999996,2.9255567404533234
22.56,2.931110198828499
22.599999999999998,2.9386301833092245
22.639999999999997,2.948132464897936
22.68,2.9596203287857223
22.72,2.9730845220838287
22.759999999999998,2.9885033621357473
22.8,3.005842999677608
22.84,3.025057826633367
22.88,3.0460910144753615
22.92,3.068875166031738
22.96,3.093333061492316
23.0,3.119378478193318
23.04,3.1469170635189676
23.08,3.1758472408564486
23.119999999999997,3.206061129846915
23.16,3.2374454640307984
23.2,3.2698824912198745
23.24,3.303250844376931
23.28,3.337426373296267
23.32,3.3722829298294688
23.36,3.4076931016919505
23.400000000000002,3.4435288919480267
23.44,3.479662343062039
23.479999999999997,3.515966105901876
23.519999999999996,3.5523139552885965
23.56,3.5885812546163036
23.599999999999998,3.6246453727443795
23.639999999999997,3.660386056820409
23.68,3.6956857649594363
23.72,3.7304299628178264
23.759999999999998,3.764507388089229
23.8,3.7978102868456634
23.84,3.8302346254737922
23.88,3.861680281737111
23.92,3.8920512182469653
23.96,3.921255641363694
23.999999999999996,3.9492061482848086
24.04,3.9758198648188134
24.08,4.00101857609649
24.119999999999997,4.024728852241205
24.16,4.046882170807273
24.2,4.067415037603054
24.24,4.086269107342111
24.28,4.103391305411869
24.32,4.118733951912402
24.36,4.1322548889973225
24.400000000000002,4.1439176124412205
24.439999999999998,4.153691408261883
24.479999999999997,4.161551495136953
24.52,4.167479173271228
24.56,4.171461980288278
24.599999999999998,4.173493854635055
24.64,4.173575306895576
24.68,4.171713599305146
24.72,4.16792293363394
24.759999999999998,4.162224647461638
24.8,4.154647418686013
24.84,4.14522747788945
24.88,4.134008827919124
24.92,4.121043469708151
24.959999999999997,4.106391632965332
24.999999999999996,4.090122009876691
25.04,4.072311989380201
25.08,4.0530478888810135
25.119999999999997,4.032425179455064
25.16,4.0105486996303465
25.2,3.9875328517279507
25.24,3.9635017734817057
25.28,3.9385894762367863
25.32,3.9129399394627513
25.36,3.8867071496283576
25.4,3.860055069713712
25.439999999999998,3.8331575238423623
25.479999999999997,3.8061979797914915
25.52,3.7793692106036945
25.56,3.7528728153365
25.599999999999998,3.7269185783391405
25.64,3.7017236465687353
25.68,3.677511505604451
25.72,3.654510737453956
25.76,3.6329535472251675
25.8,3.613074051465382
25.84,3.59510632856994
25.880000000000003,3.5792822411193606
25.919999999999998,3.5658290511210975
25.959999999999997,3.5549668614918444
25.999999999999996,3.546905930058463
26.04,3.5418439149858854
26.08,3.5399631217798255
26.119999999999997,3.5414278306867364
26.16,3.546381788286845
26.2,3.554945947405355
26.24,3.5672165345620206
26.28,3.58326351393446
26.32,3.603129501677151
26.36,3.6268291654172087
26.4,3.6543491222965057
26.439999999999998,3.6856483267862026
26.479999999999997,3.720658918466145
26.52,3.7592874816730197
26.56,3.8014166546503074
26.599999999999998,3.8469070163606545
26.64,3.8955991746885843
26.68,3.9473159801056763
26.72,4.001864793325079
26.76,4.0590397431058705
26.8,4.118623920131554
26.84,4.180391463749159
26.88,4.244109509402293
26.919999999999998,4.3095399750916705
26.959999999999997,4.37644117462778
27.0,4.444569253483677
27.04,4.5136794495736865
27.08,4.5835271862788085
27.119999999999997,4.653869008618645
27.16,4.724463375802378
27.2,4.7950713246796095
27.24,4.865457019064982
27.28,4.935388199727089
27.32,5.004636549189942
27.36,5.072977984545727
27.4,5.140192890344034
27.439999999999998,5.206066302401685
27.479999999999997,5.27038805214173
27.52,5.332952879871331
27.56,5.393560524282218
27.599999999999998,5.452015794425175
27.64,5.50812862948376
27.68,5.561714150856728
27.72,5.612592710351759
27.76,5.660589937692134
27.8,5.705536790035561
27.839999999999996,5.747269605794041
27.88,5.785630164718122
27.919999999999998,5.820465755960575
27.959999999999997,5.851629255658008
28.0,5.87897921545842
28.04,5.902379963374617
28.08,5.921701718354835
28.12,5.936820720032223
28.16,5.947619375244083
28.2,5.953986423102878
28.240000000000002,5.955817120657885
28.28,5.953013451516081
28.32,5.945484360202445
28.359999999999996,5.93314601554566
