Frequency (Hz),Amplitude
0.0,1.4237962980756826
0.01978021978021978,1.4343679881307068
0.03956043956043956,1.4655849261582645
0.05934065934065934,1.5160546257896363
0.07912087912087912,1.5837503211456678
0.0989010989010989,1.6663257441922954
0.11868131868131868,1.7613891753274844
0.13846153846153844,1.866689659383742
0.15824175824175823,1.980214460703409
0.17802197802197803,2.1002203629071183
0.1978021978021978,2.2252251012730153
0.21758241758241756,2.3539794301397112
0.23736263736263735,2.485432789022822
0.2571428571428572,2.618699544379685
0.2769230769230769,2.7530289360452884
0.2967032967032967,2.8877797030840697
0.31648351648351647,3.0223992989303956
0.3362637362637363,3.1564071605030715
0.35604395604395606,3.2893813707141804
0.3758241758241758,3.420948077109919
0.3956043956043956,3.550773110875934
0.4153846153846154,3.6785553459121094
0.4351648351648351,3.80402142759845
0.45494505494505494,3.9269215781019366
0.4747252747252747,4.047026248312741
0.4945054945054945,4.164123436905832
0.5142857142857143,4.278016536586143
0.5340659340659341,4.388522598356372
0.5538461538461538,4.495470928491264
0.5736263736263736,4.598701951345179
0.5934065934065934,4.698066285391664
0.6131868131868132,4.793423990956076
0.6329670329670329,4.884643956701421
0.6527472527472528,4.97160339863279
0.6725274725274726,5.054187450635749
0.6923076923076923,5.132288829689822
0.7120879120879121,5.205807562156829
0.7318681318681318,5.274650760127368
0.7516483516483516,5.338732438868386
0.7714285714285715,5.3979733680634885
0.7912087912087912,5.452300950865605
0.810989010989011,5.501649125855562
0.8307692307692308,5.5459582878747895
0.8505494505494506,5.585175224416648
0.8703296703296702,5.619253064851602
0.8901098901098901,5.648151240252681
0.9098901098901099,5.671835451999816
0.9296703296703297,5.690277647691168
0.9494505494505494,5.703456003190174
0.9692307692307692,5.711354909899047
0.989010989010989,5.713964966583048
1.0087912087912088,5.711282975281587
1.0285714285714287,5.703311941040138
1.0483516483516484,5.690061075386284
1.0681318681318681,5.671545803660419
1.087912087912088,5.647787776501934
1.1076923076923075,5.618814885991524
1.1274725274725275,5.5846612871650265
1.1472527472527472,5.545367425851867
1.1670329670329669,5.500980074058676
1.1868131868131868,5.451552374426362
1.2065934065934065,5.397143895647097
1.2263736263736265,5.337820701151221
1.2461538461538462,5.273655433878582
1.2659340659340659,5.204727420556941
1.2857142857142858,5.131122799647106
1.3054945054945055,5.052934678015092
1.3252747252747252,4.970263322498037
1.3450549450549452,4.883216393897955
1.3648351648351649,4.791909232636081
1.3846153846153846,4.696465207421599
1.4043956043956045,4.597016140949214
1.4241758241758242,4.493702829993996
1.443956043956044,4.3866756815180405
1.4637362637362636,4.276095491802343
1.4835164835164834,4.162134402509156
1.5032967032967033,4.04497707641007
1.523076923076923,3.924822146863078
1.542857142857143,3.801884009741966
1.5626373626373626,3.6763950453822063
1.5824175824175823,3.548608382439983
1.6021978021978023,3.418801346881869
1.621978021978022,3.2872797794310773
1.6417582417582417,3.154383455642581
1.6615384615384616,3.0204929061205235
1.6813186813186813,2.8860380109387513
1.7010989010989013,2.751508829944317
1.720879120879121,2.6174692206828434
1.7406593406593405,2.484573866046718
1.7604395604395604,2.3535893358998328
1.7802197802197801,2.2254196438120295
1.7999999999999998,2.101136251263531
1.8197802197802198,1.9820113084503126
1.8395604395604395,1.869550633456245
1.8593406593406594,1.7655189483983154
1.879120879120879,1.671943877034122
1.8989010989010988,1.5910779896901726
1.9186813186813187,1.52529340292857
1.9384615384615385,1.4768889428494223
1.9582417582417584,1.4478152417196104
1.978021978021978,1.4393689942465147
1.9978021978021978,1.451951492705978
2.0175824175824175,1.4849879136126942
2.0373626373626372,1.53704315524639
2.0571428571428574,1.6060832705224093
2.076923076923077,1.6897814956558128
2.096703296703297,1.7857800145093905
2.1164835164835165,1.8918657293551842
2.1362637362637362,2.00606118348957
2.1560439560439564,2.1266528802304827
2.175824175824176,2.2521820573072873
2.195604395604396,2.3814172839466603
2.215384615384615,2.513321098352319
2.2351648351648348,2.6470172665003497
2.254945054945055,2.7817616215902565
2.2747252747252746,2.9169174105039533
2.2945054945054943,3.0519350639167047
2.314285714285714,3.1863358813503746
2.3340659340659338,3.3196990004858713
2.353846153846154,3.451651040076531
2.3736263736263736,3.581857882149489
2.3934065934065933,3.710018149640264
2.413186813186813,3.8358580213222426
2.4329670329670328,3.9591270998434442
2.452747252747253,4.0795951094609375
2.4725274725274726,4.1970492486629745
2.4923076923076923,4.311292061120281
2.512087912087912,4.422139718243804
2.5318681318681318,4.52942062979293
2.5516483516483515,4.632974316934283
2.5714285714285716,4.732650496073349
2.5912087912087913,4.828308332592193
2.610989010989011,4.919815832043915
2.6307692307692307,5.007049342928676
2.6505494505494505,5.089893150330629
2.6703296703296706,5.168239143751855
2.6901098901098903,5.241986545687337
2.70989010989011,5.311041690031635
2.7296703296703297,5.375317841440622
2.7494505494505495,5.434735048400817
2.769230769230769,5.489220024072172
2.7890109890109893,5.538706050034054
2.808791208791209,5.58313289893132
2.8285714285714287,5.62244677272858
2.8483516483516484,5.656600253868073
2.8681318681318677,5.685552267115819
2.887912087912088,5.709268050291915
2.9076923076923076,5.7277191324302965
2.9274725274725273,5.740883318214726
2.947252747252747,5.748744677801161
2.9670329670329667,5.751293541372531
2.986813186813187,5.748526497986429
3.0065934065934066,5.740446398477707
3.0263736263736263,5.727062362371873
3.046153846153846,5.708389788957413
3.0659340659340657,5.684450372862051
3.085714285714286,5.65527212468504
3.1054945054945056,5.620889397461574
3.1252747252747253,5.581342919983466
3.145054945054945,5.536679838280692
3.1648351648351647,5.4869537668910455
3.184615384615385,5.432224851921561
3.2043956043956046,5.372559848350444
3.2241758241758243,5.308032214548989
3.243956043956044,5.238722227641991
3.2637362637362637,5.164717124100187
3.2835164835164834,5.086111270904102
3.3032967032967036,5.003006373779964
3.3230769230769233,4.9155117304421205
3.342857142857143,4.823744538555341
3.3626373626373627,4.727830270348069
3.3824175824175824,4.627903128585682
3.4021978021978025,4.524106602107362
3.4219780219780223,4.416594143544515
3.441758241758242,4.305529997437451
3.4615384615384617,4.191090214092627
3.481318681318681,4.073463893620967
3.501098901098901,3.952854716243501
3.520879120879121,3.8294828298825925
3.5406593406593405,3.703587185211682
3.5604395604395602,3.5754284328757873
3.58021978021978,3.445292528916153
3.5999999999999996,3.313495234107496
3.61978021978022,3.180387742510581
3.6395604395604395,3.046363735142711
3.659340659340659,2.9118682258654234
3.679120879120879,2.7774086444042765
3.6989010989010986,2.643568674285934
3.718681318681319,2.5110254048086387
3.7384615384615385,2.3805703111964687
3.758241758241758,2.253134341308015
3.7780219780219784,2.129816774826832
3.7978021978021976,2.0119162289426358
3.8175824175824173,1.9009597829611486
3.8373626373626375,1.7987222248057604
3.8571428571428568,1.7072217857814151
3.876923076923077,1.6286726005646197
3.896703296703296,1.565371365969801
3.916483516483517,1.519503519683247
3.936263736263736,1.4928801256020359
3.956043956043956,1.4866581809529862
3.9758241758241755,1.5011318501612607
3.9956043956043956,1.5356762605053984
4.015384615384615,1.5888678401666565
4.035164835164835,1.6587306236512906
4.054945054945055,1.7430182799929235
4.0747252747252745,1.8394545719244315
4.094505494505494,1.9458961603051308
4.114285714285715,2.0604186589832865
4.134065934065934,2.1813453315305336
4.153846153846154,2.307240650521756
4.173626373626373,2.4368862404140463
4.193406593406594,2.569250523302709
4.213186813186813,2.7034583511652666
4.232967032967033,2.83876358315763
4.252747252747253,2.974525644418176
4.2725274725274724,3.11019011283865
4.292307692307692,3.2452729385597596
4.312087912087913,3.3793477533128464
4.331868131868132,3.5120357226658494
4.351648351648352,3.6429974513661407
4.371428571428571,3.7719265282642604
4.391208791208792,3.8985443730176015
4.410989010989011,4.02259611385016
4.43076923076923,4.143847281774393
4.450549450549451,4.262081152176087
4.4703296703296695,4.377096600854915
4.49010989010989,4.4887063700939205
4.50989010989011,4.596735662610369
4.52967032967033,4.701020998620436
4.549450549450549,4.801409284801202
4.569230769230769,4.897757054509297
4.589010989010989,4.989929846885669
4.608791208791209,5.0778016989617765
4.628571428571428,5.161254729985335
4.648351648351649,5.240178801214094
4.6681318681318675,5.314471237621674
4.687912087912088,5.384036600504686
4.707692307692308,5.44878650201613
4.7274725274725276,5.508639454286472
4.747252747252747,5.563520747115638
4.767032967032967,5.613362349292659
4.786813186813187,5.658102829476433
4.806593406593407,5.697687293291747
4.826373626373626,5.73206733389156
4.846153846153847,5.761200993734454
4.8659340659340655,5.785052735745957
4.885714285714286,5.80359342239066
4.905494505494506,5.816800301491095
4.9252747252747255,5.824656997901583
4.945054945054945,5.827153510388893
4.964835164835165,5.824286213295063
4.984615384615385,5.816057862768102
5.004395604395604,5.802477607549956
5.024175824175824,5.78356100451414
5.043956043956045,5.7593300393540225
5.0637362637362635,5.7298131530434135
5.083516483516483,5.695045274929894
5.103296703296703,5.655067863587285
5.123076923076923,5.609928956854054
5.142857142857143,5.559683232830696
5.162637362637362,5.504392084013564
5.182417582417583,5.444123707219775
5.2021978021978015,5.378953212527711
5.221978021978022,5.308962755141992
5.241758241758242,5.234241694921387
5.2615384615384615,5.154886789318529
5.281318681318681,5.07100242671856
5.301098901098901,4.982700908689087
5.320879120879121,4.890102791541297
5.340659340659341,4.793337299948472
5.36043956043956,4.692542828297109
5.380219780219781,4.58786754911664
5.3999999999999995,4.479470152551355
5.41978021978022,4.3675207466652886
5.43956043956044,4.252201955746735
5.4593406593406595,4.133710263135837
5.479120879120879,4.01225765698604
5.498901098901099,3.888073652478242
5.518681318681319,3.7614077831839587
5.538461538461538,3.6325326785322174
5.558241758241758,3.5017478748127973
5.578021978021979,3.369384544989588
5.5978021978021975,3.2358113786611047
5.617582417582418,3.1014418977348788
5.637362637362637,2.9667435535613746
5.6571428571428575,2.8322490106347487
5.676923076923077,2.698570064837034
5.696703296703297,2.56641463834969
5.716483516483517,2.436607177353158
5.736263736263735,2.3101124427211337
5.756043956043956,2.188061945606468
5.775824175824176,2.071780864949347
5.795604395604395,1.9628108481204343
5.815384615384615,1.8629203691990803
5.835164835164835,1.774089517935148
5.854945054945055,1.6984517230149416
5.874725274725275,1.6381747381980658
5.894505494505494,1.5952731314035289
5.914285714285715,1.5713689165329305
5.934065934065933,1.5674508514252066
5.953846153846154,1.583706420873711
5.973626373626374,1.619489159532682
5.993406593406593,1.6734343331997346
6.013186813186813,1.743677713467934
6.032967032967033,1.8281030832598333
6.052747252747253,1.9245552792116327
6.072527472527473,2.030988185370779
6.092307692307692,2.1455468909406066
6.112087912087913,2.266599018332055
6.131868131868131,2.3927335445378857
6.151648351648352,2.5227422499606766
6.171428571428572,2.655594036815565
6.191208791208791,2.7904081168818347
6.210989010989011,2.9264291153661484
6.230769230769231,3.0630053393812258
6.2505494505494505,3.199570475836592
6.270329670329671,3.335628504915242
6.29010989010989,3.4707414226764732
6.309890109890111,3.6045193227835117
6.329670329670329,3.736612414017751
6.349450549450549,3.8667046045284765
6.36923076923077,3.9945083442064715
6.3890109890109885,4.119760473304515
6.408791208791209,4.242218874676848
6.428571428571428,4.361659767983882
6.4483516483516485,4.477875517463513
6.468131868131868,4.590672851462865
6.487912087912088,4.69987141300484
6.507692307692308,4.80530257729444
6.527472527472527,4.906808485162806
6.547252747252747,5.004241251751713
6.567032967032967,5.09746231786018
6.5868131868131865,5.186341917783861
6.606593406593407,5.270758642551294
6.626373626373626,5.350599081488651
6.6461538461538465,5.4257575282550645
6.665934065934065,5.496135740057914
6.685714285714286,5.561642740820239
6.705494505494506,5.62219466073672
6.725274725274725,5.677714606004021
6.745054945054945,5.728132553610593
6.764835164835165,5.773385266972406
6.7846153846153845,5.813416228943938
6.804395604395605,5.8481755893512055
6.824175824175824,5.877620124710477
6.8439560439560445,5.901713208233566
6.863736263736263,5.920424788594908
6.883516483516484,5.933731376260307
6.903296703296704,5.941616036463954
6.923076923076923,5.944068388178469
6.942857142857143,5.941084608660612
6.962637362637362,5.932667443380205
6.9824175824175825,5.918826221358943
7.002197802197802,5.89957687616477
7.021978021978022,5.874941973033896
7.041758241758242,5.844950742832359
7.061538461538461,5.809639123829748
7.081318681318681,5.769049812547963
7.101098901098901,5.7232323252762445
7.1208791208791204,5.672243072222565
7.140659340659341,5.616145446712774
7.16043956043956,5.555009932370105
7.1802197802197805,5.488914231827901
7.199999999999999,5.417943421272908
7.21978021978022,5.342190136015536
7.23956043956044,5.261754793376057
7.259340659340659,5.176745860509975
7.279120879120879,5.087280176433071
7.298901098901099,4.993483339524187
7.318681318681318,4.895490174280281
7.338461538461539,4.7934452941976105
7.358241758241758,4.687503781514664
7.3780219780219785,4.5778320093766895
7.397802197802197,4.464608638023296
7.417582417582418,4.348025824180621
7.437362637362638,4.228290692357173
7.457142857142857,4.105627128691257
7.476923076923077,3.980277972971142
7.496703296703297,3.852507703136438
7.516483516483516,3.7226057297223947
7.536263736263736,3.5908904460471125
7.556043956043957,3.4577142139459056
7.575824175824176,3.323469504344235
7.595604395604395,3.1885964552787334
7.615384615384615,3.0535921525176755
7.635164835164835,2.9190219695030817
7.654945054945055,2.785533303666691
7.674725274725275,2.6538719776514825
7.694505494505494,2.5249013707367913
7.7142857142857135,2.399623899472128
7.734065934065935,2.2792036131120192
7.753846153846154,2.1649871917603196
7.7736263736263735,2.0585183176753947
7.793406593406592,1.9615371946159195
7.813186813186814,1.8759534377377087
7.832967032967034,1.803778315576336
7.852747252747252,1.7470046349548065
7.872527472527472,1.7074334329891694
7.892307692307693,1.6864675200628267
7.912087912087912,1.6849165002418551
7.931868131868132,1.7028707710464273
7.951648351648351,1.7396881813425304
7.971428571428572,1.794098124607819
7.991208791208791,1.8643860390341114
8.010989010989011,1.948601301209093
8.03076923076923,2.0447396699033775
8.05054945054945,2.1508749916390264
8.07032967032967,2.2652373382315005
8.09010989010989,2.3862477521029355
8.10989010989011,2.512523568610917
8.129670329670331,2.642866700311688
8.149450549450549,2.776243826683167
8.169230769230769,2.9117641090589785
8.189010989010988,3.048657552218498
8.20879120879121,3.1862555017996437
8.22857142857143,3.323973803875991
8.248351648351647,3.4612986371819177
8.268131868131867,3.5977747842338395
8.287912087912087,3.732996016449676
8.307692307692308,3.8665972571012475
8.327472527472528,3.9982482121741993
8.347252747252746,4.127648199802027
8.367032967032966,4.254521952022795
8.386813186813187,4.378616202646545
8.406593406593407,4.499696909873527
8.426373626373627,4.617546991539134
8.446153846153845,4.731964474845908
8.465934065934066,4.84276098185347
8.485714285714286,4.949760487575858
8.505494505494505,5.052798299981494
8.525274725274725,5.151720221109546
8.545054945054945,5.246381856418813
8.564835164835165,5.336648045783609
8.584615384615384,5.42239239458032
8.604395604395604,5.5034968873328305
8.624175824175826,5.5798515696145445
8.643956043956043,5.6513542865050805
8.663736263736263,5.717910468000877
8.683516483516483,5.7794329534833775
8.703296703296704,5.835841848737869
8.723076923076924,5.88706441015307
8.742857142857142,5.9330349516684375
8.762637362637362,5.973694770811476
8.782417582417583,6.008992090814789
8.802197802197803,6.038882016346786
8.821978021978023,6.0633265008526696
8.84175824175824,6.0822943238998075
8.86153846153846,6.095761077268504
8.881318681318682,6.103709158836741
8.901098901098901,6.1061277735859045
8.920879120879121,6.103012941312593
8.940659340659339,6.094367510876644
8.96043956043956,6.080201181055433
8.98021978021978,6.06053052831572
9.0,6.035379042063813
9.01978021978022,6.004777168200423
9.03956043956044,5.9687623620956165
9.05934065934066,5.927379152420833
9.079120879120879,5.880679217639476
9.098901098901099,5.828721477376599
9.11868131868132,5.771572201376411
9.138461538461538,5.709305139331019
9.158241758241758,5.6420016755456865
9.178021978021977,5.569751013221877
9.197802197802199,5.492650394120324
9.217582417582419,5.410805360553488
9.237362637362637,5.324330068099296
9.257142857142856,5.233347659187901
9.276923076923078,5.1379907098687045
9.296703296703297,5.038401764713006
9.316483516483517,4.934733978070177
9.336263736263735,4.827151883923553
9.356043956043957,4.715832321575205
9.375824175824176,4.600965550557688
9.395604395604396,4.482756595808667
9.415384615384616,4.361426873588999
9.435164835164835,4.237216160268278
9.454945054945055,4.11038498037938
9.474725274725275,3.98121750769431
9.494505494505495,3.850025093863022
9.514285714285714,3.717150563510672
9.534065934065934,3.582973442191596
9.553846153846154,3.4479163127379944
9.573626373626373,3.3124525227490924
9.593406593406593,3.177115483980709
9.613186813186815,3.042509799599646
9.632967032967032,2.909324403541192
9.652747252747252,2.778347756930909
9.672527472527472,2.6504848549682625
9.692307692307693,2.5267752578874223
9.712087912087913,2.4084104447111465
9.731868131868131,2.2967473642478033
9.75164835164835,2.1933130599572657
9.771428571428572,2.09979285308436
9.791208791208792,2.0179924945799432
9.810989010989012,1.9497644968630927
9.83076923076923,1.8968928862809433
9.850549450549451,1.8609409568990758
9.87032967032967,1.8430825798617223
9.89010989010989,1.8439532319429977
9.90989010989011,1.8635618253488884
9.92967032967033,1.9012910616214729
9.94945054945055,1.9559860610884214
9.96923076923077,2.0261032154383347
9.989010989010989,2.1098782067787765
10.008791208791209,2.205477319729859
10.028571428571428,2.311111820270853
10.048351648351648,2.4251110237970317
10.068131868131868,2.545959860320902
10.08791208791209,2.6723106731098345
10.107692307692307,2.802978751113055
10.127472527472527,2.936929027370555
10.147252747252747,3.0732590058380023
10.167032967032966,3.2111810047323983
10.186813186813188,3.350005398402369
10.206593406593406,3.489125636722563
10.226373626373626,3.628005288074862
10.246153846153845,3.7661670638377385
10.265934065934067,3.9031836443802703
10.285714285714286,4.038670075049092
10.305494505494504,4.172277495507029
10.325274725274724,4.3036879832436545
10.345054945054946,4.432610318690022
10.364835164835165,4.55877650795558
10.384615384615385,4.681938926227251
10.404395604395603,4.80186796882599
10.424175824175824,4.918350117381164
10.443956043956044,5.031186345676467
10.463736263736264,5.140190803794071
10.483516483516484,5.245189730667884
10.503296703296703,5.3460205544762145
10.523076923076923,5.442531147844824
10.542857142857143,5.5345792109248215
10.562637362637362,5.622031760333966
10.582417582417584,5.704764705933256
10.602197802197802,5.782662500638045
10.621978021978022,5.855617851084938
10.641758241758241,5.92353147911053
10.661538461538463,5.986311925743959
10.681318681318682,6.043875390846973
10.7010989010989,6.096145602715336
10.72087912087912,6.143053712933309
10.740659340659342,6.18453821258704
10.760439560439561,6.2205448666267396
10.780219780219781,6.251026663745003
