Time (s),Filtered Signal
0.0,0.012492110543279693
0.03337000366703337,0.48683102189987415
0.06674000733406674,0.8736143187473016
0.1001100110011001,1.0849374932616858
0.13348001466813347,1.0438052501081874
0.16685001833516683,0.709635772144766
0.2002200220022002,0.10657255750737546
0.2335900256692336,-0.6637719224042197
0.26696002933626695,-1.4391746591704764
0.3003300330033003,-2.0429848248610596
0.33370003667033366,-2.342953755180091
0.36707004033736707,-2.2971414937088555
0.4004400440044004,-1.9655683102209374
0.4338100476714338,-1.4819052431754414
0.4671800513384672,-0.9983119616798735
0.5005500550055005,-0.6285992422631643
0.5339200586725339,-0.41417386702766573
0.5672900623395672,-0.3247335158304038
0.6006600660066006,-0.2885179380830232
0.634030069673634,-0.23402406409767182
0.6674000733406673,-0.12236791679828792
0.7007700770077008,0.04293225371495748
0.7341400806747341,0.2290874538876352
0.7675100843417675,0.3992120597116907
0.8008800880088008,0.5343613812847454
0.8342500916758342,0.641036544277554
0.8676200953428675,0.7418087819466936
0.9009900990099009,0.8560346866239054
0.9343601026769344,0.9825981479905738
0.9677301063439677,1.0950388471293606
1.001100110011001,1.1524095637651612
1.0344701136780343,1.120479802146367
1.0678401173450678,0.9920018320320563
1.1012101210121013,0.7947702873155988
1.1345801246791345,0.5822233395622882
1.167950128346168,0.4103375082188261
1.2013201320132012,0.31193045925477664
1.2346901356802347,0.2813120828283602
1.268060139347268,0.2773925439802623
1.3014301430143014,0.24419875693612414
1.3348001466813346,0.13894594741202382
1.368170150348368,-0.046052293665716976
1.4015401540154016,-0.27827208156170574
1.4349101576824348,-0.49894702687675285
1.4682801613494683,-0.6490863401725929
1.5016501650165015,-0.6948203232192048
1.535020168683535,-0.6398831265780883
1.5683901723505682,-0.5194846828016692
1.6017601760176017,-0.3792350953686104
1.6351301796846351,-0.25071909361485745
1.6685001833516684,-0.13755010657864994
1.7018701870187019,-0.02038367317093975
1.735240190685735,0.12148374838327605
1.7686101943527686,0.28492497460885263
1.8019801980198018,0.43100025274615383
1.8353502016868353,0.4966396514185082
1.8687202053538687,0.4266239205086146
1.902090209020902,0.20902902154720024
1.9354602126879354,-0.10725453197748128
1.9688302163549687,-0.4261385313965274
2.002200220022002,-0.6452403002741587
2.0355702236890356,-0.7039888987793207
2.0689402273560686,-0.6133204141203765
2.102310231023102,-0.4503921876778083
2.1356802346901356,-0.32050740098317876
2.169050238357169,-0.3060407882042833
2.2024202420242025,-0.42837956921242787
2.2357902456912355,-0.640586821901874
2.269160249358269,-0.8513267862884664
2.3025302530253025,-0.965040709863996
2.335900256692336,-0.9178760372797053
2.369270260359369,-0.694956464893363
2.4026402640264024,-0.32680948770294876
2.436010267693436,0.12690770911715968
2.4693802713604693,0.5952252297853496
2.502750275027503,1.0083091941418474
2.536120278694536,1.3046606470255635
2.5694902823615693,1.4376008157061861
2.6028602860286028,1.3845910132709631
2.636230289695636,1.157794740315785
2.6696002933626692,0.809181010050457
2.7029702970297027,0.42273098657655744
2.736340300696736,0.09157023440991535
2.7697103043637696,-0.11334744589331722
2.803080308030803,-0.16943973734139675
2.836450311697836,-0.11001370220600493
2.8698203153648696,-0.007660748087436874
2.903190319031903,0.05965896059554806
2.9365603226989365,0.04364585665920794
2.96993032636597,-0.0552538595978024
3.003300330033003,-0.19336868548168434
3.0366703337000365,-0.3096072618637794
3.07004033736707,-0.35695450007668816
3.1034103410341034,-0.3231311911092286
3.1367803447011364,-0.23101849268253902
3.17015034836817,-0.1211511820992677
3.2035203520352034,-0.02799464078529503
3.236890355702237,0.03624645500065376
3.2702603593692703,0.08234489161789668
3.3036303630363033,0.13094991875808257
3.3370003667033368,0.1949316681551899
3.3703703703703702,0.2680071429100531
3.4037403740374037,0.3258276890919679
3.4371103777044367,0.3381193910389301
3.47048038137147,0.2844587880969736
3.5038503850385037,0.1649286948938701
3.537220388705537,0.00043046883416848563
3.5705903923725706,-0.17658444644454413
3.6039603960396036,-0.3352009049607427
3.637330399706637,-0.45576477010256394
3.6707004033736705,-0.5317465528852926
3.704070407040704,-0.5643073776632169
3.7374404107077375,-0.5545801883805244
3.7708104143747705,-0.4998781837834113
3.804180418041804,-0.3972434904615708
3.8375504217088374,-0.2525878750081644
3.870920425375871,-0.08924655323789583
3.904290429042904,0.05117113299621106
3.9376604327099374,0.11932625944231864
3.971030436376971,0.07755439381278184
4.004400440044004,-0.08016106512599143
4.037770443711038,-0.3178702215014585
4.071140447378071,-0.5637854056824614
4.104510451045105,-0.7321952345986231
4.137880454712137,-0.7527527012480684
4.171250458379171,-0.5948390360931212
4.204620462046204,-0.2769155400286251
4.237990465713238,0.1419835558871212
4.271360469380271,0.5831136689699624
4.304730473047305,0.9708723587056416
4.338100476714338,1.24841615623257
4.3714704803813715,1.3827615494750014
4.404840484048405,1.3626708977316473
4.438210487715438,1.1954879598806392
4.471580491382471,0.9067042139804481
4.5049504950495045,0.5407660624725846
4.538320498716538,0.15797186279392306
4.571690502383571,-0.17651078349376761
4.605060506050605,-0.41000819998462995
4.638430509717638,-0.5188238989924128
4.671800513384672,-0.514972021732419
4.705170517051705,-0.43843633933021553
4.738540520718738,-0.33779986791153693
4.771910524385771,-0.24852366138043044
4.805280528052805,-0.17964525640493498
4.838650531719838,-0.11534749383051984
4.872020535386872,-0.030069914519045896
4.905390539053905,0.09123157803097334
4.938760542720939,0.23865903752136008
4.972130546387972,0.37650842577375615
5.005500550055006,0.4564196981357565
5.038870553722038,0.43772401566686714
5.072240557389072,0.30482760580219537
5.105610561056105,0.07362333619628121
5.138980564723139,-0.21498618641447195
5.172350568390172,-0.5099237686098338
5.2057205720572055,-0.7652691013224646
5.239090575724239,-0.9494408476713777
5.272460579391272,-1.0461059892322588
5.305830583058306,-1.0495481327928415
5.3392005867253385,-0.9596244510511017
5.372570590392372,-0.7804071546792812
5.405940594059405,-0.5232802464470399
5.439310597726439,-0.21185349001021997
5.472680601393472,0.11559737836322087
5.506050605060506,0.4096940266167898
5.539420608727539,0.6203554427113667
5.572790612394573,0.7114038945729535
5.606160616061606,0.6739707940617493
5.63953061972864,0.5325771795447292
5.672900623395672,0.33985773467816144
5.706270627062706,0.16036954392248678
5.739640630729739,0.048979206073662136
5.773010634396773,0.03243803826386916
5.806380638063806,0.10201701201318818
5.83975064173084,0.22040684385912207
5.873120645397873,0.3395736097568306
5.9064906490649065,0.4211575284324115
5.93986065273194,0.44998468014289356
5.9732306563989725,0.43489245073713906
6.006600660066006,0.39747510359329746
6.0399706637330395,0.35527463639224394
6.073340667400073,0.30848909776396854
6.106710671067106,0.23736727285420967
6.14008067473414,0.11218872502785758
6.173450678401173,-0.08840324351706143
6.206820682068207,-0.35925788238713785
6.24019068573524,-0.6599788601766311
6.273560689402273,-0.9214380462949372
6.306930693069306,-1.0670758932009876
6.34030069673634,-1.041645119572434
6.373670700403373,-0.8355747161637573
6.407040704070407,-0.49346749825282316
6.44041070773744,-0.10103981170148599
6.473780711404474,0.24579672107466918
6.507150715071507,0.477108045391371
6.540520718738541,0.5740639734453524
6.573890722405573,0.5710119065597123
6.607260726072607,0.5334295174192929
6.64063072973964,0.5227802873380054
6.6740007334066735,0.5658257505453566
6.707370737073707,0.6431525208160177
6.7407407407407405,0.7012331148692725
6.774110744407774,0.6803370765192482
6.807480748074807,0.543671029395419
6.840850751741841,0.2944106523936587
6.8742207554088735,-0.025094391101086307
6.907590759075907,-0.348878298266777
6.94096076274294,-0.6094183370610793
6.974330766409974,-0.7577806106535275
7.007700770077007,-0.7764186370808367
7.041070773744041,-0.682395878201566
7.074440777411074,-0.5208466408380031
7.107810781078108,-0.3500655297940315
7.141180784745141,-0.22189773976560742
7.174550788412174,-0.16379065124490683
7.207920792079207,-0.16992544765149048
7.241290795746241,-0.2062813240507915
7.274660799413274,-0.22848855197796417
7.308030803080308,-0.20475911253163934
7.341400806747341,-0.13287283826774918
7.3747708104143745,-0.04241742528816817
7.408140814081408,0.01955570694837847
7.4415108177484415,0.013044084988371908
7.474880821415475,-0.07196624875378366
7.5082508250825075,-0.20554544727213547
7.541620828749541,-0.32642251454580873
7.5749908324165744,-0.3662107649542071
7.608360836083608,-0.2790957729508829
7.641730839750641,-0.06403978299828726
7.675100843417675,0.23065955699249782
7.708470847084708,0.5233830631734927
7.741840850751742,0.7298930959822292
7.775210854418775,0.796139326413887
7.808580858085808,0.719114542166463
7.841950861752841,0.5465716428174425
7.875320865419875,0.3557724940525414
7.908690869086908,0.2210006269032762
7.942060872753942,0.18455719097689552
7.975430876420975,0.24374660220553052
8.008800880088009,0.35814128074768026
8.042170883755041,0.4716357404560037
8.075540887422076,0.5375329124976463
8.108910891089108,0.5349607048026278
8.142280894756142,0.4705563079400861
8.175650898423175,0.36716211471302695
8.20902090209021,0.24724876778289906
8.242390905757242,0.12029620137717
8.275760909424275,-0.01981294874022313
8.309130913091309,-0.1871707581827621
8.342500916758341,-0.3910647958207268
8.375870920425376,-0.6251480937899349
8.409240924092408,-0.8637528229104424
8.442610927759443,-1.0663881882400663
8.475980931426475,-1.1879050830682567
8.50935093509351,-1.1906966746258572
8.542720938760542,-1.056194740986317
8.576090942427575,-0.7938319590759756
8.60946094609461,-0.44522025332868304
8.642830949761642,-0.08034135701609307
8.676200953428676,0.21672038947850145
8.709570957095709,0.3712498347630213
8.742940960762743,0.34395352987201816
8.776310964429776,0.14934491411065798
8.80968096809681,-0.1426928622438851
8.843050971763843,-0.42527005494622255
8.876420975430875,-0.5876779001769246
8.90979097909791,-0.5519857585597671
8.943160982764942,-0.3000413913231986
8.976530986431976,0.11872341290804683
9.009900990099009,0.6016807260927228
9.043270993766043,1.0252383983430904
9.076640997433076,1.2845006846826752
9.11001100110011,1.3267623841393397
9.143381004767143,1.1663824890547803
9.176751008434175,0.8747668247188858
9.21012101210121,0.5491113671187074
9.243491015768242,0.2732388310155267
9.276861019435277,0.08808218710009523
9.31023102310231,-0.015082701081195034
9.343601026769344,-0.0771112783290452
9.376971030436376,-0.14016703330069624
9.41034103410341,-0.22102174101508543
9.443711037770443,-0.30266572037474226
9.477081041437476,-0.34767525780311986
9.51045104510451,-0.32477734085551896
9.543821048771543,-0.23318549730523233
9.577191052438577,-0.11071306224371028
9.61056105610561,-0.020199954716331348
9.643931059772644,-0.02000204355563703
9.677301063439677,-0.1327997421983106
9.710671067106711,-0.3286786706479153
9.744041070773743,-0.5322329986272932
9.777411074440776,-0.6520314074499791
9.81078107810781,-0.6197353341701127
9.844151081774843,-0.4211781810677096
9.877521085441877,-0.10536984320269625
9.91089108910891,0.23242995113137435
9.944261092775944,0.48608191259875255
9.977631096442977,0.5777016887361613
10.011001100110011,0.4853962483334692
10.044371103777044,0.2498615337691721
10.077741107444076,-0.041508299247458594
10.11111111111111,-0.28633308362871657
10.144481114778143,-0.4030464624656383
10.177851118445178,-0.35826469903094765
10.21122112211221,-0.17667249288141165
10.244591125779245,0.06924925977085362
10.277961129446277,0.28533427917031573
10.311331133113312,0.38823186913773133
10.344701136780344,0.333313672746875
10.378071140447377,0.1293148611555201
10.411441144114411,-0.16409584400763064
10.444811147781444,-0.45431250452242744
10.478181151448478,-0.643807909711509
10.51155115511551,-0.6604049640042396
10.544921158782545,-0.4813904935551735
10.578291162449577,-0.14389758384056558
10.611661166116612,0.26317866577620225
10.645031169783644,0.6252592867870903
10.678401173450677,0.8390426735214649
10.711771177117711,0.8477627893638675
10.745141180784744,0.6610101257241047
10.778511184451778,0.3502933751466222
10.81188118811881,0.021194084602459078
10.845251191785845,-0.22682526550918472
10.878621195452878,-0.33624344054425254
10.911991199119912,-0.3081761600665505
10.945361202786945,-0.1939569727470268
10.978731206453979,-0.06689733792063941
11.012101210121012,0.012111843696554903
11.045471213788044,0.01975155390011273
11.078841217455079,-0.024029863312706425
11.112211221122111,-0.07068711585577274
11.145581224789145,-0.06997434966266626
11.178951228456178,0.003980279668138898
11.212321232123212,0.13931249234585102
11.245691235790245,0.29120427946317895
11.27906123945728,0.4016266184610902
11.312431243124312,0.4242037571690129
11.345801246791344,0.34274101651266226
11.379171250458379,0.17583696955670308
11.412541254125411,-0.03291559290999749
11.445911257792446,-0.23305633686009627
11.479281261459478,-0.38470161527774277
11.512651265126513,-0.46808483181498883
11.546021268793545,-0.4830670178403912
11.57939127246058,-0.4418761885828425
11.612761276127612,-0.36105179165712226
11.646131279794645,-0.25736030533498844
11.67950128346168,-0.14843695049477965
11.712871287128712,-0.054921358596047604
11.746241290795746,0.00035556041136089526
11.779611294462779,-0.0018230922721735468
11.812981298129813,-0.06846800265718693
11.846351301796846,-0.18810749622248354
11.87972130546388,-0.33117995040150633
11.913091309130913,-0.4574799174452308
11.946461312797945,-0.526819723664978
11.97983131646498,-0.5078216281938075
12.013201320132012,-0.382339648965339
12.046571323799046,-0.14706678247603003
12.079941327466079,0.18427196146817845
12.113311331133113,0.5769377363827904
12.146681334800146,0.9726673844774458
12.18005133846718,1.2945385736102275
12.213421342134213,1.4628992498604116
12.246791345801245,1.4196177648719095
12.28016134946828,1.1513628832692158
12.313531353135312,0.7006267908744221
12.346901356802347,0.15765584753029754
12.38027136046938,-0.3648716816107147
12.413641364136414,-0.7645627555793828
12.447011367803446,-0.9766013870876995
12.48038137147048,-0.9861785674581142
12.513751375137513,-0.8240137150815974
12.547121378804546,-0.5500615463686099
12.58049138247158,-0.23386404122120125
12.613861386138613,0.061309894991001514
12.647231389805647,0.2875880668759057
12.68060139347268,0.415990097091162
12.713971397139714,0.43707420524331425
12.747341400806746,0.3605002760194754
12.78071140447378,0.21306352641164553
12.814081408140813,0.033464906448525795
12.847451411807846,-0.13698797121849848
12.88082141547488,-0.2658703313898617
12.914191419141913,-0.33899142321339704
12.947561422808947,-0.3631812331759951
12.98093142647598,-0.360881560578059
13.014301430143014,-0.35897268475518507
13.047671433810047,-0.3769699937875051
13.081041437477081,-0.41945660732748374
13.114411441144114,-0.4749326973733992
13.147781444811146,-0.5202337323101901
13.18115144847818,-0.5281152387298981
13.214521452145213,-0.47574800279845025
13.247891455812248,-0.35252355894909
13.28126145947928,-0.16552769937025558
13.314631463146315,0.059594979705726206
13.348001466813347,0.28446903651808675
13.381371470480381,0.47029363871541446
13.414741474147414,0.5925432607185535
13.448111477814447,0.6510864714891227
13.481481481481481,0.6695586760615685
13.514851485148514,0.6828505274262098
13.548221488815548,0.7182084887906511
13.58159149248258,0.7795508120969603
13.614961496149615,0.8433642874515384
13.648331499816647,0.8684521020715814
13.681701503483682,0.8143925380554131
13.715071507150714,0.6591976316217036
13.748441510817747,0.4077648398240333
13.781811514484781,0.08834073971997176
13.815181518151814,-0.25922962467228233
13.848551521818848,-0.5960500222919127
13.88192152548588,-0.8911068803158867
13.915291529152915,-1.1207085511198827
13.948661532819948,-1.2636235090051022
13.982031536486982,-1.2977789652475427
14.015401540154015,-1.2032330484993878
14.048771543821047,-0.9718488399206517
14.082141547488082,-0.6190391749669323
14.115511551155114,-0.19007370476981048
14.148881554822148,0.24517762883221328
14.182251558489181,0.6096940399060493
14.215621562156215,0.8426984336469376
14.248991565823248,0.9185417969669979
14.282361569490282,0.8519857471021313
14.315731573157315,0.6874065033234493
14.349101576824348,0.477690393904221
14.382471580491382,0.2636939747099433
14.415841584158414,0.0641387689798118
14.449211587825449,-0.12061423041424703
14.482581591492481,-0.29542282006242615
14.515951595159516,-0.45715147778698545
14.549321598826548,-0.589644111246047
14.582691602493583,-0.6692744961147465
14.616061606160615,-0.6767236917371084
14.649431609827648,-0.6072319941311272
14.682801613494682,-0.47325469785966584
14.716171617161715,-0.29856946002792256
14.749541620828749,-0.10788321258537818
14.782911624495782,0.08204047797465357
14.816281628162816,0.2653379428466724
14.849651631829849,0.4433092387957551
14.883021635496883,0.6165525589727385
14.916391639163916,0.7771571180358166
14.94976164283095,0.9049089453429875
14.983131646497982,0.9699250182086241
15.016501650165015,0.9417736394638411
15.04987165383205,0.8023219841305566
15.083241657499082,0.5570683433677742
15.116611661166116,0.23902716448290873
15.149981664833149,-0.09837464709763243
15.183351668500183,-0.39778959532684305
15.216721672167216,-0.6168592621525762
15.25009167583425,-0.7404234416489409
15.283461679501283,-0.7798985629380252
15.316831683168315,-0.7605060081152968
15.35020168683535,-0.7037321966959906
15.383571690502382,-0.6150023375663397
15.416941694169417,-0.4835499790343257
15.45031169783645,-0.29461488389427803
15.483681701503484,-0.047155179435712756
15.517051705170516,0.23314152111053033
15.55042170883755,0.4938396192495147
15.583791712504583,0.6706332031769712
15.617161716171616,0.7113105749873424
15.65053171983865,0.5979320913569337
15.683901723505683,0.35668293259280953
15.717271727172717,0.05050321329438742
15.75064173083975,-0.24244712949198
15.784011734506784,-0.4552859085387685
15.817381738173816,-0.5531366195774199
15.85075174184085,-0.5405425687142569
15.884121745507883,-0.45383326070837327
15.917491749174916,-0.3424814410455867
15.95086175284195,-0.24730188634083933
15.984231756508983,-0.18429353827615075
16.017601760176017,-0.1408154421795932
16.05097176384305,-0.08598171448383976
16.084341767510082,0.009091932651782193
16.117711771177117,0.15085508350378019
16.15108177484415,0.3137325725071533
16.184451778511182,0.4480102823510075
16.217821782178216,0.5028868678163642
16.25119178584525,0.45341933445346216
16.284561789512285,0.3166216282261798
16.317931793179316,0.1468139904109747
16.35130179684635,0.011287541996204138
16.384671800513384,-0.041692747938053436
16.41804180418042,-0.0059079069630804575
16.45141180784745,0.08100148996822919
16.484781811514484,0.15813782109828403
16.51815181518152,0.1738679729681129
16.55152181884855,0.11347465893265316
16.584891822515583,0.007475340308962786
16.618261826182618,-0.08403827993515557
16.651631829849652,-0.1032750606985004
16.685001833516683,-0.026434347899326003
16.718371837183717,0.12135759388592537
16.75174184085075,0.27581252828578695
16.785111844517782,0.3630243565367032
16.818481848184817,0.33376461153977727
16.85185185185185,0.18557615361679286
16.885221855518886,-0.03736168661084061
16.918591859185916,-0.2650845969946059
16.95196186285295,-0.4321305186057752
16.985331866519985,-0.5027599614655686
17.01870187018702,-0.48071312813177824
17.05207187385405,-0.4014759494116381
17.085441877521085,-0.3129657755467555
17.11881188118812,-0.25445211822947383
17.15218188485515,-0.24247929164279935
17.185551888522184,-0.2681359740635302
17.21892189218922,-0.3048521659958541
17.252291895856253,-0.3221190204423901
17.285661899523284,-0.29900629511710786
