Frequency (Hz),Amplitude
0.0,5.779404193859362
0.019801980198019802,5.787403923774475
0.039603960396039604,5.811305481807409
0.0594059405940594,5.850820077306855
0.07920792079207921,5.905479656823937
0.09900990099009901,5.974655415562925
0.1188118811881188,6.057581194571525
0.13861386138613863,6.153379762047496
0.15841584158415842,6.261089993269523
0.1782178217821782,6.379693215760251
0.19801980198019803,6.5081373874297
0.21782178217821782,6.645358232248712
0.2376237623762376,6.790296892743769
0.25742574257425743,6.941914020479348
0.27722772277227725,7.099200491803092
0.297029702970297,7.261185105792672
0.31683168316831684,7.426939707880198
0.33663366336633666,7.595582205650747
0.3564356435643564,7.766277923075471
0.37623762376237624,7.938239693542218
0.39603960396039606,8.110727034057284
0.4158415841584158,8.283044682347285
0.43564356435643564,8.454540721189451
0.45544554455445546,8.624604463327797
0.4752475247524752,8.792664227089642
0.495049504950495,8.958185097395475
0.5148514851485149,9.120666738661576
0.5346534653465347,9.279641304205315
0.5544554455445545,9.434671470152567
0.5742574257425742,9.585348609523273
0.594059405940594,9.731291113243273
0.613861386138614,9.872142858539705
0.6336633663366337,10.007571820893844
0.6534653465346534,10.137268822947338
0.6732673267326733,10.260946412087442
0.6930693069306931,10.37833785756824
0.7128712871287128,10.48919625772419
0.7326732673267327,10.593293747924175
0.7524752475247525,10.690420800269422
0.7722772277227723,10.780385606561133
0.7920792079207921,10.863013536686958
0.8118811881188118,10.93814666524973
0.8316831683168316,11.00564335995603
0.8514851485148516,11.065377925972436
0.8712871287128713,11.117240301131233
0.891089108910891,11.161135797516478
0.9108910891089109,11.196984885581683
0.9306930693069307,11.22472301754145
0.9504950495049505,11.244300487343006
0.9702970297029703,11.255682325061244
0.99009900990099,11.258848224077969
1.00990099009901,11.253792499905575
1.0297029702970297,11.240524080002865
1.0495049504950495,11.219066524411813
1.0693069306930694,11.189458077521614
1.0891089108910892,11.151751751749874
1.108910891089109,11.106015444419986
1.1287128712871286,11.052332089619107
1.1485148514851484,10.990799847342771
1.1683168316831685,10.921532332778161
1.188118811881188,10.844658889148679
1.2079207920792079,10.760324908142863
1.227722772277228,10.668692202579809
1.2475247524752475,10.569939436620684
1.2673267326732673,10.464262619516592
1.2871287128712872,10.351875669577566
1.3069306930693068,10.233011055740247
1.3267326732673268,10.107920524777795
1.3465346534653466,9.976875922798833
1.3663366336633662,9.840170120169129
1.3861386138613863,9.698118049285753
1.405940594059406,9.55105786463559
1.4257425742574257,9.39935223413617
1.4455445544554455,9.243389769698506
1.4653465346534653,9.083586603014538
1.4851485148514851,8.920388109429155
1.504950495049505,8.754270777981565
1.5247524752475248,8.58574421875823
1.5445544554455446,8.415353288924894
1.5643564356435644,8.243680305401007
1.5841584158415842,8.071347294182305
1.6039603960396038,7.899018202795287
1.6237623762376237,7.7274009722629655
1.6435643564356437,7.55724932741305
1.6633663366336633,7.3893640989144185
1.683168316831683,7.22459383744707
1.7029702970297032,7.063834421627645
1.7227722772277227,6.908027300564326
1.7425742574257426,6.758155955984661
1.7623762376237624,6.615240128293077
1.782178217821782,6.4803273403940285
1.801980198019802,6.354481291206417
1.8217821782178218,6.2387667980248995
1.8415841584158414,6.134231161851091
1.8613861386138615,6.041882122908418
1.881188118811881,5.9626629588730555
1.900990099009901,5.897425725815657
1.920792079207921,5.846904092864264
1.9405940594059405,5.811687592553696
1.9603960396039604,5.792199305412052
1.98019801980198,5.788678939037663
2.0,5.80117291044658
2.01980198019802,5.8295324212188016
2.0396039603960396,5.873419720439526
2.0594059405940595,5.932321920545247
2.0792079207920793,6.005571015711222
2.099009900990099,6.092368269556171
2.118811881188119,6.191810946081192
2.1386138613861387,6.302919444278383
2.1584158415841586,6.424663198384382
2.1782178217821784,6.555984130930469
2.1980198019801978,6.695816903563457
2.217821782178218,6.843105629898282
2.237623762376238,6.996817052320415
2.257425742574257,7.155950424460804
2.2772277227722775,7.319544486915517
2.297029702970297,7.486681991371737
2.3168316831683167,7.656492237877352
2.336633663366337,7.828152061338977
2.3564356435643563,8.000885653050076
2.376237623762376,8.173963543574692
2.3960396039603964,8.346701013067737
2.4158415841584158,8.518456139188789
2.4356435643564356,8.688627643773206
2.455445544554456,8.85665265827741
2.4752475247524752,9.022004494582426
2.495049504950495,9.184190481311305
2.514851485148515,9.342749905422314
2.5346534653465347,9.497252083455423
2.5544554455445545,9.6472945754646
2.5742574257425743,9.792501546504672
2.594059405940594,9.932522274835755
2.6138613861386135,10.067029802165571
2.633663366336634,10.195719718797937
2.6534653465346536,10.318309075122821
2.673267326732673,10.434535410183308
2.6930693069306932,10.544155887872442
2.712871287128713,10.646946531484325
2.7326732673267324,10.742701547750482
2.7524752475247527,10.831232732047319
2.7722772277227725,10.91236894710049
2.792079207920792,10.985955668194395
2.811881188118812,11.051854588589547
2.8316831683168315,11.109943279538179
2.8514851485148514,11.160114899956133
2.8712871287128716,11.202277951451249
2.891089108910891,11.236356075021899
2.910891089108911,11.262287886322873
2.9306930693069306,11.280026846953444
2.9504950495049505,11.28954116975443
2.9702970297029703,11.290813756614767
2.99009900990099,11.28384216778406
3.00990099009901,11.26863862217474
3.0297029702970297,11.24523002861766
3.0495049504950495,11.213658048516034
3.0693069306930694,11.173979190827255
3.089108910891089,11.1262649407983
3.108910891089109,11.070601924390488
3.128712871287129,11.007092110860027
3.148514851485148,10.935853056514464
3.1683168316831685,10.857018193246605
3.1881188118811883,10.770737166057966
3.2079207920792077,10.67717622442337
3.227722772277228,10.576518673015862
3.2475247524752473,10.468965387999342
3.267326732673267,10.354735405795342
3.2871287128712874,10.234066591921966
3.3069306930693068,10.107216398158606
3.3267326732673266,9.974462716870862
3.346534653465347,9.83610484177473
3.366336633663366,9.692464544648722
3.386138613861386,9.543887277400781
3.4059405940594063,9.390743508312513
3.4257425742574257,9.233430200007449
3.4455445544554455,9.072372434452785
3.4653465346534653,8.908025186747723
3.485148514851485,8.740875244123007
3.504950495049505,8.571443258901807
3.5247524752475248,8.40028591345014
3.5445544554455446,8.227998160537048
3.564356435643564,8.055215483076866
3.5841584158415842,7.882616091906399
3.603960396039604,7.710922948065731
3.6237623762376234,7.54090545621475
3.6435643564356437,7.373380628052335
3.6633663366336635,7.2092134595872635
3.683168316831683,7.049316206074171
3.702970297029703,6.894646177947076
3.722772277227723,6.746201627915203
3.7425742574257423,6.605015265219456
3.762376237623762,6.472144933788035
3.7821782178217824,6.348661046082452
3.801980198019802,6.235630494348963
3.8217821782178216,6.134096982915717
3.841584158415842,6.045058045917368
3.8613861386138613,5.969439422575781
3.881188118811881,5.90806791913576
3.9009900990099013,5.861644326387206
3.9207920792079207,5.830718295714615
3.9405940594059405,5.815667211214894
3.96039603960396,5.816680958621364
3.98019801980198,5.833754060949539
4.0,5.866685970283883
4.01980198019802,5.915089483487485
4.03960396039604,5.978406434013438
4.0594059405940595,6.055929147885733
4.079207920792079,6.146825743386456
4.099009900990099,6.250167239849871
4.118811881188119,6.364954593873676
4.138613861386139,6.4901441265016375
4.158415841584159,6.624670248514747
4.178217821782178,6.7674648455657405
4.198019801980198,6.917473086370791
4.217821782178218,7.073665730014067
4.237623762376238,7.2350482225807555
4.257425742574258,7.4006669967040315
4.2772277227722775,7.5696134377764706
4.297029702970297,7.7410259780960535
4.316831683168317,7.914090744248081
4.336633663366336,8.088041129120953
4.356435643564357,8.262156599462468
4.376237623762377,8.435760990270326
4.3960396039603955,8.608220482934026
4.415841584158416,8.778941416991836
4.435643564356436,8.947368046221598
4.455445544554455,9.112980318220666
4.475247524752476,9.275291731842307
4.4950495049504955,9.433847307843113
4.514851485148514,9.588221693836356
4.534653465346535,9.738017414194259
4.554455445544555,9.882863268074173
4.574257425742574,10.022412873567943
4.594059405940594,10.156343352530035
4.613861386138614,10.284354148482063
4.633663366336633,10.406165968771965
4.653465346534653,10.521519841618153
4.673267326732674,10.630176278592272
4.693069306930693,10.731914533337095
4.712871287128713,10.826531947769482
4.732673267326733,10.91384337760104
4.752475247524752,10.993680689665334
4.772277227722772,11.06589232422986
4.792079207920793,11.130342916166255
4.811881188118812,11.186912969537886
4.8316831683168315,11.23549858082671
4.851485148514852,11.276011206658147
4.871287128712871,11.308377472489768
4.891089108910891,11.3325390193086
4.910891089108912,11.348452385934266
4.930693069306931,11.35608892505376
4.9504950495049505,11.355434751625095
4.97029702970297,11.346490722782303
4.99009900990099,11.329272448861433
5.00990099009901,11.303810335650219
5.02970297029703,11.270149658448211
5.0495049504950495,11.228350669014377
5.069306930693069,11.178488736982212
5.089108910891089,11.120654527840315
5.108910891089109,11.054954220117535
5.128712871287129,10.981509764975673
5.148514851485149,10.900459192006641
5.1683168316831685,10.81195696565352
5.188118811881188,10.716174397327471
5.207920792079208,10.613300118970123
5.227722772277227,10.503540624509915
5.247524752475248,10.387120886363212
5.267326732673268,10.264285054821675
5.2871287128712865,10.135297248810307
5.306930693069307,10.000442447054835
5.326732673267327,9.860027489092994
5.346534653465346,9.714382195715892
5.366336633663367,9.563860618205316
5.3861386138613865,9.408842424973171
5.405940594059405,9.249734432686937
5.425742574257426,9.08697228638152
5.445544554455446,8.92102228903183
5.465346534653465,8.752383375102145
5.485148514851486,8.581589214084827
5.504950495049505,8.409210418250328
5.524752475247524,8.235856812871239
5.544554455445545,8.062179706069227
5.564356435643565,7.88887406812456
5.584158415841584,7.716680495619458
5.603960396039604,7.5463867934741415
5.623762376237624,7.3788289577176
5.643564356435643,7.214891284758733
5.663366336633663,7.055505271809921
5.683168316831684,6.901646913366749
5.702970297029703,6.754331949104219
5.7227722772277225,6.614608592147433
5.742574257425743,6.4835472805141
5.762376237623762,6.362227068765762
5.782178217821782,6.251718431821641
5.801980198019803,6.1530625036090365
5.821782178217822,6.067247122255612
5.841584158415841,5.995180482374939
5.861386138613861,5.937663657671625
5.881188118811881,5.895363679582681
5.900990099009901,5.868789147246473
5.920792079207921,5.858270409775533
5.9405940594059405,5.863946142370835
5.96039603960396,5.885757628055268
5.98019801980198,5.923451320365155
6.0,5.976589422418542
6.01980198019802,6.044567426130142
6.03960396039604,6.126636950242658
6.0594059405940595,6.221931885324215
6.079207920792079,6.329495817814275
6.099009900990099,6.448308920564992
6.118811881188119,6.577312880848766
6.138613861386139,6.715432893608222
6.158415841584159,6.861596195281855
6.178217821782178,7.014746995156775
6.198019801980198,7.173857948749506
6.217821782178218,7.337938506848302
6.237623762376237,7.506040575922437
6.257425742574258,7.677261959665241
6.2772277227722775,7.850748038086304
6.297029702970296,8.025692098206694
6.316831683168317,8.201334673525077
6.336633663366337,8.376962188295364
6.356435643564356,8.551905143861914
6.376237623762377,8.725536031514238
6.396039603960396,8.897267111172416
6.415841584158415,9.066548157986833
6.435643564356436,9.232864249137382
6.455445544554456,9.395733639865938
6.475247524752475,9.554705760046497
6.495049504950495,9.709359349377602
6.514851485148515,9.859300739653598
6.534653465346534,10.004162285741128
6.554455445544554,10.143600942198084
6.574257425742575,10.2772969793927
6.594059405940594,10.40495283109166
6.6138613861386135,10.526292064460474
6.633663366336634,10.641058463011248
6.653465346534653,10.749015213051766
6.673267326732673,10.849944184498622
6.693069306930694,10.943645297412486
6.712871287128713,11.029935966223423
6.732673267326732,11.108650614284297
6.752475247524753,11.179640252087145
6.772277227722772,11.24277211317448
6.792079207920792,11.297929342461115
6.811881188118813,11.345010732342233
6.8316831683168315,11.38393050259532
6.851485148514851,11.41461812068765
6.871287128712871,11.437018159674892
6.891089108910891,11.45109019142718
6.910891089108911,11.456808713445133
6.930693069306931,11.454163108039353
6.9504950495049505,11.44315763314347
6.97029702970297,11.42381144451991
6.99009900990099,11.396158649605225
7.00990099009901,11.3602483937309
7.02970297029703,11.31614497995396
7.0495049504950495,11.263928024242862
7.069306930693069,11.203692648293343
7.089108910891089,11.135549712801286
7.108910891089109,11.059626094597501
7.128712871287128,10.976065011657216
7.148514851485149,10.885026400634064
7.1683168316831685,10.78668735223531
7.188118811881187,10.681242610446542
7.207920792079208,10.568905142321805
7.227722772277228,10.449906785763782
7.247524752475247,10.324498983406297
7.267326732673268,10.192953611339652
7.287128712871287,10.055563911941318
7.306930693069306,9.912645540414369
7.326732673267327,9.764537734695367
7.346534653465347,9.61160461803548
7.366336633663366,9.454236642596793
7.3861386138613865,9.292852180595899
7.405940594059406,9.127899266546574
7.425742574257425,8.959857489585815
7.445544554455446,8.789240028186766
7.465346534653466,8.616595810112647
7.485148514851485,8.442511767457228
7.504950495049505,8.267615139127987
7.524752475247524,8.092575750138169
7.544554455445544,7.918108167540395
7.564356435643565,7.744973595838882
7.584158415841584,7.573981329709709
7.603960396039604,7.405989529037338
7.623762376237624,7.241905022132917
7.643564356435643,7.082681781036586
7.663366336633663,6.929317654375776
7.683168316831684,6.78284889839464
7.702970297029703,6.644342029760857
7.7227722772277225,6.514882552896978
7.742574257425743,6.3955602106296325
7.762376237623762,6.287450589513831
7.782178217821782,6.191593192741983
7.801980198019803,6.108966471442958
7.821782178217822,6.040460753384908
7.841584158415841,5.986850471933537
7.861386138613862,5.94876749618135
7.881188118811881,5.926677599949587
7.900990099009901,5.920862096664128
7.92079207920792,5.931406360858178
7.9405940594059405,5.958196369168913
7.96039603960396,6.0009236072393115
7.980198019801979,6.059097840085995
8.0,6.132066485709586
8.01980198019802,6.219038793212192
8.03960396039604,6.319112777650514
8.05940594059406,6.431302905059351
8.07920792079208,6.554566795028278
8.099009900990099,6.687829624865299
8.118811881188119,6.830005384599294
8.138613861386139,6.980014569126305
8.158415841584159,7.136798253738068
8.178217821782178,7.2993287611272635
8.198019801980198,7.466617292626277
8.217821782178218,7.637718978245902
8.237623762376238,7.8117358191713935
8.257425742574258,7.987817973158428
8.277227722772277,8.165163785290096
8.297029702970297,8.343018907210137
8.316831683168317,8.520674786493815
8.336633663366337,8.697466749982475
8.356435643564357,8.872771853747302
8.376237623762377,9.046006629059946
8.396039603960396,9.216624818361286
8.415841584158416,9.384115167098475
8.435643564356436,9.547999315495392
8.455445544554456,9.707829817794382
8.475247524752476,9.86318830425823
8.495049504950495,10.013683792358352
8.514851485148515,10.15895114733746
8.534653465346535,10.298649688096171
8.554455445544555,10.432461931610597
8.574257425742575,10.560092467447404
8.594059405940595,10.681266953098165
8.613861386138613,10.795731220573938
8.633663366336634,10.90325048481035
8.653465346534654,11.00360864480255
8.673267326732672,11.096607668925552
8.693069306930694,11.182067056529021
8.712871287128714,11.259823368582218
8.732673267326732,11.329729820847076
8.752475247524753,11.39165593375884
8.772277227722773,11.44548723387577
8.792079207920791,11.491125002418647
8.811881188118813,11.528486067049958
8.831683168316832,11.557502633643738
8.85148514851485,11.578122155370242
8.871287128712872,11.590307236967753
8.891089108910892,11.594035572601848
8.91089108910891,11.589299916223728
8.930693069306932,11.576108083838792
8.950495049504951,11.554482987591456
8.97029702970297,11.524462702064428
8.990099009900991,11.486100563689092
9.00990099009901,11.439465304670794
9.029702970297029,11.38464122335576
9.04950495049505,11.321728393509128
9.06930693069307,11.250842915539264
9.089108910891088,11.1721172132994
9.10891089108911,11.085700380720263
9.12871287128713,10.991758583183534
9.148514851485148,10.890475519228795
9.16831683168317,10.782052948893659
9.188118811881187,10.666711295706186
9.207920792079207,10.544690330063462
9.227722772277229,10.416249942413515
9.247524752475247,10.281671015269707
9.267326732673267,10.141256403569146
9.287128712871288,9.995332033161015
9.306930693069306,9.844248127162201
9.326732673267326,9.688380569397404
9.346534653465348,9.528132412943883
9.366336633663366,9.363935539656099
9.386138613861386,9.196252473103515
9.405940594059407,9.025578342159246
9.425742574257425,8.852442984961561
9.445544554455445,8.677413172428839
9.465346534653467,8.501094916101488
9.485148514851485,8.324135805844357
9.504950495049505,8.147227297819292
9.524752475247526,7.9711068410937775
9.544554455445544,7.796559691434583
9.564356435643564,7.6244202128658145
9.584158415841586,7.455572411968529
9.603960396039604,7.290949388690263
9.623762376237623,7.131531324915432
9.643564356435645,6.978341575667133
9.663366336633663,6.832440388951562
9.683168316831683,6.694915774628241
9.702970297029704,6.566871089786777
9.722772277227723,6.449409029078399
9.742574257425742,6.3436119217527995
9.762376237623764,6.250518551824063
9.782178217821782,6.171098125045276
9.801980198019802,6.106222471709904
9.821782178217823,6.056638033869826
9.841584158415841,6.022939551005191
9.861386138613861,6.005547532788461
9.881188118811881,6.00469151237462
9.900990099009901,6.020400676319661
9.92079207920792,6.052502802446147
9.94059405940594,6.100631607095919
9.96039603960396,6.164241755385115
9.98019801980198,6.242630074387772
10.0,6.334961044856588
10.01980198019802,6.440294482899567
10.03960396039604,6.557613440662959
10.05940594059406,6.685850683847664
10.07920792079208,6.823912548789101
10.099009900990099,6.970699450998404
10.118811881188119,7.125122740445541
10.138613861386139,7.286117935467704
10.158415841584159,7.452654602980219
10.178217821782178,7.623743293333321
10.198019801980198,7.7984400005826275
10.217821782178218,7.975848624016881
10.237623762376238,8.155121874543072
10.257425742574258,8.33546101655956
10.277227722772277,8.516114774563686
10.297029702970297,8.696377672198913
10.316831683168317,8.875588014675936
10.336633663366337,9.053125675978178
10.356435643564357,9.228409810796958
10.376237623762377,9.400896577529043
10.396039603960396,9.570076932148126
10.415841584158416,9.735474532328803
10.435643564356436,9.896643775809197
10.455445544554454,10.053167985643675
10.475247524752476,10.204657746852542
10.495049504950495,10.350749393294292
10.514851485148514,10.49110363976943
10.534653465346535,10.625404351938865
10.554455445544555,10.753357445233064
10.574257425742573,10.874689903252673
10.594059405940595,10.989148906002212
10.613861386138614,11.096501058492748
10.633663366336632,11.196531710676927
10.653465346534654,11.289044360254545
10.673267326732674,11.37386013054634
10.693069306930692,11.45081731633408
10.712871287128714,11.519770991277081
10.732673267326733,11.580592671220131
10.752475247524751,11.63317002839165
10.772277227722773,11.677406652149816
10.792079207920793,11.713221852563194
10.81188118811881,11.740550503712925
