Time (s),Filtered Signal
0.0,0.006494044498879805
0.03337028824833703,0.1356765336025868
0.06674057649667406,0.2650953194636465
0.10011086474501109,0.38398270058139816
0.13348115299334812,0.4686552339907931
0.16685144124168516,0.4927036713252687
0.20022172949002218,0.4433938994526858
0.2335920177383592,0.33357528526659597
0.26696230598669624,0.20052660380537407
0.3003325942350333,0.09098118324793598
0.3337028824833703,0.04003766092501255
0.3670731707317073,0.05545527244276099
0.40044345898004435,0.11573388329571936
0.4338137472283814,0.18249810245024234
0.4671840354767184,0.21990495378401057
0.5005543237250555,0.21055624634827466
0.5339246119733925,0.1602022208874372
0.5672949002217295,0.09027873226690915
0.6006651884700666,0.023910129455735327
0.6340354767184035,-0.02618153669868159
0.6674057649667406,-0.06155030612467836
0.7007760532150776,-0.09275136461819977
0.7341463414634146,-0.12929396198270499
0.7675166297117517,-0.17147901378867694
0.8008869179600887,-0.20903722677838718
0.8342572062084257,-0.22706155485827131
0.8676274944567628,-0.21534807905904227
0.9009977827050998,-0.17540517054676713
0.9343680709534368,-0.12095122696248872
0.9677383592017739,-0.07161271937954633
1.001108647450111,-0.04342475986375495
1.0344789356984478,-0.04141448354186465
1.067849223946785,-0.05816248994880311
1.101219512195122,-0.07872906819009852
1.134589800443459,-0.08881898342753508
1.167960088691796,-0.08155357700002652
1.2013303769401331,-0.05944313645691377
1.23470066518847,-0.031176002694104085
1.268070953436807,-0.00574686814402493
1.3014412416851442,0.012436190577661462
1.3348115299334813,0.024930419391548997
1.3681818181818182,0.03696851945892076
1.4015521064301553,0.05342612354680783
1.4349223946784924,0.07559316627718826
1.4682926829268292,0.10035937161948343
1.5016629711751663,0.12177102526667574
1.5350332594235034,0.1336471200062661
1.5684035476718403,0.13171326637700295
1.6017738359201774,0.11442755674656756
1.6351441241685145,0.08268882514612642
1.6685144124168514,0.039226697000193204
1.7018847006651885,-0.011655428485936776
1.7352549889135256,-0.06398061617633828
1.7686252771618625,-0.11029218206389187
1.8019955654101996,-0.14289195420531892
1.8353658536585367,-0.156248359921642
1.8687361419068735,-0.1496915201908494
1.9021064301552106,-0.12880822617301377
1.9354767184035477,-0.10415283767251737
1.9688470066518848,-0.08709678739809563
2.002217294900222,-0.0842976318660479
2.035587583148559,-0.09343941845969084
2.0689578713968957,-0.10278216075788388
2.102328159645233,-0.09549751250618603
2.13569844789357,-0.057400707098852304
2.1690687361419068,0.015310093867921376
2.202439024390244,0.11219589743047165
2.235809312638581,0.21101576316593532
2.269179600886918,0.28595932918781347
2.302549889135255,0.3181941564737553
2.335920177383592,0.3038062155475798
2.369290465631929,0.25521276869408854
2.4026607538802662,0.19520958438540076
2.436031042128603,0.14644764391201892
2.46940133037694,0.12141613393921237
2.5027716186252773,0.11771522140805785
2.536141906873614,0.12068154767439497
2.569512195121951,0.1117281847936294
2.6028824833702884,0.07802336348600006
2.6362527716186253,0.018732107764184755
2.6696230598669626,-0.054935357642046115
2.7029933481152995,-0.12537049783410095
2.7363636363636363,-0.17667008922709437
2.7697339246119737,-0.20108815146129885
2.8031042128603105,-0.2010145618324034
2.8364745011086474,-0.18623105335917928
2.8698447893569847,-0.1685558046151877
2.9032150776053216,-0.15688339694043973
2.9365853658536585,-0.15476805663338591
2.969955654101996,-0.16086399350737052
3.0033259423503327,-0.17098205788018678
3.0366962305986696,-0.18011367067686354
3.070066518847007,-0.1834834680513078
3.1034368070953438,-0.17677280270517606
3.1368070953436806,-0.156277613096371
3.170177383592018,-0.11959611158233978
3.203547671840355,-0.06677670296514501
3.2369179600886917,-0.0012801342820513387
3.270288248337029,0.06995833895606321
3.303658536585366,0.13764055370920186
3.337028824833703,0.19206174870264403
3.37039911308204,0.22522279022108302
3.403769401330377,0.23247332410339247
3.437139689578714,0.21340792814145598
3.470509977827051,0.17204864845926937
3.503880266075388,0.11639014359802506
3.537250554323725,0.0572035663283622
3.5706208425720622,0.005891158974740903
3.603991130820399,-0.02853398286450525
3.637361419068736,-0.042581988250429435
3.6707317073170733,-0.040092873262794045
3.70410199556541,-0.031237145001316566
3.737472283813747,-0.02823047109019756
3.7708425720620844,-0.03904896019448438
3.8042128603104213,-0.062025508670782756
3.8375831485587586,-0.08451666315174025
3.8709534368070955,-0.08730628264591142
3.9043237250554323,-0.05356800693314428
3.9376940133037697,0.02151616685333439
3.9710643015521065,0.1253760812535824
4.004434589800444,0.23025509436666652
4.037804878048781,0.3028153860181983
4.071175166297118,0.3172359272831027
4.1045454545454545,0.2659450287347017
4.137915742793791,0.1630697778416836
4.171286031042128,0.0390626387896611
4.204656319290466,-0.07097143457295457
4.238026607538803,-0.1400294924289161
4.27139689578714,-0.15773354852146518
4.304767184035477,-0.13163912048093768
4.3381374722838135,-0.08175498276790186
4.371507760532151,-0.03147895798527744
4.404878048780488,0.0008789371297662372
4.438248337028825,0.006824353067029479
4.471618625277162,-0.012301203699824233
4.504988913525499,-0.04878353290104583
4.538359201773836,-0.09308990290678222
4.571729490022173,-0.1372961965907469
4.60509977827051,-0.17630353867141607
4.638470066518847,-0.2071025110747307
4.671840354767184,-0.22723052196471938
4.705210643015521,-0.2337183072706076
4.738580931263858,-0.22332946215151747
4.771951219512196,-0.1940692364966425
4.8053215077605325,-0.14714456592781364
4.838691796008869,-0.08814282130840272
4.872062084257206,-0.02639755839221968
4.905432372505543,0.027677987008600233
4.93880266075388,0.06640965106890342
4.972172949002218,0.08812423211596063
5.005543237250555,0.09810235365635808
5.0389135254988915,0.1063741212465594
5.072283813747228,0.12301176098234876
5.105654101995565,0.1529390137179429
5.139024390243902,0.19274928405048292
5.17239467849224,0.23125283572268335
5.205764966740577,0.25376084072181015
5.239135254988914,0.24830963724680538
5.2725055432372505,0.21107729796041266
5.305875831485587,0.1486379174039005
5.339246119733925,0.07617412682186889
5.372616407982262,0.01248637763985112
5.405986696230599,-0.026257425743183332
5.439356984478936,-0.0319354803864046
5.472727272727273,-0.007477654743950806
5.5060975609756095,0.03340166257270436
5.539467849223947,0.06994956896503111
5.572838137472284,0.081037433328026
5.606208425720621,0.053118122891740324
5.639578713968958,-0.013239481607513188
5.672949002217295,-0.10132925876302801
5.706319290465632,-0.18279480165721337
5.7396895787139695,-0.2280280228573726
5.773059866962306,-0.21881828908648537
5.806430155210643,-0.157718414876451
5.83980044345898,-0.06925583150113583
5.873170731707317,0.00858704465672148
5.906541019955654,0.03966577653506862
5.939911308203992,0.005266086140775036
5.9732815964523285,-0.0870611212978279
6.006651884700665,-0.20563035292914775
6.040022172949002,-0.3069298129436633
6.073392461197339,-0.3526288598163455
6.106762749445676,-0.3237734160326799
6.140133037694014,-0.22627039636333543
6.173503325942351,-0.08610476611435038
6.2068736141906875,0.062496167025004795
6.240243902439024,0.18994354095731905
6.273614190687361,0.27959871717622264
6.306984478935698,0.32893054720358356
6.340354767184036,0.34474628233703003
6.373725055432373,0.3363041361888939
6.40709534368071,0.31034923767813904
6.4404656319290465,0.27023639845647063
6.473835920177383,0.21857644254409309
6.507206208425721,0.16078780766657513
6.540576496674058,0.1065567789783281
6.573946784922395,0.06758301286218493
6.607317073170732,0.0523134963593999
6.640687361419069,0.06040201176860717
6.674057649667406,0.08026599480182293
6.707427937915743,0.09190471255769138
6.74079822616408,0.07456858834873702
6.774168514412417,0.016173433463263984
6.807538802660754,-0.08001403755566369
6.840909090909091,-0.195028643675185
6.874279379157428,-0.3009264834186681
6.9076496674057655,-0.37177476620668853
6.941019955654102,-0.393828951721158
6.974390243902439,-0.3701214540362041
7.007760532150776,-0.3175216063994119
7.041130820399113,-0.258142406177197
7.07450110864745,-0.20963828976180687
7.107871396895788,-0.17906335204541468
7.1412416851441245,-0.16267943400358803
7.174611973392461,-0.1508674199847752
7.207982261640798,-0.13487486909873977
7.241352549889135,-0.1116251461189103
7.274722838137472,-0.08422135399338668
7.30809312638581,-0.05823279059873321
7.341463414634147,-0.036135781652661667
7.3748337028824835,-0.013344008443896476
7.40820399113082,0.021409657906848595
7.441574279379157,0.08076867982510218
7.474944567627494,0.17072819642040618
7.508314855875832,0.28409403855990695
7.541685144124169,0.3996479391903231
7.575055432372506,0.4888757764484773
7.6084257206208425,0.5282036947886912
7.641796008869179,0.5111432294456518
7.675166297117517,0.45369202337718806
7.708536585365854,0.3888657050021349
7.741906873614191,0.3515334912091523
7.775277161862528,0.3602007809512286
7.808647450110865,0.4049249658065781
7.842017738359202,0.44835394943003765
7.875388026607539,0.44066844408484424
7.908758314855876,0.3420910227166705
7.942128603104213,0.14244069457542327
7.97549889135255,-0.1316528107901501
8.008869179600888,-0.42531491786853737
8.042239467849225,-0.6756229330698391
8.075609756097561,-0.8340666278207617
8.108980044345898,-0.8816133987103436
8.142350332594235,-0.8310593023853686
8.175720620842572,-0.7175740249405356
8.209090909090909,-0.5831022577752013
8.242461197339246,-0.46158278328053226
8.275831485587583,-0.37001484190535316
8.30920177383592,-0.3070136938462569
8.342572062084257,-0.2575682001251427
8.375942350332595,-0.2012228975215296
8.409312638580932,-0.12074637183313854
8.442682926829269,-0.008885087677128643
8.476053215077606,0.12845293623447254
8.509423503325943,0.2733748206619039
8.54279379157428,0.4012382888090246
8.576164079822616,0.4883966771859655
8.609534368070953,0.519907256323659
8.64290465631929,0.49445610267989715
8.676274944567627,0.42464471201805204
8.709645232815964,0.3325338594536179
8.743015521064303,0.24222209401338327
8.77638580931264,0.17237762132212692
8.809756097560976,0.1314920939403078
8.843126385809313,0.11727404939896337
8.87649667405765,0.11975174943645275
8.909866962305987,0.12623303973615174
8.943237250554324,0.12589472810862148
8.97660753880266,0.11244915406651623
9.009977827050998,0.08452221135299136
9.043348115299334,0.04437820149175144
9.076718403547671,-0.003986585545332055
9.110088691796008,-0.056552911722765956
9.143458980044347,-0.11037672526210997
9.176829268292684,-0.1639594495876491
9.21019955654102,-0.2168804389484956
9.243569844789358,-0.2687634215177318
9.276940133037694,-0.31785743472161826
9.310310421286031,-0.35978967923408817
9.343680709534368,-0.3871692271116602
9.377050997782705,-0.39052207102519326
9.410421286031042,-0.36057322495397104
9.443791574279379,-0.29137187079369153
9.477161862527716,-0.18336563759292135
9.510532150776053,-0.045340142666383663
9.543902439024391,0.10580575337319982
9.577272727272728,0.24805567684427773
9.610643015521065,0.35974301844997114
9.644013303769402,0.42596283280580727
9.677383592017739,0.44343927225341573
9.710753880266076,0.4214190981697476
9.744124168514412,0.3775961731392692
9.77749445676275,0.33039491263648363
9.810864745011086,0.2909554551705534
9.844235033259423,0.2586446041833106
9.87760532150776,0.22240027624110828
9.910975609756099,0.16736430999898885
9.944345898004435,0.08354964641747901
9.977716186252772,-0.027787680652571065
10.01108647450111,-0.1532091953258751
10.044456762749446,-0.2718972531017502
10.077827050997783,-0.36361925219358765
10.11119733924612,-0.41590036515555323
10.144567627494457,-0.42724676592471295
10.177937915742794,-0.40558135949482366
10.21130820399113,-0.363467044178309
10.244678492239467,-0.3129069818264679
10.278048780487804,-0.2620914278949352
10.311419068736143,-0.21491946954682575
10.34478935698448,-0.17247782834949543
10.378159645232817,-0.1348110787199992
10.411529933481154,-0.10161312353937353
10.44490022172949,-0.0715861879065703
10.478270509977827,-0.04139027157917641
10.511640798226164,-0.005583904594597634
10.545011086474501,0.041590100042693784
10.578381374722838,0.1029915027302699
10.611751662971175,0.17558145325495905
10.645121951219512,0.24962862275960518
10.67849223946785,0.3112362489237828
10.711862527716187,0.3475363051086755
10.745232815964524,0.35220532515436515
10.778603104212861,0.328402182540444
10.811973392461198,0.2873176000492469
10.845343680709535,0.24280537380327072
10.878713968957872,0.2047848189535428
10.912084257206208,0.1749225465858494
10.945454545454545,0.14694328353644237
10.978824833702882,0.11139282680412828
11.012195121951219,0.062230178100317085
11.045565410199556,0.0016451789822297508
11.078935698447895,-0.05953378429971812
11.112305986696231,-0.1061851445581689
11.145676274944568,-0.12596545532731865
11.179046563192905,-0.11574990916798926
11.212416851441242,-0.08429803731476604
11.245787139689579,-0.04959031023355649
11.279157427937916,-0.031613779991335245
11.312527716186253,-0.043555059177091134
11.34589800443459,-0.08543879007491047
11.379268292682926,-0.1435530920558312
11.412638580931263,-0.1965402913642291
11.4460088691796,-0.22573389935025523
11.479379157427939,-0.2247981628035948
11.512749445676276,-0.2034852497358386
11.546119733924613,-0.18285671380313095
11.57949002217295,-0.18360632727290035
11.612860310421286,-0.21302405995363197
11.646230598669623,-0.2574845964076254
11.67960088691796,-0.2851656289529136
11.712971175166297,-0.25887716809817973
11.746341463414634,-0.15375602725472978
11.77971175166297,0.02824210829674952
11.813082039911308,0.25413643383511303
11.846452328159646,0.46868335918606413
11.879822616407983,0.6130337342165219
11.91319290465632,0.6457828794613489
11.946563192904657,0.55782878034216
11.979933481152994,0.37515877330534847
12.01330376940133,0.1488801306643392
12.046674057649668,-0.06291835977641815
12.080044345898004,-0.21392189755178712
12.113414634146341,-0.28194677122343376
12.146784922394678,-0.2713553299511859
12.180155210643015,-0.20644669239995708
12.213525498891352,-0.1200064982005784
12.24689578713969,-0.04202743868305846
12.280266075388028,0.007794163335311917
12.313636363636364,0.022584476849814673
12.347006651884701,0.0066788809254986975
12.380376940133038,-0.028347819252951073
12.413747228381375,-0.0682876095270832
12.447117516629712,-0.10034653809401181
12.480487804878049,-0.11593655356635556
12.513858093126386,-0.1118507409977402
12.547228381374723,-0.08977317517175978
12.58059866962306,-0.05449998213404291
12.613968957871396,-0.011696966662620803
12.647339246119735,0.033797323723575544
12.680709534368072,0.07843419237990681
12.714079822616409,0.11924079138052146
12.747450110864746,0.15273191085362364
12.780820399113082,0.17448457314267768
12.81419068736142,0.17994607065484666
12.847560975609756,0.1661878421503312
12.880931263858093,0.13365809860116276
12.91430155210643,0.08694467049166832
12.947671840354767,0.034087409436868346
12.981042128603104,-0.0153368952061659
13.014412416851442,-0.052698945566863935
13.04778270509978,-0.07263278090101476
13.081152993348116,-0.07456246464333087
13.114523281596453,-0.06296922233027684
13.14789356984479,-0.046131446823548104
13.181263858093127,-0.033458924454792725
13.214634146341464,-0.03212688858339092
13.2480044345898,-0.04424030292776573
13.281374722838137,-0.06583293777169626
13.314745011086474,-0.08840776447489489
13.348115299334811,-0.1026278955637231
13.381485587583148,-0.10268802967920908
13.414855875831487,-0.08940575097681361
13.448226164079824,-0.0704706358857139
13.48159645232816,-0.05744721036804046
13.514966740576497,-0.06055107969171493
13.548337028824834,-0.08328320020727942
13.581707317073171,-0.11924973279904102
13.615077605321508,-0.15279893630641006
13.648447893569845,-0.16372027634006578
13.681818181818182,-0.1346575168160534
13.715188470066519,-0.05864556037528747
13.748558758314855,0.05621561276074329
13.781929046563192,0.18720829912222217
13.815299334811531,0.303069711850226
13.848669623059868,0.3739659820404781
13.882039911308205,0.3818230306683168
13.915410199556542,0.3269275023910818
13.948780487804878,0.22788629679064412
13.982150776053215,0.1146323161355696
14.015521064301552,0.017160196912891404
14.048891352549889,-0.04531130799696276
14.082261640798226,-0.07010449728423356
14.115631929046563,-0.06939894765352507
14.1490022172949,-0.06222176484253284
14.182372505543238,-0.06424210471397647
14.215742793791575,-0.0804450231090966
14.249113082039912,-0.10410789394626387
14.282483370288249,-0.12210904896721539
14.315853658536586,-0.12328177585026347
14.349223946784923,-0.10507381140420197
14.38259423503326,-0.07493395431553228
14.415964523281596,-0.04592061185997553
14.449334811529933,-0.029265899123925184
14.48270509977827,-0.02823191596106232
14.516075388026607,-0.0367066963189402
14.549445676274944,-0.04316497214899873
14.582815964523283,-0.037521810846954363
14.61618625277162,-0.016841060181040687
14.649556541019956,0.01329304743147797
14.682926829268293,0.04225759520427736
14.71629711751663,0.06041885013067663
14.749667405764967,0.06412660434437568
14.783037694013304,0.05701554578779081
14.81640798226164,0.04730852714964179
14.849778270509978,0.04304750711788353
14.883148558758315,0.048003985077976374
14.916518847006651,0.06020488747904888
14.949889135254988,0.07333476143283353
14.983259423503327,0.07985975479765056
15.016629711751664,0.07425047862810734
15.05,0.055095667434090376
15.083370288248338,0.02563606471519793
15.116740576496674,-0.007216002565868815
15.150110864745011,-0.035085915610238085
15.183481152993348,-0.051133482149774596
15.216851441241685,-0.05305576346877952
15.250221729490022,-0.04489801817365723
15.283592017738359,-0.03644043895655442
15.316962305986696,-0.039691155311722084
15.350332594235034,-0.0634710083612807
15.383702882483371,-0.10847225570234757
15.417073170731708,-0.16551927547466827
15.450443458980045,-0.21851705345193406
15.483813747228382,-0.25115923963067255
15.517184035476719,-0.25416416887206345
15.550554323725056,-0.2290703941913986
15.583924611973393,-0.18616789496787992
15.61729490022173,-0.13736689032589366
15.650665188470066,-0.0879729800266005
15.684035476718403,-0.03248399162087549
15.71740576496674,0.04233278865559207
15.750776053215079,0.14792693664359188
15.784146341463416,0.28295539965849137
15.817516629711752,0.4273138986642948
15.85088691796009,0.5456461636388992
15.884257206208426,0.5999054690614258
15.917627494456763,0.5655227595367619
15.9509977827051,0.44336478197136986
15.984368070953437,0.26135831102060414
16.017738359201775,0.06462167379881463
16.05110864745011,-0.10141294116573066
16.08447893569845,-0.2070780026789731
16.117849223946784,-0.2466606576773419
16.151219512195123,-0.2358556430576833
16.184589800443458,-0.20095995884251364
16.217960088691797,-0.1658362526099717
16.251330376940132,-0.14281286937533644
16.28470066518847,-0.1308193507482206
16.31807095343681,-0.12010066616289301
16.351441241685144,-0.09996741825788885
16.384811529933483,-0.06541889904256372
16.418181818181818,-0.019924517140745612
16.451552106430157,0.026020987300525347
16.48492239467849,0.05907984827660077
16.51829268292683,0.06783647468357078
16.551662971175165,0.04644370027352063
16.585033259423504,-0.0036256078199483574
16.61840354767184,-0.0737513306756591
16.651773835920178,-0.14997295887485027
16.685144124168513,-0.21605773394312194
16.71851441241685,-0.2573013232246849
16.75188470066519,-0.2642182809563225
16.785254988913525,-0.23504166009744407
16.818625277161864,-0.17611936052721114
16.8519955654102,-0.09996484220624699
16.885365853658538,-0.02161006620059325
16.918736141906873,0.045462460471667444
16.95210643015521,0.09249276336894198
16.985476718403547,0.1169075449695448
17.018847006651885,0.12195796463597722
17.05221729490022,0.11495158519919557
17.08558758314856,0.1047410545828063
17.118957871396898,0.09914957965856454
