Frequency (Hz),Amplitude
0.0,0.14002093835463736
0.019867549668874173,0.14235722103167756
0.039735099337748346,0.14913818661905226
0.059602649006622516,0.15977533593462823
0.07947019867549669,0.17352486270025366
0.09933774834437085,0.1896650113989105
0.11920529801324503,0.20758500564764917
0.13907284768211922,0.226803398709577
0.15894039735099338,0.24695262766989243
0.17880794701986755,0.26775445450401314
0.1986754966887417,0.2889971217150312
0.2185430463576159,0.31051729207942336
0.23841059602649006,0.33218671247484405
0.2582781456953642,0.3539026504528147
0.27814569536423844,0.37558110597464156
0.2980132450331126,0.3971519938341146
0.31788079470198677,0.4185557067670036
0.33774834437086093,0.4397406437433054
0.3576158940397351,0.460661415614903
0.3774834437086093,0.4812775295857013
0.3973509933774834,0.5015524152340933
0.4172185430463576,0.5214526965930967
0.4370860927152318,0.5409476433070544
0.45695364238410596,0.5600087534437714
0.4768211920529801,0.5786094340567556
0.49668874172185434,0.5967247550124001
0.5165562913907285,0.6143312582233176
0.5364238410596026,0.6314068091350105
0.5562913907284769,0.6479304806870597
0.5761589403973509,0.663882462412372
0.5960264900662252,0.6792439891215407
0.6158940397350993,0.6939972849348418
0.6357615894039735,0.7081255194013955
0.6556291390728477,0.7216127731782946
0.6754966887417219,0.7344440112961931
0.695364238410596,0.7466050624596583
0.7152317880794702,0.7580826031544495
0.7350993377483444,0.7688641455838978
0.7549668874172186,0.7789380286514597
0.7748344370860927,0.7882934113588987
0.7947019867549668,0.7969202681105148
0.8145695364238411,0.804809385508703
0.8344370860927152,0.8119523603036327
0.8543046357615894,0.8183415982206937
0.8741721854304636,0.8239703134400284
0.8940397350993378,0.8288325285430108
0.9139072847682119,0.8329230747746852
0.9337748344370861,0.8362375924993463
0.9536423841059603,0.8387725317501923
0.9735099337748344,0.8405251527945079
0.9933774834437087,0.841493526653738
1.0132450331125828,0.8416765355333807
1.033112582781457,0.8410738731323602
1.0529801324503312,0.8396860448146883
1.0728476821192052,0.8375143676392792
1.0927152317880795,0.8345609702566182
1.1125827814569538,0.8308287926941735
1.1324503311258278,0.8263215860658751
1.1523178807947019,0.821043912256662
1.1721854304635762,0.8150011436490048
1.1920529801324504,0.8081994629779121
1.2119205298013245,0.8006458634223935
1.2317880794701985,0.7923481490675532
1.2516556291390728,0.783314935901764
1.271523178807947,0.7735556535510617
1.2913907284768211,0.7630805479976158
1.3112582781456954,0.7519006855845044
1.3311258278145695,0.7400279586781646
1.3509933774834437,0.7274750934449841
1.370860927152318,0.7142556603063115
1.390728476821192,0.7003840877720517
1.410596026490066,0.6858756805263572
1.4304635761589404,0.6707466428608907
1.4503311258278146,0.6550141088382689
1.4701986754966887,0.6386961809417361
1.4900662251655628,0.6218119794560473
1.5099337748344372,0.6043817054719333
1.5298013245033113,0.5864267212669592
1.5496688741721854,0.5679696529728872
1.5695364238410596,0.5490345220064691
1.5894039735099337,0.5296469138838072
1.609271523178808,0.5098341959958599
1.6291390728476822,0.48962580004437306
1.6490066225165563,0.4690535906397484
1.6688741721854303,0.4481523498106828
1.6887417218543048,0.4269604190213754
1.7086092715231789,0.405520557468086
1.728476821192053,0.38388110055252816
1.7483443708609272,0.36209753945488
1.7682119205298013,0.34023469753302177
1.7880794701986755,0.3183697603582354
1.8079470198675496,0.29659653503458594
1.8278145695364238,0.2750314840734437
1.847682119205298,0.2538223065679799
1.8675496688741722,0.23316010025039458
1.8874172185430464,0.2132963025440506
1.9072847682119205,0.19456525536434927
1.9271523178807946,0.17741125899151877
1.9470198675496688,0.16241305003250878
1.9668874172185429,0.15028573280534757
1.9867549668874174,0.1418224468883523
2.0066225165562916,0.13773818807241694
2.0264900662251657,0.13844027975776543
2.0463576158940397,0.14385931898521703
2.066225165562914,0.15348048129212485
2.086092715231788,0.16654712562659676
2.1059602649006623,0.18227854876344804
2.1258278145695364,0.19999681341722186
2.1456953642384105,0.2191635719672077
2.165562913907285,0.2393687992580979
2.185430463576159,0.2603043630002439
2.205298013245033,0.28173794833897764
2.2251655629139075,0.3034921429703181
2.2450331125827816,0.32542899151851995
2.2649006622516556,0.34743898133570605
2.2847682119205297,0.36943328587826224
2.3046357615894038,0.39133830714373147
2.324503311258278,0.413091815618004
2.3443708609271523,0.4346401970911368
2.364238410596027,0.4559364694140606
2.384105960264901,0.4769388389165786
2.403973509933775,0.49760963870372765
2.423841059602649,0.5179145400138535
2.443708609271523,0.537821960935818
2.463576158940397,0.557302619299114
2.4834437086092715,0.5763291919794823
2.5033112582781456,0.5948760535336235
2.52317880794702,0.6129190745281677
2.543046357615894,0.6304354651845385
2.562913907284768,0.6474036537063268
2.5827814569536423,0.6638031913505716
2.6026490066225163,0.6796146782625911
2.622516556291391,0.6948197055289931
2.642384105960265,0.7094008099663827
2.662251655629139,0.7233414389556179
2.6821192052980134,0.7366259232285267
2.7019867549668874,0.7492394559661442
2.7218543046357615,0.7611680769140624
2.741721854304636,0.7723986604863431
2.76158940397351,0.782918907036689
2.781456953642384,0.7927173366366341
2.801324503311258,0.8017832848277829
2.821192052980132,0.8101068999153835
2.8410596026490067,0.8176791414511398
2.8609271523178808,0.8244917796170648
2.8807947019867552,0.8305373952746029
2.9006622516556293,0.8358093804856842
2.9205298013245033,0.8403019393470257
2.9403973509933774,0.8440100890082662
2.9602649006622515,0.8469296607686722
2.9801324503311255,0.8490573011678962
3.0,0.8503904730040776
3.0198675496688745,0.8509274562283504
3.0397350993377485,0.8506673486788695
3.0596026490066226,0.8496100666303639
3.0794701986754967,0.8477563451477711
3.0993377483443707,0.8451077382441683
3.119205298013245,0.8416666188554592
3.1390728476821192,0.8374361786568071
3.1589403973509933,0.8324204277589529
3.1788079470198674,0.8266241943376295
3.198675496688742,0.8200531242653066
3.218543046357616,0.812713680833963
3.23841059602649,0.8046131446792569
3.2582781456953644,0.7957596140431477
3.2781456953642385,0.7861620055431967
3.2980132450331126,0.7758300556553263
3.3178807947019866,0.7647743231634687
3.3377483443708607,0.7530061928876444
3.3576158940397347,0.7405378810740639
3.3774834437086096,0.7273824429215499
3.3973509933774837,0.7135537828329356
3.4172185430463577,0.6990666681260319
3.437086092715232,0.6839367471256141
3.456953642384106,0.6681805727996818
3.47682119205298,0.6518156334172781
3.4966887417218544,0.6348603921183311
3.5165562913907285,0.6173343378307458
3.5364238410596025,0.5992580506981107
3.556291390728477,0.5806532861598499
3.576158940397351,0.5615430831546107
3.596026490066225,0.5419519037391115
3.615894039735099,0.5219058139373353
3.6357615894039736,0.5014327191640494
3.6556291390728477,0.48056267255879537
3.6754966887417218,0.45932828170890994
3.695364238410596,0.4377652495761998
3.7152317880794703,0.4159131005780494
3.7350993377483444,0.393816165196325
3.754966887417219,0.3715249300753303
3.774834437086093,0.34909791137830126
3.794701986754967,0.32660428659542556
3.814569536423841,0.30412763829569456
3.834437086092715,0.2817713429902679
3.854304635761589,0.25966640498850047
3.8741721854304636,0.23798290823957113
3.8940397350993377,0.21694670564409557
3.9139072847682117,0.1968632523694836
3.9337748344370858,0.17814978012550917
3.9536423841059607,0.16137296951579316
3.9735099337748347,0.14727701866799955
3.993377483443709,0.13676171360515776
4.013245033112583,0.13074526819731458
4.033112582781457,0.12988562749545066
4.052980132450331,0.13429218334177148
4.072847682119205,0.14347165037056436
4.0927152317880795,0.15656172718057357
4.112582781456953,0.1726371955941729
4.132450331125828,0.19089729092827132
4.152317880794702,0.2107189905728953
4.172185430463576,0.23163991159531958
4.19205298013245,0.25332142201739055
4.211920529801325,0.2755140733439832
4.231788079470199,0.29803109656852006
4.251655629139073,0.32072958373990024
4.271523178807947,0.34349751593708056
4.291390728476821,0.3662448896573243
4.311258278145695,0.38889762709177805
4.33112582781457,0.4113933603731288
4.3509933774834435,0.4336784799759055
4.370860927152318,0.4557060426361591
4.390728476821192,0.4774342700086719
4.410596026490066,0.4988254582852917
4.43046357615894,0.5198451773279518
4.450331125827815,0.5404616763292285
4.470198675496689,0.5606454386029586
4.490066225165563,0.5803688453178065
4.509933774834438,0.599605919695365
4.529801324503311,0.6183321312530917
4.549668874172186,0.6365242452852432
4.569536423841059,0.6541602067273046
4.589403973509934,0.6712190503650346
4.6092715231788075,0.687680831375041
4.629139072847682,0.7035265716574153
4.649006622516556,0.7187382185024437
4.66887417218543,0.7332986129348442
4.688741721854305,0.7471914656788041
4.708609271523179,0.760401339138489
4.728476821192054,0.7729136341326451
4.748344370860927,0.7847145803849465
4.768211920529802,0.7957912299749442
4.788079470198675,0.8061314531126084
4.80794701986755,0.8157239357229559
4.827814569536423,0.8245581784251851
4.847682119205298,0.8326244965678401
4.867549668874172,0.8399140210437622
4.887417218543046,0.8464186996585561
4.9072847682119205,0.8521312988666072
4.927152317880794,0.8570454057220533
4.947019867549669,0.8611554299194486
4.966887417218543,0.8644566058217517
4.986754966887418,0.8669449943924867
5.006622516556291,0.8686174849657331
5.026490066225166,0.8694717968016759
5.04635761589404,0.8695064803884088
5.066225165562914,0.868720918462497
5.086092715231788,0.867115326731222
5.105960264900662,0.86469075429026
5.125827814569536,0.8614490837406258
5.14569536423841,0.8573930310193015
5.1655629139072845,0.8525261449690316
5.185430463576159,0.8468528066848315
5.205298013245033,0.8403782286880137
5.225165562913908,0.833108453993827
5.245033112582782,0.8250503551563492
5.264900662251656,0.8162116333949979
5.28476821192053,0.8066008179319476
5.304635761589404,0.7962272656996574
5.324503311258278,0.7851011616145062
5.344370860927152,0.7732335196578185
5.364238410596027,0.760636185061975
5.3841059602649,0.747321837970136
5.403973509933775,0.7333039990277854
5.4238410596026485,0.7185970374782413
5.443708609271523,0.7032161824810427
5.463576158940397,0.6871775385620089
5.483443708609272,0.6704981063509732
5.503311258278146,0.6531958100891389
5.52317880794702,0.6352895338195453
5.543046357615895,0.6167991687522729
5.562913907284768,0.5977456750767445
5.582781456953643,0.5781511625581869
5.602649006622516,0.5580389957237718
5.622516556291391,0.5374339314892992
5.642384105960264,0.5163622999612597
5.662251655629139,0.49485224326464644
5.682119205298013,0.4729340331962562
5.701986754966887,0.4506404972210875
5.7218543046357615,0.4280075952881043
5.741721854304636,0.40507520949186415
5.7615894039735105,0.38188823855623427
5.781456953642384,0.358498135713601
5.801324503311259,0.33496510215576764
5.821192052980132,0.3113612661111818
5.841059602649007,0.287775368445074
5.860927152317881,0.26431978605125406
5.880794701986755,0.24114122485362688
5.900662251655629,0.2184371925779875
5.920529801324503,0.19648144857207275
5.940397350993377,0.17566267315059106
5.960264900662251,0.1565397498534411
5.980132450331126,0.13990795939802117
6.0,0.12683807055636823
6.0198675496688745,0.11858345714543479
6.039735099337749,0.11622146267566733
6.059602649006623,0.12012159816747695
6.079470198675497,0.1297181531469044
6.099337748344371,0.14385410992287295
6.119205298013245,0.1613038296415275
6.139072847682119,0.18106364717960094
6.158940397350993,0.20240127836599872
6.178807947019867,0.22480447868916903
6.198675496688741,0.24791614693817887
6.218543046357616,0.27148323019668397
6.23841059602649,0.29532168634077377
6.258278145695365,0.3192935647824408
6.2781456953642385,0.3432921747456929
6.298013245033113,0.3672324339453487
6.317880794701987,0.39104450661626033
6.337748344370861,0.41466954229975
6.357615894039735,0.4380567732614984
6.377483443708609,0.46116150436912134
6.397350993377484,0.48394369903817264
6.417218543046357,0.5063669699787082
6.437086092715232,0.5283978493291145
6.456953642384105,0.5500052546087086
6.47682119205298,0.5711600939183927
6.496688741721854,0.5918349715077422
6.516556291390729,0.6120039665951262
6.5364238410596025,0.6316424662722662
6.556291390728477,0.6507270387645246
6.5761589403973515,0.6692353370932164
6.596026490066225,0.6871460258394039
6.6158940397351,0.7044387255960904
6.635761589403973,0.7210939710535016
6.655629139072848,0.7370931796500049
6.675496688741721,0.7524186284467734
6.695364238410596,0.7670534374227765
6.715231788079469,0.7809815577896282
6.735099337748344,0.7941877642306118
6.754966887417219,0.806657650199683
6.774834437086093,0.8183776255947921
6.794701986754967,0.8293349162570944
6.814569536423841,0.8395175648554729
6.8344370860927155,0.8489144327998155
6.854304635761589,0.8575152028931609
6.874172185430464,0.8653103824862605
6.894039735099337,0.8722913069404464
6.913907284768212,0.8784501432391072
6.933774834437086,0.8837798936165773
6.95364238410596,0.8882743990960821
6.973509933774834,0.8919283428474987
6.993377483443709,0.8947372532921656
7.013245033112583,0.8966975068954687
7.033112582781457,0.8978063305997593
7.052980132450331,0.8980618038609853
7.072847682119205,0.8974628602610779
7.0927152317880795,0.896009288677742
7.112582781456954,0.8937017340005049
7.132450331125828,0.8905416973904471
7.152317880794702,0.8865315360889656
7.172185430463576,0.8816744627886743
7.19205298013245,0.8759745445891891
7.211920529801324,0.8694367015695162
7.231788079470198,0.8620667050199009
7.251655629139073,0.8538711753885043
7.271523178807947,0.8448575800127714
7.291390728476822,0.8350342307228326
7.311258278145695,0.8244102814249127
7.33112582781457,0.8129957257985371
7.3509933774834435,0.8008013952724563
7.370860927152318,0.7878389574834649
7.390728476821192,0.7741209154711166
7.410596026490066,0.7596606079236959
7.430463576158941,0.7444722108698493
7.450331125827814,0.7285707413122948
7.470198675496689,0.7119720634325802
7.490066225165562,0.6946928981688086
7.509933774834438,0.6767508371973502
7.52980132450331,0.6581643626539035
7.549668874172186,0.6389528743394184
7.569536423841059,0.6191367267132454
7.589403973509934,0.5987372787404366
7.6092715231788075,0.5777769607219998
7.629139072847682,0.5562793637294741
7.649006622516557,0.5342693593894461
7.66887417218543,0.5117732608294832
7.6887417218543055,0.4888190400870711
7.708609271523178,0.4654366239627401
7.728476821192054,0.4416583004051647
7.748344370860927,0.41751928308919123
7.768211920529802,0.39305850631423644
7.788079470198675,0.36831976160189034
7.80794701986755,0.34335335175611575
7.827814569536423,0.31821854625842416
7.847682119205298,0.2929873078403558
7.8675496688741715,0.26775008774006714
7.887417218543046,0.24262507718753232
7.907284768211921,0.21777338155369383
7.927152317880795,0.19342455443192813
7.9470198675496695,0.16992037862893872
7.966887417218543,0.14778986614330328
7.986754966887418,0.1278710318856826
8.006622516556291,0.11147076945447291
8.026490066225167,0.10042596065884357
8.046357615894038,0.09666011467767177
8.066225165562914,0.10102601313053791
8.086092715231787,0.11258567435453987
8.105960264900663,0.12940534716445543
8.125827814569536,0.14968441836919738
8.14569536423841,0.17215388718833557
8.165562913907285,0.19600161519145154
8.185430463576159,0.22071407405386617
8.205298013245034,0.24595835224916535
8.225165562913906,0.27150986864023335
8.245033112582782,0.29721019845467367
8.264900662251655,0.32294244769734193
8.28476821192053,0.3486165933047316
8.304635761589404,0.3741605286147854
8.324503311258278,0.39951444427201205
8.344370860927151,0.42462720932999
8.364238410596027,0.44945398374839807
8.3841059602649,0.47395460853109095
8.403973509933774,0.4980924988702957
8.42384105960265,0.5218338699702346
8.443708609271523,0.5451471874481278
8.463576158940398,0.5680027722051003
8.483443708609272,0.5903725133786586
8.503311258278146,0.6122296581054958
8.52317880794702,0.633548656647546
8.543046357615895,0.6543050479342738
8.562913907284768,0.6744753749483929
8.582781456953642,0.6940371223722357
8.602649006622515,0.7129686709852989
8.62251655629139,0.7312492647618407
8.642384105960264,0.7488589876552462
8.66225165562914,0.765778747804191
8.682119205298013,0.781990267440787
8.701986754966887,0.7974760771822665
8.721854304635762,0.8122195136865743
8.741721854304636,0.8262047198761715
8.76158940397351,0.839416647104484
8.781456953642383,0.85184105876895
8.801324503311259,0.8634645349747707
8.821192052980132,0.8742744779309845
8.841059602649008,0.8842591178212987
8.86092715231788,0.8934075189398326
8.880794701986755,0.9017095859203087
8.90066225165563,0.9091560699172894
8.920529801324504,0.9157385746229592
8.940397350993377,0.9214495620227906
8.960264900662251,0.9262823578098276
8.980132450331126,0.9302311563910683
9.0,0.9332910254307221
9.019867549668875,0.9354579098847283
9.039735099337747,0.9367286354893051
9.059602649006623,0.937100911673731
9.079470198675496,0.9365733338734588
9.099337748344372,0.9351453852263322
9.119205298013245,0.932817437639363
9.139072847682119,0.9295907522192832
9.158940397350994,0.9254674790649414
9.178807947019868,0.9204506564249832
9.198675496688743,0.9145442092293952
9.218543046357615,0.9077529470096587
9.23841059602649,0.9000825612283662
9.258278145695364,0.891539622046425
9.27814569536424,0.8821315745642754
9.298013245033111,0.8718667345833633
9.317880794701987,0.8607542839453969
9.33774834437086,0.8488042655214022
9.357615894039736,0.8360275779393282
9.37748344370861,0.8224359701605679
9.397350993377483,0.8080420360421687
9.417218543046358,0.7928592090556603
9.437086092715232,0.7769017573759263
9.456953642384107,0.7601847796097262
9.47682119205298,0.7427242015052519
9.496688741721854,0.7245367740791601
9.516556291390728,0.7056400737232752
9.536423841059603,0.6860525050215184
9.556291390728477,0.6657933072352943
9.57615894039735,0.6448825657269277
9.596026490066224,0.6233412300218479
9.6158940397351,0.6011911408129681
9.635761589403973,0.5784550690671698
9.655629139072847,0.5551567716251701
9.675496688741722,0.531321069485656
9.695364238410596,0.5069739576374558
9.715231788079471,0.4821427593443937
9.735099337748345,0.4568563440178804
9.754966887417218,0.43114543762432894
9.774834437086092,0.4050430703935108
9.794701986754967,0.3785852327628306
9.814569536423841,0.3518118550367672
9.834437086092716,0.3247683044981194
9.854304635761588,0.29750773611756964
9.874172185430464,0.27009490249947615
9.894039735099337,0.24261256127870953
9.913907284768213,0.21517272189934789
9.933774834437086,0.1879373795674998
9.95364238410596,0.16115889381301315
9.973509933774835,0.13526324037717033
9.993377483443709,0.11102970286865525
10.013245033112582,0.08997376818666243
10.033112582781456,0.07497515994993856
10.052980132450331,0.07014912554604472
10.072847682119205,0.07747668838786592
10.09271523178808,0.09417051339182621
10.112582781456952,0.11624085955816509
10.132450331125828,0.14114525749603074
10.152317880794701,0.16756832939063115
10.172185430463577,0.1948269217092072
10.192052980132452,0.2225410455157779
10.211920529801324,0.25048127698408573
10.2317880794702,0.27849752348659595
10.251655629139073,0.30648406315242643
10.271523178807948,0.3343613788205383
10.29139072847682,0.36206619802405576
10.311258278145695,0.38954576562945464
10.331125827814569,0.41675441122087437
10.350993377483444,0.44365141723540985
10.370860927152318,0.47019965404177083
10.390728476821192,0.4963646832275581
10.410596026490065,0.5221141556477337
10.43046357615894,0.5474174001659559
10.450331125827816,0.5722451387835074
10.470198675496688,0.5965692873569459
10.490066225165563,0.6203628153940541
10.509933774834437,0.6435996473259855
10.529801324503312,0.6662545933355143
10.549668874172186,0.6883033015228015
10.56953642384106,0.7097222256468789
10.589403973509933,0.730488604341895
