Frequency (Hz),Amplitude
0.0,4.0740781129830985
0.019867549668874173,4.073086905385478
0.039735099337748346,4.070115744224853
0.059602649006622516,4.06517201697091
0.07947019867549669,4.058268044640182
0.09933774834437085,4.049421094615276
0.11920529801324503,4.038653398523927
0.13907284768211922,4.025992175101569
0.15894039735099338,4.011469657924741
0.17880794701986755,3.995123127856946
0.1986754966887417,3.9769949499883843
0.2185430463576159,3.9571326147744483
0.23841059602649006,3.9355887829805307
0.2582781456953642,3.9124213339191294
0.27814569536423844,3.8876934163142827
0.2980132450331126,3.8614735009442307
0.31788079470198677,3.833835433988662
0.33774834437086093,3.804858489739138
0.3576158940397351,3.774627421011029
0.3774834437086093,3.7432325052195745
0.3973509933774834,3.7107695836443435
0.4172185430463576,3.6773400909009193
0.4370860927152318,3.6430510710631134
0.45695364238410596,3.6080151762317563
0.4768211920529801,3.572350642629623
0.49668874172185434,3.536181238522995
0.5165562913907285,3.4996361774416296
0.5364238410596026,3.462849989311972
0.5562913907284769,3.4259623412635363
0.5761589403973509,3.3891177990602044
0.5960264900662252,3.35246551940264
0.6158940397350993,3.3161588628198535
0.6357615894039735,3.2803549166051753
0.6556291390728477,3.2452139173605774
0.6754966887417219,3.2108985633105354
0.695364238410596,3.1775732077568777
0.7152317880794702,3.145402926992238
0.7350993377483444,3.114552458778867
0.7549668874172186,3.085185011206545
0.7748344370860927,3.0574609463933013
0.7947019867549668,3.0315363490329323
0.8145695364238411,3.0075614960835257
0.8344370860927152,2.985679250675127
0.8543046357615894,2.966023410226175
0.8741721854304636,2.9487170453225278
0.8940397350993378,2.933870871571771
0.9139072847682119,2.921581700809748
0.9337748344370861,2.9119310201391584
0.9536423841059603,2.9049837468568356
0.9735099337748344,2.9007872040881186
0.9933774834437087,2.899370355840611
1.0132450331125828,2.9007433314383544
1.033112582781457,2.9048972584017814
1.0529801324503312,2.911804410537165
1.0728476821192052,2.921418665190135
1.0927152317880795,2.933676251264811
1.1125827814569538,2.9484967586153084
1.1324503311258278,2.965784370533127
1.1523178807947019,2.9854292747929563
1.1721854304635762,3.007309205322259
1.1920529801324504,3.0312910659857417
1.2119205298013245,3.057232589948897
1.2317880794701985,3.084983992145657
1.2516556291390728,3.1143895779648725
1.271523178807947,3.145289277794987
1.2913907284768211,3.1775200839677566
1.3112582781456954,3.2109173734405476
1.3311258278145695,3.245316105876832
1.3509933774834437,3.2805518923692842
1.370860927152318,3.3164619347478648
1.390728476821192,3.3528858391727887
1.410596026490066,3.389666310550049
1.4304635761589404,3.4266497362963966
1.4503311258278146,3.463686669228883
1.4701986754966887,3.500632219982764
1.4900662251655628,3.537346369494591
1.5099337748344372,3.573694211843696
1.5298013245033113,3.609546137230405
1.5496688741721854,3.6447779641727958
1.5695364238410596,3.6792710292010886
1.5894039735099337,3.7129122414760425
1.609271523178808,3.745594108901774
1.6291390728476822,3.7772147414727444
1.6490066225165563,3.8076778368138844
1.6688741721854303,3.8368926521532054
1.6887417218543048,3.864773966315689
1.7086092715231789,3.8912420347485277
1.728476821192053,3.9162225400786093
1.7483443708609272,3.9396465402620864
1.7682119205298013,3.961450416006319
1.7880794701986755,3.981575818822579
1.8079470198675496,3.9999696207964344
1.8278145695364238,4.0165838669368075
1.847682119205298,4.031375730778309
1.8675496688741722,4.044307473758556
1.8874172185430464,4.05534640876961
1.9072847682119205,4.064464868183506
1.9271523178807946,4.071640176574517
1.9470198675496688,4.0768546282997296
1.9668874172185429,4.080095470052548
1.9867549668874174,4.0813548884674
2.0066225165562916,4.080630002826262
2.0264900662251657,4.077922862894462
2.0463576158940397,4.073240451895227
2.066225165562914,4.0665946946138325
2.086092715231788,4.0580024706036255
2.1059602649006623,4.047485632444557
2.1258278145695364,4.035071028976602
2.1456953642384105,4.020790533395524
2.165562913907285,4.004681076052275
2.185430463576159,3.9867846817373147
2.205298013245033,3.9671485111553135
2.2251655629139075,3.9458249061987196
2.2450331125827816,3.922871438507721
2.2649006622516556,3.8983509606543207
2.2847682119205297,3.8723316591048147
2.3046357615894038,3.844887107892516
2.324503311258278,3.816096321665511
2.3443708609271523,3.786043806457128
2.364238410596027,3.7548196061524886
2.384105960264901,3.722519342189863
2.403973509933775,3.6892442435326958
2.423841059602649,3.6551011633768677
2.443708609271523,3.6202025784143013
2.463576158940397,3.584666565761975
2.4834437086092715,3.5486167518911893
2.5033112582781456,3.5121822270674454
2.52317880794702,3.475497417958731
2.543046357615894,3.438701910218483
2.562913907284768,3.4019402120430633
2.5827814569536423,3.3653614489982946
2.6026490066225163,3.3291189798774874
2.622516556291391,3.2933699230838056
2.642384105960265,3.2582745831254076
2.662251655629139,3.2239957673902135
2.6821192052980134,3.190697984550638
2.7019867549668874,3.1585465178603394
2.7218543046357615,3.1277063693512486
2.741721854304636,3.0983410745962687
2.76158940397351,3.0706113922965153
2.781456953642384,3.0446738784354292
2.801324503311258,3.0206793609754703
2.821192052980132,2.9987713378109944
2.8410596026490067,2.9790843275711754
2.8609271523178808,2.96174220942217
2.8807947019867552,2.946856593699528
2.9006622516556293,2.9345252694223114
2.9205298013245033,2.9248307769366924
2.9403973509933774,2.9178391536418222
2.9602649006622515,2.9135988976669314
2.9801324503311255,2.912140188433013
3.0,2.9134743944513612
3.0198675496688745,2.9175938879694523
3.0397350993377485,2.9244721738924
3.0596026490066226,2.9340643276738962
3.0794701986754967,2.9463077245355094
3.0993377483443707,2.961123031341877
3.119205298013245,2.978415423486927
3.1390728476821192,2.9980759827562693
3.1589403973509933,3.0199832285772517
3.1788079470198674,3.044004734327911
3.198675496688742,3.0699987821875303
3.218543046357616,3.0978160139288735
3.23841059602649,3.127301040525086
3.2582781456953644,3.1582939798838376
3.2781456953642385,3.190631898871244
3.2980132450331126,3.224150142564874
3.3178807947019866,3.258683540000602
3.3377483443708607,3.2940674812875343
3.3576158940397347,3.3301388657028093
3.3774834437086096,3.366736924183563
3.3973509933774837,3.403703922522004
3.4172185430463577,3.4408857536098707
3.437086092715232,3.4781324283740744
3.456953642384106,3.515298475716429
3.47682119205298,3.552243261939255
3.4966887417218544,3.588831239925118
3.5165562913907285,3.624932137847206
3.5364238410596025,3.660421096508457
3.556291390728477,3.695178763617258
3.576158940397351,3.7290913524639295
3.596026490066225,3.7620506716104765
3.615894039735099,3.7939541313790928
3.6357615894039736,3.824704732143133
3.6556291390728477,3.854211038704587
3.6754966887417218,3.8823871443887286
3.695364238410596,3.9091526279050575
3.7152317880794703,3.9344325055114484
3.7350993377483444,3.958157180573669
3.754966887417219,3.9802623922293128
3.774834437086093,4.000689164540324
3.794701986754967,4.019383757243094
3.814569536423841,4.036297618976577
3.834437086092715,4.0513873436794405
3.854304635761589,4.064614630692256
3.8741721854304636,4.075946248975191
3.8940397350993377,4.08535400575152
3.9139072847682117,4.092814719806973
3.9337748344370858,4.098310199613196
3.9536423841059607,4.101827226394639
3.9735099337748347,4.103357542220863
3.993377483443709,4.102897843177195
4.013245033112583,4.10044977764286
4.033112582781457,4.096019949686274
4.052980132450331,4.089619927568271
4.072847682119205,4.081266257324297
4.0927152317880795,4.070980481374496
4.112582781456953,4.058789162081551
4.132450331125828,4.044723910140904
4.152317880794702,4.02882141764077
4.172185430463576,4.011123495569664
4.19205298013245,3.991677115472225
4.211920529801325,3.97053445485735
4.231788079470199,3.947752945841179
4.251655629139073,3.923395326358167
4.271523178807947,3.897529693089581
4.291390728476821,3.870229555037523
4.311258278145695,3.8415738864056177
4.33112582781457,3.811647177132247
4.3509933774834435,3.780539479049107
4.370860927152318,3.7483464452058155
4.390728476821192,3.715169359401326
4.410596026490066,3.6811151523956216
4.43046357615894,3.646296400635918
4.450331125827815,3.610831302626174
4.470198675496689,3.5748436273001567
4.490066225165563,3.5384626279423945
4.509933774834438,3.5018229143567887
4.529801324503311,3.4650642751403593
4.549668874172186,3.4283314411223547
4.569536423841059,3.3917737803322634
4.589403973509934,3.3555449143348355
4.6092715231788075,3.3198022455055187
4.629139072847682,3.2847063849146214
4.649006622516556,3.2504204710608677
4.66887417218543,3.217109370864928
4.688741721854305,3.184938756220423
4.708609271523179,3.15407405211128
4.728476821192054,3.1246792559137697
4.748344370860927,3.096915632034886
4.768211920529802,3.070940291452437
4.788079470198675,3.0469046718787514
4.80794701986755,3.0249529409298628
4.827814569536423,3.005220351491395
4.847682119205298,2.9878315849740176
4.867549668874172,2.9728991238043627
4.887417218543046,2.960521698727078
4.9072847682119205,2.95078285874117
4.927152317880794,2.94374971129744
4.947019867549669,2.939471877442013
4.966887417218543,2.937980700833899
4.986754966887418,2.9392887411827613
5.006622516556291,2.943389572113123
5.026490066225166,2.9502578914627255
5.04635761589404,2.9598499394340374
5.066225165562914,2.9721042077730653
5.086092715231788,2.9869424121466115
5.105960264900662,3.0042706908777546
5.125827814569536,3.0239809867127274
5.14569536423841,3.0459525645938497
5.1655629139072845,3.070053617500101
5.185430463576159,3.0961429140419625
5.205298013245033,3.1240714452359186
5.225165562913908,3.1536840331973073
5.245033112582782,3.1848208708003627
5.264900662251656,3.2173189681108414
5.28476821192053,3.2510134881153636
5.304635761589404,3.285738960573021
5.324503311258278,3.3213303684292845
5.344370860927152,3.3576241059959373
5.364238410596027,3.394458811949369
5.3841059602649,3.431676083139398
5.403973509933775,3.469121077297249
5.4238410596026485,3.5066430140819813
5.443708609271523,3.5440955846277253
5.463576158940397,3.581337279969556
5.483443708609272,3.6182316485526256
5.503311258278146,3.6546474925700236
5.52317880794702,3.6904590122232763
5.543046357615895,3.7255459062295624
5.562913907284768,3.759793436070322
5.582781456953643,3.7930924606350667
5.602649006622516,3.8253394470926403
5.622516556291391,3.8564364630449806
5.642384105960264,3.886291154297878
5.662251655629139,3.9148167119305923
5.682119205298013,3.9419318317616203
5.701986754966887,3.967560668792821
5.7218543046357615,3.991632788766102
5.741721854304636,4.0140831185797925
5.7615894039735105,4.034851896983028
5.781456953642384,4.053884626687683
5.801324503311259,4.071132028805109
5.821192052980132,4.086550000321786
5.841059602649007,4.100099575170225
5.860927152317881,4.111746889322642
5.880794701986755,4.121463150231857
5.900662251655629,4.1292246108617086
5.920529801324503,4.135012548484586
5.940397350993377,4.1388132483730375
5.960264900662251,4.140617992473226
5.980132450331126,4.140423053116894
6.0,4.138229691803549
6.0198675496688745,4.134044163063234
6.039735099337749,4.127877723390106
6.059602649006623,4.119746645216152
6.079470198675497,4.109672235870405
6.099337748344371,4.09768086143946
6.119205298013245,4.08380397540779
6.139072847682119,4.068078151908784
6.158940397350993,4.0505451233556835
6.178807947019867,4.031251822144141
6.198675496688741,4.010250426019866
6.218543046357616,3.987598406582478
6.23841059602649,3.963358580246199
6.258278145695365,3.937599160793797
6.2781456953642385,3.9103938124377216
6.298013245033113,3.8818217020361017
6.317880794701987,3.8519675487954004
6.337748344370861,3.8209216694201027
6.357615894039735,3.788780016238672
6.377483443708609,3.755644205338322
6.397350993377484,3.7216215311770364
6.417218543046357,3.686824963507795
6.437086092715232,3.651373121750926
6.456953642384105,3.6153902211907734
6.47682119205298,3.579005984567772
6.496688741721854,3.5423555118048005
6.516556291390729,3.505579099779334
6.5364238410596025,3.4688220032718733
6.556291390728477,3.4322341275413875
6.5761589403973515,3.3959696424714023
6.596026490066225,3.3601865079806803
6.6158940397351,3.325045900501237
6.635761589403973,3.2907115309059973
6.655629139072848,3.257348845437335
6.675496688741721,3.225124103063316
6.695364238410596,3.1942033253732225
6.715231788079469,3.164751118690223
6.735099337748344,3.1369293725519105
6.754966887417219,3.1108958440429184
6.774834437086093,3.086802643525324
6.794701986754967,3.0647946438668043
6.814569536423841,3.045007841967444
6.8344370860927155,3.027567707787917
6.854304635761589,3.0125875616580067
6.874172185430464,3.000167024831298
6.894039735099337,2.9903905905064807
6.913907284768212,2.983326362401767
6.933774834437086,2.9790250051502145
6.95364238410596,2.977518945203837
6.973509933774834,2.9788218527727404
6.993377483443709,2.982928425027954
7.013245033112583,2.9898144790387082
7.033112582781457,2.999437350538769
7.052980132450331,3.011736582534082
7.072847682119205,3.026634876854901
7.0927152317880795,3.0440392727614625
7.112582781456954,3.0638425101677953
7.132450331125828,3.085924531226516
7.152317880794702,3.1101540729308765
7.172185430463576,3.1363903048153414
7.19205298013245,3.1644844693657252
7.211920529801324,3.1942814878661365
7.231788079470198,3.225621500550615
7.251655629139073,3.2583413165478747
7.271523178807947,3.292275755733022
7.291390728476822,3.327258870846442
7.311258278145695,3.363125043835831
7.33112582781457,3.3997099551527907
7.3509933774834435,3.4368514286175853
7.370860927152318,3.474390157454689
7.390728476821192,3.5121703192567715
7.410596026490066,3.5500400890460053
7.430463576158941,3.587852060384807
7.450331125827814,3.6254635847595815
7.470198675496689,3.6627370393367147
7.490066225165562,3.6995400327739554
7.509933774834438,3.7357455581532593
7.52980132450331,3.7712321013589984
7.549668874172186,3.805883712417448
7.569536423841059,3.8395900464880857
7.589403973509934,3.8722463803856453
7.6092715231788075,3.903753609741343
7.629139072847682,3.9340182311950715
7.649006622516557,3.962952313357035
7.66887417218543,3.9904734596929945
7.6887417218543055,4.016504765969039
7.708609271523178,4.040974774440513
7.728476821192054,4.063817426579191
7.748344370860927,4.084972015799091
7.768211920529802,4.104383141359194
7.788079470198675,4.122000664383794
7.80794701986755,4.137779666744956
7.827814569536423,4.151680413389124
7.847682119205298,4.163668318557903
7.8675496688741715,4.173713916246489
7.887417218543046,4.181792835157877
7.907284768211921,4.187885778343254
7.927152317880795,4.191978507666173
7.9470198675496695,4.194061833185583
7.966887417218543,4.194131607520284
7.986754966887418,4.192188725229562
8.006622516556291,4.1882391272216175
8.026490066225167,4.182293810179205
8.046357615894038,4.174368840969221
8.066225165562914,4.164485375976617
8.086092715231787,4.152669685272192
8.105960264900663,4.138953181484053
8.125827814569536,4.12337245319304
8.14569536423841,4.105969302609144
8.165562913907285,4.086790787205746
8.185430463576159,4.0658892648887495
8.205298013245034,4.043322442153234
8.225165562913906,4.019153424527427
8.245033112582782,3.9934507684181426
8.264900662251655,3.966288533247719
8.28476821192053,3.9377463325047346
8.304635761589404,3.9079093820140045
8.324503311258278,3.8768685433605854
8.344370860927151,3.8447203599711735
8.364238410596027,3.811567082862764
8.3841059602649,3.777516682506807
8.403973509933774,3.7426828426303222
8.42384105960265,3.7071849310831153
8.443708609271523,3.6711479421517788
8.463576158940398,3.634702403909004
8.483443708609272,3.597984243371516
8.503311258278146,3.561134601432691
8.52317880794702,3.524299588778104
8.543046357615895,3.4876299733387186
8.562913907284768,3.45128078935731
8.582781456953642,3.415410857922238
8.602649006622515,3.380182208958207
8.62251655629139,3.345759395264774
8.642384105960264,3.3123086903763834
8.66225165562914,3.2799971638941794
8.682119205298013,3.248991630609672
8.701986754966887,3.2194574732701535
8.721854304635762,3.1915573432486704
8.741721854304636,3.165449748628614
8.76158940397351,3.141287545163746
8.781456953642383,3.1192163519980713
8.801324503311259,3.0993729205872955
8.821192052980132,3.0818834915230253
8.841059602649008,3.066862179410403
8.86092715231788,3.0544094300432727
8.880794701986755,3.044610596334007
8.90066225165563,3.0375346793432025
8.920529801324504,3.033233278032302
8.940397350993377,3.031739785949872
8.960264900662251,3.033068865131753
8.980132450331126,3.037216217470697
9.0,3.044158662342842
9.019867549668875,3.0538545171756843
9.039735099337747,3.0662442657911124
9.059602649006623,3.0812514886076414
9.079470198675496,3.0987840198692758
9.099337748344372,3.1187352905118635
9.119205298013245,3.1409858113604527
9.139072847682119,3.1654047501038476
9.158940397350994,3.1918515567092203
9.178807947019868,3.220177595240848
9.198675496688743,3.2502277449356805
9.218543046357615,3.2818419393214358
9.23841059602649,3.3148566186116826
9.258278145695364,3.3491060771059478
9.27814569536424,3.3844236934844742
9.298013245033111,3.4206430374384413
9.317880794701987,3.457598850844953
9.33774834437086,3.4951279056003415
9.357615894039736,3.533069743258899
9.37748344370861,3.5712673038349694
9.397350993377483,3.6095674526034016
9.417218543046358,3.647821414581437
9.437086092715232,3.6858851267101143
9.456953642384107,3.723619517686754
9.47682119205298,3.7608907250345105
9.496688741721854,3.7975702584208344
9.516556291390728,3.8335351175297014
9.536423841059603,3.8686678720118204
9.556291390728477,3.9028567102320455
9.57615894039735,3.9359954627373526
9.596026490066224,3.9679836056075404
9.6158940397351,3.998726248139843
9.635761589403973,4.028134108669003
9.655629139072847,4.056123481739092
9.675496688741722,4.082616199324403
9.695364238410596,4.107539588342047
9.715231788079471,4.1308264263048
9.735099337748345,4.1524148966247605
9.754966887417218,4.172248544791336
9.774834437086092,4.190276236405502
9.794701986754967,4.206452117850842
9.814569536423841,4.2207355802151865
9.834437086092716,4.233091226940574
9.854304635761588,4.243488845568617
9.874172185430464,4.251903383858932
9.894039735099337,4.258314930487691
9.913907284768213,4.262708700476631
9.933774834437086,4.265075025457709
9.95364238410596,4.2654093488428755
9.973509933774835,4.263712225937953
9.993377483443709,4.2599893290138455
10.013245033112582,4.254251457323482
10.033112582781456,4.246514552027262
10.052980132450331,4.23679971596173
10.072847682119205,4.22513323815147
10.09271523178808,4.211546622922939
10.112582781456952,4.1960766234261175
10.132450331125828,4.178765279303619
10.152317880794701,4.159659958164244
10.172185430463577,4.138813400414692
10.192052980132452,4.11628376687582
10.211920529801324,4.092134688453998
10.2317880794702,4.066435316949374
10.251655629139073,4.039260375855741
10.271523178807948,4.010690209736859
10.29139072847682,3.980810830445008
10.311258278145695,3.949713958075581
10.331125827814569,3.917497054120698
10.350993377483444,3.884263343791531
10.370860927152318,3.8501218239221235
10.390728476821192,3.815187252245021
10.410596026490065,3.7795801131462907
10.43046357615894,3.743426554270801
10.450331125827816,3.706858287572301
10.470198675496688,3.6700124476092877
10.490066225165563,3.633031399104651
10.509933774834437,3.596062485060791
10.529801324503312,3.559257706102662
10.549668874172186,3.5227733212811354
10.56953642384106,3.4867693603880463
10.589403973509933,3.451409038010628
10.609271523178808,3.416858060190918
10.629139072847682,3.383283815767711
10.649006622516556,3.3508544463713483
10.66887417218543,3.319737791708141
10.688741721854305,3.290100210274843
10.70860927152318,3.262105279998839
10.728476821192054,3.2359123884580434
10.748344370860927,3.211675228163095
10.7682119205298,3.189540218653823
10.788079470198676,3.1696448835466726
10.80794701986755,3.152116216744466
