Frequency (Hz),Amplitude
0.0,1.136059585371469
0.019867549668874173,1.1379549945939085
0.039735099337748346,1.143614915716515
0.059602649006622516,1.1529617467635145
0.07947019867549669,1.1658703849646044
0.09933774834437085,1.1821740570448633
0.11920529801324503,1.2016715509959457
0.13907284768211922,1.2241351410386128
0.15894039735099338,1.249318537798725
0.17880794701986755,1.2769643205053078
0.1986754966887417,1.3068104757853727
0.2185430463576159,1.3385958392566726
0.23841059602649006,1.3720643837200774
0.2582781456953642,1.4069684072676842
0.27814569536423844,1.4430707437562016
0.2980132450331126,1.4801461521492858
0.31788079470198677,1.5179820489391773
0.33774834437086093,1.5563787383074732
0.3576158940397351,1.595149275601247
0.3774834437086093,1.634119076798835
0.3973509933774834,1.6731253636638745
0.4172185430463576,1.7120165133773309
0.4370860927152318,1.7506513635830931
0.45695364238410596,1.7888985092258096
0.4768211920529801,1.8266356161140311
0.49668874172185434,1.8637487674136033
0.5165562913907285,1.9001318528009807
0.5364238410596026,1.935686005330246
0.5562913907284769,1.9703190877864787
0.5761589403973509,2.0039452280724963
0.5960264900662252,2.0364844017312564
0.6158940397350993,2.0678620588283816
0.6357615894039735,2.098008791943688
0.6556291390728477,2.1268600418239965
0.6754966887417219,2.1543558372413547
0.695364238410596,2.1804405657151937
0.7152317880794702,2.205062771946326
0.7350993377483444,2.228174981042856
0.7549668874172186,2.2497335438699713
0.7748344370860927,2.2696985021120284
0.7947019867549668,2.2880334708868655
0.8145695364238411,2.3047055369928664
0.8344370860927152,2.3196851710955397
0.8543046357615894,2.3329461523711323
0.8741721854304636,2.344465504319548
0.8940397350993378,2.354223440638522
0.9139072847682119,2.362203320216472
0.9337748344370861,2.3683916104543865
0.9536423841059603,2.3727778582689156
0.9735099337748344,2.3753546682613025
0.9933774834437087,2.376117687661892
1.0132450331125828,2.375065597779063
1.033112582781457,2.372200111796343
1.0529801324503312,2.367525978874395
1.0728476821192052,2.3610509946263454
1.0927152317880795,2.352786018148285
1.1125827814569538,2.342744995902554
1.1324503311258278,2.330944992871562
1.1523178807947019,2.3174062315271584
1.1721854304635762,2.302152139294408
1.1920529801324504,2.28520940533382
1.2119205298013245,2.266608047621376
1.2317880794701985,2.2463814914748177
1.2516556291390728,2.224566660858378
1.271523178807947,2.2012040839965
1.2913907284768211,2.1763380150427776
1.3112582781456954,2.150016573780496
1.3311258278145695,2.1222919055759806
1.3509933774834437,2.093220364061011
1.370860927152318,2.062862719278462
1.390728476821192,2.0312843942777294
1.410596026490066,1.9985557333735238
1.4304635761589404,1.964752305462739
1.4503311258278146,1.929955245889796
1.4701986754966887,1.8942516403138896
1.4900662251655628,1.8577349537895356
1.5099337748344372,1.8205055077272538
1.5298013245033113,1.7826710064248552
1.5496688741721854,1.744347113274734
1.5695364238410596,1.7056580743333345
1.5894039735099337,1.666737383396408
1.609271523178808,1.6277284777021523
1.6291390728476822,1.5887854464657598
1.6490066225165563,1.5500737251687147
1.6688741721854303,1.5117707364226824
1.6887417218543048,1.4740664229310048
1.7086092715231789,1.4371635994571956
1.728476821192053,1.4012780291422589
1.7483443708609272,1.3666381061799489
1.7682119205298013,1.3334840042002523
1.7880794701986755,1.3020661318703093
1.8079470198675496,1.2726427303703811
1.8278145695364238,1.2454764596785766
1.847682119205298,1.2208298612697464
1.8675496688741722,1.1989596622970293
1.8874172185430464,1.1801100047444433
1.9072847682119205,1.1645048380208483
1.9271523178807946,1.1523398880854439
1.9470198675496688,1.1437747796644517
1.9668874172185429,1.1389259996226908
1.9867549668874174,1.1378614084290042
2.0066225165562916,1.1405969069792565
2.0264900662251657,1.1470956500319855
2.0463576158940397,1.157269900585096
2.066225165562914,1.1709853024820616
2.086092715231788,1.1880670787393806
2.1059602649006623,1.2083074926268307
2.1258278145695364,1.2314738592826497
2.1456953642384105,1.2573164569666406
2.165562913907285,1.2855758250995089
2.185430463576159,1.3159891086983528
2.205298013245033,1.3482952781688362
2.2251655629139075,1.3822391944858277
2.2450331125827816,1.4175745912102269
2.2649006622516556,1.4540661062298916
2.2847682119205297,1.4914905239641392
2.3046357615894038,1.5296373921096154
2.324503311258278,1.568309164788473
2.3443708609271523,1.607321003554355
2.364238410596027,1.6465003444260171
2.384105960264901,1.685686316338203
2.403973509933775,1.72472907599251
2.423841059602649,1.7634891068583294
2.443708609271523,1.801836516143123
2.463576158940397,1.8396503526758905
2.4834437086092715,1.8768179604051
2.5033112582781456,1.9132343761338002
2.52317880794702,1.9488017757517144
2.543046357615894,1.9834289701837826
2.562913907284768,2.017030950229544
2.5827814569536423,2.04952847815657
2.6026490066225163,2.0808477231292337
2.622516556291391,2.1109199371466194
2.642384105960265,2.1396811680137966
2.662251655629139,2.1670720058941417
2.6821192052980134,2.1930373601250235
2.7019867549668874,2.217526263181178
2.7218543046357615,2.2404916989091954
2.741721854304636,2.2618904524113024
2.76158940397351,2.2816829792139077
2.781456953642384,2.2998332916068907
2.801324503311258,2.316308860277904
2.821192052980132,2.3310805295901864
2.8410596026490067,2.3441224450599845
2.8609271523178808,2.355411991782077
2.8807947019867552,2.364929742728937
2.9006622516556293,2.372659416012289
2.9205298013245033,2.3785878403465848
2.9403973509933774,2.382704928094532
2.9602649006622515,2.3850036554054634
2.9801324503311255,2.385480049081966
3.0,2.3841331799284453
3.0198675496688745,2.3809651624502868
3.0397350993377485,2.375981160885315
3.0596026490066226,2.3691894016618082
3.0794701986754967,2.360601192491707
3.0993377483443707,2.350230948424817
3.119205298013245,2.3380962253125217
3.1390728476821192,2.3242177612582817
3.1589403973509933,2.3086195267701664
3.1788079470198674,2.2913287844784587
3.198675496688742,2.272376159441362
3.218543046357616,2.2517957212354904
3.23841059602649,2.229625079216532
3.2582781456953644,2.20590549254009
3.2781456953642385,2.1806819967539433
3.2980132450331126,2.1540035490101355
3.3178807947019866,2.125923194196216
3.3377483443708607,2.0964982545457977
3.3576158940397347,2.065790545551856
3.3774834437086096,2.0338666212605703
3.3973509933774837,2.0007980522504534
3.4172185430463577,1.9666617397755857
3.437086092715232,1.9315402696332424
3.456953642384106,1.895522309252072
3.47682119205298,1.8587030512098675
3.4966887417218544,1.8211847057768622
3.5165562913907285,1.783077043999947
3.5364238410596025,1.7444979911092626
3.556291390728477,1.7055742673991834
3.576158940397351,1.666442069904877
3.596026490066225,1.627247782788679
3.615894039735099,1.588148696929518
3.6357615894039736,1.5493137092953144
3.6556291390728477,1.5109239598083082
3.6754966887417218,1.4731733472383135
3.695364238410596,1.4362688461193172
3.7152317880794703,1.400430524272546
3.7350993377483444,1.365891136642701
3.754966887417219,1.332895148588345
3.774834437086093,1.3016970251055067
3.794701986754967,1.2725586184055637
3.814569536423841,1.2457455034377682
3.834437086092715,1.221522158843536
3.854304635761589,1.2001459775157426
3.8741721854304636,1.1818602193526146
3.8940397350993377,1.166886182255725
3.9139072847682117,1.1554150458618253
3.9337748344370858,1.1476000019553054
3.9536423841059607,1.1435493833123407
3.9735099337748347,1.1433214991065788
3.993377483443709,1.1469217583425977
4.013245033112583,1.1543024221891067
4.033112582781457,1.165365014102872
4.052980132450331,1.1799650985433494
4.072847682119205,1.1979188821385922
4.0927152317880795,1.219010942975296
4.112582781456953,1.2430023693196823
4.132450331125828,1.2696386715468033
4.152317880794702,1.2986569826639727
4.172185430463576,1.329792240449158
4.19205298013245,1.3627822118999404
4.211920529801325,1.3973713558574254
4.231788079470199,1.4333136135422924
4.251655629139073,1.4703742709006673
4.271523178807947,1.5083310585554974
4.291390728476821,1.5469746542252996
4.311258278145695,1.586108737568885
4.33112582781457,1.6255497255920743
4.3509933774834435,1.6651262929500976
4.370860927152318,1.7046787587531023
4.390728476821192,1.7440584014440268
4.410596026490066,1.7831267465920229
4.43046357615894,1.8217548590477246
4.450331125827815,1.859822660528632
4.470198675496689,1.8972182858937963
4.490066225165563,1.9338374856472496
4.509933774834438,1.9695830781346857
4.529801324503311,2.0043644520817767
4.549668874172186,2.0380971182490244
4.569536423841059,2.0707023077951527
4.589403973509934,2.102106614253635
4.6092715231788075,2.132241675687825
4.629139072847682,2.16104389348943
4.649006622516556,2.1884541843423286
4.66887417218543,2.2144177620314625
4.688741721854305,2.238883945994027
4.708609271523179,2.2618059937585255
4.728476821192054,2.283140954678208
4.748344370860927,2.3028495426251365
4.768211920529802,2.3208960255631506
4.788079470198675,2.3372481301560986
4.80794701986755,2.3518769597910385
4.827814569536423,2.3647569246028297
4.847682119205298,2.3758656822772926
4.867549668874172,2.38518408858602
4.887417218543046,2.392696156767822
4.9072847682119205,2.398389025021731
4.927152317880794,2.402252931515923
4.947019867549669,2.4042811964476027
4.966887417218543,2.404470210812915
4.986754966887418,2.402819431664495
5.006622516556291,2.399331383750038
5.026490066225166,2.3940116675387895
5.04635761589404,2.386868973757189
5.066225165562914,2.377915104670671
5.086092715231788,2.367165002468568
5.105960264900662,2.354636785233906
5.125827814569536,2.340351791112818
5.14569536423841,2.3243346314394446
5.1655629139072845,2.306613253725329
5.185430463576159,2.28721901558709
5.205298013245033,2.266186770866388
5.225165562913908,2.243554969391241
5.245033112582782,2.2193657720403914
5.264900662251656,2.193665183001664
5.28476821192053,2.1665032013611865
5.304635761589404,2.1379339944203113
5.324503311258278,2.1080160954069207
5.344370860927152,2.0768126285188817
5.364238410596027,2.0443915644979507
5.3841059602649,2.010826010162268
5.403973509933775,1.9761945354965467
5.4238410596026485,1.9405815419690753
5.443708609271523,1.9040776756557132
5.463576158940397,1.8667802884200235
5.483443708609272,1.8287939497144243
5.503311258278146,1.7902310103774128
5.52317880794702,1.7512122179065934
5.543046357615895,1.711867379826853
5.562913907284768,1.6723360676208503
5.582781456953643,1.6327683478458224
5.602649006622516,1.5933255190650142
5.622516556291391,1.5541808225753588
5.642384105960264,1.515520081142893
5.662251655629139,1.4775422027358511
5.682119205298013,1.4404594655780305
5.701986754966887,1.4044974773652004
5.7218543046357615,1.3698946768512228
5.741721854304636,1.336901223373389
5.7615894039735105,1.3057771043632662
5.781456953642384,1.2767892897943471
5.801324503311259,1.2502077850551463
5.821192052980132,1.2263004896996992
5.841059602649007,1.2053268666368353
5.860927152317881,1.1875305661552258
5.880794701986755,1.1731313224882467
5.900662251655629,1.1623166238093028
5.920529801324503,1.155233812102331
5.940397350993377,1.1519833525499714
5.960264900662251,1.1526139841629734
5.980132450331126,1.1571203074730516
6.0,1.1654430978414914
6.0198675496688745,1.1774723044777398
6.039735099337749,1.1930523755614448
6.059602649006623,1.211989305955041
6.079470198675497,1.2340586786752639
6.099337748344371,1.2590139725267746
6.119205298013245,1.2865945125927787
6.139072847682119,1.3165326060317575
6.158940397350993,1.3485595889540634
6.178807947019867,1.3824106766160815
6.198675496688741,1.41782863884107
6.218543046357616,1.4545664092233723
6.23841059602649,1.492388783765635
6.258278145695365,1.531073380642995
6.2781456953642385,1.5704110275865133
6.298013245033113,1.6102057257218163
6.317880794701987,1.650274315349659
6.337748344370861,1.6904459447105253
6.357615894039735,1.7305614199771462
6.377483443708609,1.7704724949369453
6.397350993377484,1.8100411425122367
6.417218543046357,1.849138837326934
6.437086092715232,1.8876458685915611
6.456953642384105,1.9254506951599535
6.47682119205298,1.9624493492218391
6.496688741721854,1.9985448912888628
6.516556291390729,2.03364691652802
6.5364238410596025,2.0676711107880172
6.556291390728477,2.100538853606435
6.5761589403973515,2.1321768648922736
6.596026490066225,2.1625168917089495
6.6158940397351,2.1914954315328425
6.635761589403973,2.2190534884560384
6.655629139072848,2.245136358985896
6.675496688741721,2.269693444329008
6.695364238410596,2.2926780863083724
6.715231788079469,2.314047424331059
6.735099337748344,2.3337622710891535
6.754966887417219,2.3517870049314067
6.774834437086093,2.3680894770832666
6.794701986754967,2.3826409321170274
6.814569536423841,2.395415940280564
6.8344370860927155,2.4063923404842864
6.854304635761589,2.4155511929211197
6.874172185430464,2.422876740456534
6.894039735099337,2.428356378075022
6.913907284768212,2.4319806298092073
6.933774834437086,2.4337431327086803
6.95364238410596,2.4336406275301172
6.973509933774834,2.431672955949843
6.993377483443709,2.4278430642168267
7.013245033112583,2.422157013279344
7.033112582781457,2.4146239955349067
7.052980132450331,2.40525635847145
7.072847682119205,2.394069635590565
7.0927152317880795,2.381082585132559
7.112582781456954,2.3663172372598043
7.132450331125828,2.349798950501697
7.152317880794702,2.3315564784230207
7.172185430463576,2.3116220476495
7.19205298013245,2.2900314485718463
7.211920529801324,2.2668241402537
7.231788079470198,2.242043371290835
7.251655629139073,2.2157363186090553
7.271523178807947,2.1879542464456065
7.291390728476822,2.158752688030871
7.311258278145695,2.1281916527691958
7.33112582781457,2.0963358620006045
7.3509933774834435,2.0632550166955403
7.370860927152318,2.029024100671608
7.390728476821192,1.993723723093185
7.410596026490066,1.9574405040766631
7.430463576158941,1.9202675071127229
7.450331125827814,1.8823047216427777
7.470198675496689,1.8436595983682247
7.490066225165562,1.8044476385644068
7.509933774834438,1.7647930365991336
7.52980132450331,1.7248293717380228
7.549668874172186,1.684700340803251
7.569536423841059,1.644560516910609
7.589403973509934,1.6045761108492467
7.6092715231788075,1.564925700163472
7.629139072847682,1.525800876161684
7.649006622516557,1.487406740601095
7.66887417218543,1.4499621617554919
7.6887417218543055,1.4136996747569763
7.708609271523178,1.3788648854514078
7.728476821192054,1.3457152141186461
7.748344370860927,1.3145178010100145
7.768211920529802,1.2855463977911221
7.788079470198675,1.2590770975474392
7.80794701986755,1.2353828211779145
7.827814569536423,1.2147265871149573
7.847682119205298,1.1973537443923141
7.8675496688741715,1.183483533920785
7.887417218543046,1.1733005317817737
7.907284768211921,1.1669466798543042
7.927152317880795,1.1645146761462997
7.9470198675496695,1.166043442280603
7.966887417218543,1.171516197251201
7.986754966887418,1.1808613698182184
8.006622516556291,1.1939562352862974
8.026490066225167,1.2106328407830966
8.046357615894038,1.2306855530879774
8.066225165562914,1.2538794620078806
8.086092715231787,1.2799589005895287
8.105960264900663,1.308655470758403
8.125827814569536,1.3396951437012132
8.14569536423841,1.372804193840328
8.165562913907285,1.407713890808281
8.185430463576159,1.4441639981781942
8.205298013245034,1.481905207215273
8.225165562913906,1.5207006739564792
8.245033112582782,1.5603268380784232
8.264900662251655,1.6005736924625502
8.28476821192053,1.6412446518467962
8.304635761589404,1.6821561439558759
8.324503311258278,1.7231370212932389
8.344370860927151,1.7640278687974071
8.364238410596027,1.804680262944426
8.3841059602649,1.8449560218982795
8.403973509933774,1.8847264737705907
8.42384105960265,1.9238717605092637
8.443708609271523,1.9622801878774716
8.463576158940398,1.9998476269033465
8.483443708609272,2.0364769686290245
8.503311258278146,2.072077631589004
8.52317880794702,2.106565119900074
8.543046357615895,2.1398606289118427
8.562913907284768,2.1718906948687153
8.582781456953642,2.2025868848357795
8.602649006622515,2.231885523144544
8.62251655629139,2.2597274507472713
8.642384105960264,2.2860578140812966
8.66225165562914,2.3108258803005346
8.682119205298013,2.3339848760072757
8.701986754966887,2.3554918468966357
8.721854304635762,2.3753075359987634
8.741721854304636,2.3933962784635447
8.76158940397351,2.4097259110765386
8.781456953642383,2.4242676949210105
8.801324503311259,2.436996249809581
8.821192052980132,2.4478894993011635
8.841059602649008,2.4569286252948914
8.86092715231788,2.4640980313558805
8.880794701986755,2.4693853140778037
8.90066225165563,2.4727812419278417
8.920529801324504,2.4742797411515873
8.940397350993377,2.473877888441338
8.960264900662251,2.471575910192371
8.980132450331126,2.467377188290391
9.0,2.461288272491438
9.019867549668875,2.453318899574124
9.039735099337747,2.4434820195665146
9.059602649006623,2.43179382947619
9.079470198675496,2.4182738150860543
9.099337748344372,2.402944801520613
9.119205298013245,2.385833013440392
9.139072847682119,2.3669681458883183
9.158940397350994,2.3463834469918234
9.178807947019868,2.324115813922087
9.198675496688743,2.3002059037261184
9.218543046357615,2.2746982608818973
9.23841059602649,2.247641463680123
9.258278145695364,2.219088291808016
9.27814569536424,2.1890959177983853
9.298013245033111,2.1577261253052766
9.317880794701987,2.1250455574664273
9.33774834437086,2.0911259988977933
9.357615894039736,2.056044695113853
9.37748344370861,2.0198847133445215
9.397350993377483,1.9827353487774795
9.417218543046358,1.9446925801233623
9.437086092715232,1.9058595779834737
9.456953642384107,1.8663472686636213
9.47682119205298,1.8262749546432229
9.496688741721854,1.7857709906405266
9.516556291390728,1.744973510806451
9.536423841059603,1.7040311976479685
9.556291390728477,1.663104076362812
9.57615894039735,1.6223643088286634
9.596026490066224,1.5819969489721095
9.6158940397351,1.542200605138109
9.635761589403973,1.5031879350924322
9.655629139072847,1.4651858755698244
9.675496688741722,1.428435481800558
9.695364238410596,1.3931912254783398
9.715231788079471,1.3597195762950922
9.735099337748345,1.328296678920894
9.754966887417218,1.2992049430724646
9.774834437086092,1.2727283998330552
9.794701986754967,1.2491467532801517
9.814569536423841,1.228728179660743
9.834437086092716,1.2117210950121515
9.854304635761588,1.1983453105448287
9.874172185430464,1.1887831908886337
9.894039735099337,1.183171577223648
9.913907284768213,1.1815952858451357
9.933774834437086,1.1840829069446777
9.95364238410596,1.1906054033014446
9.973509933774835,1.201077678787366
9.993377483443709,1.2153629199337677
10.013245033112582,1.2332791903536076
10.033112582781456,1.2546075432215127
10.052980132450331,1.279100842569925
10.072847682119205,1.306492541769799
10.09271523178808,1.3365048195743383
10.112582781456952,1.368855670823292
10.132450331125828,1.4032647451037696
10.152317880794701,1.4394578914198015
10.172185430463577,1.4771704858629586
10.192052980132452,1.5161496914887624
10.211920529801324,1.5561558324198093
10.2317880794702,1.5969630682852782
10.251655629139073,1.6383595410448242
10.271523178807948,1.6801471427136216
10.29139072847682,1.7221410257276222
10.311258278145695,1.7641689515996906
10.331125827814569,1.806070550258028
10.350993377483444,1.8476965429199803
10.370860927152318,1.888907965648571
10.390728476821192,1.9295754185502434
10.410596026490065,1.9695783563948763
10.43046357615894,2.0088044297169496
10.450331125827816,2.047148880670681
10.470198675496688,2.08451399460609
10.490066225165563,2.1208086061351508
10.509933774834437,2.155947657069014
10.529801324503312,2.189851802799518
10.549668874172186,2.222447063296467
10.56953642384106,2.253664514768543
10.589403973509933,2.2834400180947885
10.609271523178808,2.3117139803092708
10.629139072847682,2.338431145665631
10.649006622516556,2.3635404130878146
10.66887417218543,2.3869946771066033
10.688741721854305,2.4087506896737283
10.70860927152318,2.428768940527564
10.728476821192054,2.4470135540512223
10.748344370860927,2.463452200812866
