Time (s),Filtered Signal
0.0,0.00039617713351553874
0.0334075723830735,-0.22735391736831553
0.066815144766147,-0.42788574639210786
0.1002227171492205,-0.5722429155063119
0.133630289532294,-0.6313357441565568
0.1670378619153675,-0.5831527206244322
0.200445434298441,-0.42280575566607687
0.23385300668151449,-0.1702552625371108
0.267260579064588,0.12937494505551128
0.3006681514476615,0.4150344765078646
0.334075723830735,0.6262833478391647
0.3674832962138085,0.7212597410717875
0.400890868596882,0.6891756614200546
0.4342984409799555,0.5524833047851542
0.46770601336302897,0.3580003844367868
0.5011135857461025,0.1606422455941428
0.534521158129176,0.00610776472396811
0.5679287305122495,-0.08114927814318292
0.601336302895323,-0.10091114008605354
0.6347438752783965,-0.07132546353218464
0.66815144766147,-0.01789915396889971
0.7015590200445435,0.0372538442676913
0.734966592427617,0.08139534092977069
0.7683741648106905,0.11075736549273425
0.801781737193764,0.12556417927759292
0.8351893095768375,0.12450313126894422
0.868596881959911,0.10250212452476322
0.9020044543429845,0.053287378624514985
0.9354120267260579,-0.02499425266479239
0.9688195991091315,-0.12490012695903281
1.002227171492205,-0.22912641937190567
1.0356347438752784,-0.3153851921916743
1.069042316258352,-0.36471270792763216
1.1024498886414256,-0.36918345865068325
1.135857461024499,-0.33522320279181295
1.1692650334075725,-0.2809350509774904
1.202672605790646,-0.22875695632193763
1.2360801781737194,-0.1968030723465213
1.269487750556793,-0.1924972994399894
1.3028953229398665,-0.21071928214915356
1.33630289532294,-0.23658441821167758
1.3697104677060135,-0.25125694194526227
1.403118040089087,-0.23848013087671657
1.4365256124721606,-0.18976213330497776
1.469933184855234,-0.10691806818931554
1.5033407572383075,-0.001497410181056031
1.536748329621381,0.10863519957447378
1.5701559020044544,0.204606140828994
1.603563474387528,0.27216039591071534
1.6369710467706016,0.30577369915768526
1.670378619153675,0.3097685927914314
1.7037861915367485,0.29597025043996256
1.737193763919822,0.27875455538173705
1.7706013363028954,0.26937332696914396
1.804008908685969,0.27171610172372296
1.8374164810690425,0.2810756003762256
1.8708240534521159,0.2863072482348711
1.9042316258351895,0.2745081510399079
1.937639198218263,0.2364535995832992
1.9710467706013366,0.1707858698647696
2.00445434298441,0.08538436851048248
2.0378619153674835,-0.004685661849358803
2.071269487750557,-0.08201626384247242
2.1046770601336307,-0.1327499654276798
2.138084632516704,-0.15124591949756278
2.1714922048997773,-0.14163575776498558
2.204899777282851,-0.11568316186179599
2.2383073496659245,-0.08801194156908515
2.271714922048998,-0.07091149638825966
2.3051224944320716,-0.0709132680049124
2.338530066815145,-0.08817086901102258
2.3719376391982183,-0.11808265449619147
2.405345211581292,-0.15354160007784387
2.4387527839643655,-0.18630423783437774
2.472160356347439,-0.20711256231502032
2.5055679287305126,-0.20556980888188248
2.538975501113586,-0.17136183065124144
2.5723830734966593,-0.0976967180347729
2.605790645879733,0.013850236124902354
2.6391982182628064,0.14948546265484253
2.67260579064588,0.28311052225182226
2.7060133630289536,0.3815008974698599
2.739420935412027,0.413886131290273
2.7728285077951007,0.3627780068030069
2.806236080178174,0.23180479128595277
2.8396436525612474,0.04697585896176409
2.873051224944321,-0.14994585031070123
2.9064587973273945,-0.31422500501269707
2.939866369710468,-0.4126561914849782
2.9732739420935417,-0.43424877573484716
3.006681514476615,-0.39275269651926403
3.0400890868596884,-0.3198764152962688
3.073496659242762,-0.2518889585099582
3.1069042316258355,-0.2150503985274751
3.140311804008909,-0.2157697041872322
3.1737193763919826,-0.2394141294000786
3.207126948775056,-0.258159792231984
3.2405345211581293,-0.24456594928495778
3.273942093541203,-0.18505614520116073
3.3073496659242765,-0.08718740172895684
3.34075723830735,0.023187802258231346
3.3741648106904236,0.11454900595076455
3.407572383073497,0.16705792856935428
3.4409799554565703,0.18635458107945616
3.474387527839644,0.2057768389906578
3.5077951002227175,0.2734047407967013
3.541202672605791,0.427596584941316
3.5746102449888646,0.6715481567082171
3.608017817371938,0.960042939859748
3.6414253897550113,1.2076452738702779
3.674832962138085,1.3180147781876677
3.7082405345211584,1.2230768499939213
3.7416481069042318,0.9143017693066464
3.7750556792873056,0.4505237437259921
3.808463251670379,-0.06264071714461536
3.8418708240534527,-0.5127808768276282
3.875278396436526,-0.8213981206042683
3.9086859688195994,-0.9667291313724611
3.942093541202673,-0.9799285001275728
3.9755011135857465,-0.9197255577182987
4.00890868596882,-0.8407002205378326
4.042316258351893,-0.7713569294366781
4.075723830734967,-0.7106345476056877
4.109131403118041,-0.6405511291231285
4.142538975501114,-0.5447333600767317
4.1759465478841875,-0.4214517964503382
4.209354120267261,-0.2849836913713515
4.242761692650334,-0.15676437467135565
4.276169265033408,-0.053252742004927446
4.309576837416482,0.021927070131800782
4.342984409799555,0.07771024499264867
4.3763919821826285,0.12852786837306446
4.409799554565702,0.18532715545246026
4.443207126948775,0.24976324533313699
4.476614699331849,0.31410222593780057
4.510022271714923,0.36601139099355307
4.543429844097996,0.3951607184225289
4.5768374164810695,0.3982616258354253
4.610244988864143,0.3804458252251244
4.643652561247216,0.35274895776419357
4.67706013363029,0.3270411863576901
4.710467706013364,0.31061870461738345
4.743875278396437,0.3027471338317708
4.77728285077951,0.2947526873495195
4.810690423162584,0.2739036301491476
4.844097995545657,0.22967171154503016
4.877505567928731,0.1596698114770344
4.910913140311805,0.0723458915637937
4.944320712694878,-0.015290652064223576
4.977728285077951,-0.08439911088974947
5.011135857461025,-0.1227199589339967
5.044543429844098,-0.1307693349805926
5.077951002227172,-0.12260936619057515
5.111358574610246,-0.12029991710380654
5.144766146993319,-0.14404333251621382
5.178173719376392,-0.2021850193618223
5.211581291759466,-0.2855968823589332
5.244988864142539,-0.3693054515907306
5.278396436525613,-0.42119295980310195
5.311804008908687,-0.4144873676852439
5.34521158129176,-0.33894049318979846
5.378619153674833,-0.20593536606903012
5.412026726057907,-0.04521225299164034
5.445434298440981,0.10555012320187834
5.478841870824054,0.21399063690413178
5.512249443207128,0.2636867060840793
5.545657015590201,0.25796821523331775
5.579064587973274,0.21587925379298664
5.612472160356348,0.16266868642213506
5.645879732739422,0.11929787761654324
5.679287305122495,0.09535920313507376
5.712694877505569,0.08775830437774508
5.746102449888642,0.08471115273667006
5.779510022271715,0.07247022236565828
5.812917594654789,0.041612586720260976
5.846325167037863,-0.009366104561749721
5.879732739420936,-0.07382535875682918
5.91314031180401,-0.13947857772909913
5.946547884187083,-0.19238092935116963
5.979955456570156,-0.22115757017028714
6.01336302895323,-0.22040614356301505
6.046770601336304,-0.19239351045357458
6.080178173719377,-0.14646564607525575
6.1135857461024505,-0.09616638553697894
6.146993318485524,-0.05484605427798758
6.180400890868597,-0.03120276783851136
6.213808463251671,-0.026372751549670486
6.247216035634745,-0.033724711869615086
6.280623608017818,-0.04156303053197535
6.3140311804008915,-0.037850255653581126
6.347438752783965,-0.015220619903543502
6.380846325167038,0.025694029008426593
6.414253897550112,0.07610321218663448
6.447661469933186,0.12238258177237864
6.481069042316259,0.15177664466176594
6.5144766146993325,0.15823753907958285
6.547884187082406,0.14584506522366636
6.581291759465479,0.12800558828344138
6.614699331848553,0.12226545355304164
6.648106904231627,0.14251300409462314
6.6815144766147,0.19176927031064778
6.7149220489977735,0.2589457061419346
6.748329621380847,0.3215756052584767
6.78173719376392,0.35399037067596495
6.815144766146994,0.33776469518684016
6.848552338530068,0.26981786633996224
6.881959910913141,0.1642609153163936
6.915367483296214,0.04684655865096512
6.948775055679288,-0.05552825791036804
6.982182628062361,-0.12527952767348316
7.015590200445435,-0.1595669229719029
7.048997772828509,-0.1683840203699855
7.082405345211582,-0.16691429354354945
7.115812917594655,-0.1667335778231289
7.149220489977729,-0.17079603619895659
7.182628062360802,-0.17470831572875303
7.216035634743876,-0.17298845716024577
7.24944320712695,-0.16600590362637468
7.282850779510023,-0.16284151897673194
7.316258351893096,-0.1777049237455654
7.34966592427617,-0.22148108895739
7.383073496659243,-0.293191174271278
7.416481069042317,-0.376705798092243
7.449888641425391,-0.4454533011068626
7.4832962138084635,-0.47343022828096215
7.516703786191537,-0.4470014411443267
7.550111358574611,-0.37104884060186244
7.583518930957685,-0.26577011168810794
7.616926503340758,-0.15553733890855123
7.650334075723832,-0.05587963405585045
7.683741648106905,0.0339275526522282
7.717149220489978,0.1280491780471483
7.750556792873052,0.24215075781951717
7.783964365256126,0.3788324091612378
7.817371937639199,0.5189655980973683
7.850779510022273,0.6248889092413378
7.884187082405346,0.6554839289540147
7.917594654788419,0.5868220096371314
7.951002227171493,0.42850045668631576
7.984409799554567,0.2268168567924955
8.01781737193764,0.05130178029228017
8.051224944320714,-0.03139204248703275
8.084632516703786,0.01405859045017288
8.118040089086861,0.173325414372763
8.151447661469934,0.3833915819038541
8.184855233853007,0.5541623705970067
8.218262806236082,0.6029827212787118
8.251670378619155,0.4880179592361936
8.285077951002227,0.2261545489737763
8.318485523385302,-0.11263370196952657
8.351893095768375,-0.43225850817978245
8.385300668151448,-0.6471962015636635
8.418708240534523,-0.7131762513942713
8.452115812917596,-0.6394252023038809
8.485523385300668,-0.47881743925101816
8.518930957683743,-0.3021896848334121
8.552338530066816,-0.16930776974691272
8.585746102449889,-0.1089102411022792
8.619153674832964,-0.11459171332818473
8.652561247216036,-0.15538148769817278
8.68596881959911,-0.19374692477025562
8.719376391982184,-0.2020013202867032
8.752783964365257,-0.17077384161945594
8.78619153674833,-0.10816161606253985
8.819599109131405,-0.03254439822957016
8.853006681514477,0.03619114843560473
8.88641425389755,0.08328439181047503
8.919821826280625,0.10227430559175382
8.953229398663698,0.095384832816925
8.98663697104677,0.07228595968136503
9.020044543429846,0.047657766145889485
9.053452115812918,0.03722136751105075
9.086859688195991,0.05221011331375808
9.120267260579066,0.09369114023429544
9.153674832962139,0.14958083559350402
9.187082405345212,0.19713183184009123
9.220489977728286,0.21145772257162282
9.25389755011136,0.17720849936027497
9.287305122494432,0.09787553612090025
9.320712694877507,-0.002678872616760646
9.35412026726058,-0.08854846767235956
9.387527839643653,-0.1270259531884312
9.420935412026727,-0.10383188783967992
9.4543429844098,-0.03080431896607829
9.487750556792873,0.05813303933495905
9.521158129175948,0.12128603738609724
9.55456570155902,0.12738235854952507
9.587973273942094,0.06944319041765176
9.621380846325168,-0.03172183234699857
9.654788418708241,-0.13565522064090707
9.688195991091314,-0.19826620105567835
9.721603563474389,-0.18895131381068012
9.755011135857462,-0.10209742967568645
9.788418708240535,0.04105662918027331
9.82182628062361,0.20025976458569134
9.855233853006682,0.33028370816441194
9.888641425389755,0.395748866207253
9.92204899777283,0.3815827170968784
9.955456570155903,0.29598420329251246
9.988864142538976,0.16564899856536525
10.02227171492205,0.025651722401920072
10.055679287305123,-0.09207979458373443
10.089086859688196,-0.1677292300045277
10.12249443207127,-0.1973702428822593
10.155902004454344,-0.19106215069821872
10.189309576837417,-0.16682911628978822
10.222717149220491,-0.1433047890735164
10.256124721603564,-0.13380959877700013
10.289532293986637,-0.14354923954543214
10.322939866369712,-0.17007721470881065
10.356347438752785,-0.2058700950419156
10.389755011135858,-0.24134106029275298
10.423162583518932,-0.26698809321725525
10.456570155902005,-0.2743321020738001
10.489977728285078,-0.25625336138088534
10.523385300668153,-0.2076937038146245
10.556792873051226,-0.12722049939756794
10.590200445434299,-0.01895882037859987
10.623608017817373,0.10639010321774914
10.657015590200446,0.23265356510898005
10.69042316258352,0.34159864657896943
10.723830734966594,0.41747350831580515
10.757238307349667,0.4507434881234908
10.790645879732741,0.4394955923835349
10.824053452115814,0.38831515781349885
10.857461024498887,0.30579455076272744
10.890868596881962,0.20231795152524337
10.924276169265035,0.08911272101881801
10.957683741648108,-0.02170609607119587
10.991091314031182,-0.11732307590340414
11.024498886414255,-0.18582932208301847
11.057906458797328,-0.21941434731300988
11.091314031180403,-0.2179474703446801
11.124721603563476,-0.19092297135335706
11.158129175946549,-0.15602744614697744
11.191536748329623,-0.13396848869517936
11.224944320712696,-0.14105764924425018
11.25835189309577,-0.18243056511378994
11.291759465478844,-0.24892495938688305
11.325167037861917,-0.3193090692448347
11.35857461024499,-0.367287227740546
11.391982182628064,-0.3705665559512911
11.425389755011137,-0.31832512090767046
11.45879732739421,-0.21418996663393838
11.492204899777285,-0.07394027811299493
11.525612472160358,0.0805022172456446
11.55902004454343,0.22786658337644358
11.592427616926505,0.35241820781501826
11.625835189309578,0.44574662670418796
11.659242761692651,0.5059766283337728
11.692650334075726,0.5357997365533205
11.726057906458799,0.54043228795422
11.759465478841872,0.5257014492584365
11.792873051224946,0.49590162184681763
11.82628062360802,0.45144012066339756
11.859688195991092,0.3873158439614072
11.893095768374167,0.29413985396608194
11.92650334075724,0.1627422093947682
11.959910913140313,-0.008651629863739206
11.993318485523387,-0.20800247093680005
12.02672605790646,-0.407950464682735
12.060133630289533,-0.5716493621513793
12.093541202672608,-0.6646819494164028
12.12694877505568,-0.6682008534176239
12.160356347438753,-0.587164413104794
12.193763919821828,-0.4494885897760153
12.227171492204901,-0.29612027154318576
12.260579064587974,-0.16623466101562212
12.293986636971049,-0.08386019906994442
12.327394209354122,-0.051348641861559546
12.360801781737194,-0.05186830202953098
12.39420935412027,-0.059156488230245725
12.427616926503342,-0.049900168493573586
12.461024498886415,-0.01343910364081577
12.49443207126949,0.04492064666804036
12.527839643652563,0.1077148149237198
12.561247216035635,0.15399689313147877
12.59465478841871,0.1688741005546428
12.628062360801783,0.14993655394978062
12.661469933184856,0.10819502844425087
12.69487750556793,0.06346264195843679
12.728285077951004,0.03625463014429789
12.761692650334076,0.039525172411762594
12.795100222717151,0.07354108480690523
12.828507795100224,0.12592896388824512
12.861915367483297,0.17685356065294902
12.895322939866372,0.20716371973841358
12.928730512249444,0.20606456018304087
12.962138084632517,0.17506362492126176
12.995545657015592,0.12659866242538817
13.028953229398665,0.07816790304357218
13.062360801781738,0.04479467342196873
13.095768374164813,0.03325884004796921
13.129175946547885,0.04043608279424793
13.162583518930958,0.05594394986212231
13.195991091314033,0.06729842755094616
13.229398663697106,0.06495941267744833
13.262806236080179,0.04523651546178514
13.296213808463254,0.010453361316364127
13.329621380846326,-0.03290621124714721
13.3630289532294,-0.07677755322091331
13.396436525612474,-0.11375957194613315
13.429844097995547,-0.13857046851122382
13.46325167037862,-0.148755970809427
13.496659242761694,-0.1448494098394419
13.530066815144767,-0.13008281055781482
13.56347438752784,-0.10960370432041497
13.596881959910915,-0.08914694534871767
13.630289532293988,-0.07331676972172987
13.66369710467706,-0.06397246886344915
13.697104677060135,-0.059446408216997614
13.730512249443208,-0.05518335864788235
13.763919821826281,-0.04580165427996243
13.797327394209356,-0.027815716961894003
13.830734966592429,-0.0018079453915967093
13.864142538975502,0.0269866665163092
13.897550111358576,0.05002267531681298
13.93095768374165,0.05825494648579158
13.964365256124722,0.045451437072166714
13.997772828507797,0.01093975122187114
14.03118040089087,-0.039086346836172015
14.064587973273943,-0.09222798054714774
14.097995545657017,-0.13259632886132217
14.13140311804009,-0.14513560816295257
14.164810690423163,-0.12053494742578852
14.198218262806238,-0.059257261446343135
14.23162583518931,0.026889156813530567
14.265033407572384,0.1167597870792528
14.298440979955458,0.18553181013336592
14.331848552338531,0.212636895524253
14.365256124721604,0.18929859080400363
14.398663697104679,0.12255490746611343
14.432071269487752,0.03355596018306897
14.465478841870825,-0.049882314165717985
14.4988864142539,-0.10382797803872813
14.532293986636972,-0.11740105336219904
14.565701559020045,-0.09618157434142487
14.59910913140312,-0.05785756826718096
14.632516703786193,-0.021891682825884027
14.665924276169266,0.0016617837316674911
14.69933184855234,0.01806293775919707
14.732739420935413,0.044675068507450406
14.766146993318486,0.09953507902704
14.79955456570156,0.18741557486322424
14.832962138084634,0.2912280286251149
14.866369710467707,0.3745616011694022
14.899777282850781,0.3956305312501668
14.933184855233854,0.32668285543281567
14.966592427616927,0.16939582579766613
15.0,-0.04191632861366612
