Time (s),Filtered Signal
0.0,0.05354406624583216
0.03337004405286344,0.2574030062899634
0.06674008810572687,0.465218148053143
0.10011013215859031,0.6823067191008919
0.13348017621145375,0.9122852581613506
0.16685022026431717,1.1512236700228065
0.20022026431718062,1.38100023679879
0.23359030837004408,1.5666738951734676
0.2669603524229075,1.6621757834110935
0.3003303964757709,1.6251434254544583
0.33370044052863435,1.4366130646297577
0.3670704845814978,1.1170956671470496
0.40044052863436125,0.7298981386893834
0.43381057268722467,0.3666353440007644
0.46718061674008815,0.1175693096483703
0.5005506607929515,0.03737089432444949
0.533920704845815,0.1210126853785702
0.5672907488986785,0.30198667705417687
0.6006607929515418,0.47617654177549273
0.6340308370044053,0.5431358467363734
0.6674008810572687,0.44766893345671815
0.7007709251101322,0.20305946853910004
0.7341409691629956,-0.11557560837822554
0.767511013215859,-0.40616979322044383
0.8008810572687225,-0.5877423918666677
0.834251101321586,-0.6392099173477661
0.8676211453744493,-0.6096517590186816
0.9009911894273128,-0.593610972434873
0.9343612334801763,-0.6821270472467503
0.9677312775330397,-0.9130428208132847
1.001101321585903,-1.2456765901871996
1.0344713656387665,-1.5736784646185789
1.06784140969163,-1.771053322911681
1.1012114537444935,-1.74948312272691
1.134581497797357,-1.4990552693576344
1.1679515418502202,-1.0926273368595796
1.2013215859030837,-0.6522243525022878
1.2346916299559472,-0.29461553426770776
1.2680616740088106,-0.08280855577232324
1.3014317180616741,-0.005902796439259994
1.3348017621145374,0.005622063162462008
1.3681718061674009,0.03990785958131417
1.4015418502202643,0.16053318306411155
1.4349118942731278,0.380514478669907
1.4682819383259913,0.662775651825487
1.5016519823788548,0.9424813224195295
1.535022026431718,1.1574817821041608
1.5683920704845815,1.2722893302839988
1.601762114537445,1.2869372416527316
1.6351321585903085,1.2302386605465785
1.668502202643172,1.1431617240665752
1.7018722466960352,1.0604042254930512
1.7352422907488987,0.9972199324357125
1.7686123348017622,0.9455853132031383
1.8019823788546256,0.8802084365378635
1.8353524229074891,0.7714942927410023
1.8687224669603526,0.600102075082101
1.9020925110132159,0.36702703929768987
1.9354625550660793,0.09484799052353113
1.9688325991189428,-0.18043504055020498
2.002202643171806,-0.423243636786638
2.0355726872246698,-0.6114722000106314
2.068942731277533,-0.7425415537934387
2.1023127753303967,-0.8295499599328006
2.13568281938326,-0.8895550074242876
2.1690528634361232,-0.9303343872334532
2.202422907488987,-0.9433721367019334
2.23579295154185,-0.9080386617745418
2.269162995594714,-0.8057856922710294
2.302533039647577,-0.6367409132511078
2.3359030837004404,-0.42835235935047383
2.369273127753304,-0.22909452389301863
2.4026431718061674,-0.08851304312466225
2.436013215859031,-0.03346749364801633
2.4693832599118943,-0.05395547123353353
2.5027533039647576,-0.10762892166423162
2.5361233480176213,-0.14194161187888432
2.5694933920704845,-0.12249086516419387
2.6028634361233483,-0.051766461537584206
2.6362334801762115,0.03283528383786025
2.6696035242290748,0.08151417050365928
2.7029735682819385,0.06315613425917543
2.7363436123348017,-0.012261534688629347
2.7697136563876654,-0.09308751501236572
2.8030837004405287,-0.10898677194851644
2.8364537444933924,-0.006742662407641415
2.8698237885462556,0.21896529736179857
2.903193832599119,0.5157067365258476
2.9365638766519826,0.7903776232191642
2.969933920704846,0.9463358287755442
3.0033039647577096,0.9241097295977081
3.036674008810573,0.7273177584161826
3.070044052863436,0.42194883996141874
3.1034140969162998,0.10891772203332017
3.136784140969163,-0.11836196982770056
3.1701541850220267,-0.2127395982847419
3.20352422907489,-0.19084219788578005
3.2368942731277532,-0.1208476773761596
3.270264317180617,-0.08576233892103347
3.30363436123348,-0.1397078261491894
3.337004405286344,-0.2790203927093127
3.370374449339207,-0.44311902840773126
3.4037444933920704,-0.5448799417372183
3.437114537444934,-0.514667724827589
3.4704845814977974,-0.33506831217436306
3.503854625550661,-0.04893089559066967
3.5372246696035243,0.26177537140448537
3.5705947136563876,0.5133782822809451
3.6039647577092513,0.6540708808483291
3.6373348017621145,0.6777704978487745
3.6707048458149782,0.6145529994020182
3.7040748898678415,0.5064240704798291
3.737444933920705,0.3832914376397803
3.7708149779735685,0.251449216953014
3.8041850220264317,0.09840128190900839
3.8375550660792954,-0.09111851336341513
3.8709251101321587,-0.3178300494206318
3.9042951541850224,-0.5582791584172353
3.9376651982378856,-0.7671354714230934
3.971035242290749,-0.8902644331289002
4.004405286343612,-0.8836965431110481
4.037775330396476,-0.7320865551134413
4.0711453744493395,-0.46035498457759844
4.104515418502203,-0.13347794112518294
4.137885462555066,0.15795603037997996
4.171255506607929,0.3244451609172023
4.2046255506607935,0.30914486653444734
4.237995594713657,0.11268321113762457
4.27136563876652,-0.200509857784579
4.304735682819383,-0.5203436177014957
4.3381057268722465,-0.7294453247883473
4.371475770925111,-0.7474178382531156
4.404845814977974,-0.5621360440665255
4.438215859030837,-0.23366948227328196
4.4715859030837,0.1315875032353199
4.504955947136564,0.42514172147450546
4.538325991189428,0.578987307950117
4.571696035242291,0.5878621203882158
4.605066079295154,0.5029060910582837
4.638436123348018,0.4023150997316123
4.671806167400881,0.35462905938545053
4.705176211453745,0.3918024520377622
4.738546255506608,0.5023247768873632
4.7719162995594715,0.6438019927652948
4.805286343612335,0.7654961707093373
4.838656387665198,0.8285527455678683
4.872026431718062,0.8154967336869485
4.905396475770925,0.7279479020224268
4.938766519823789,0.5778446808427886
4.972136563876652,0.3795285864924498
5.005506607929515,0.14749611273437127
5.038876651982379,-0.1002707821644234
5.072246696035243,-0.33763654027287926
5.105616740088106,-0.5298058043707051
5.138986784140969,-0.6404135631825253
5.172356828193832,-0.6453118015490248
5.2057268722466965,-0.547515074152905
5.23909691629956,-0.38515076133568904
5.272466960352423,-0.22556871594374178
5.305837004405286,-0.14433571345353144
5.3392070484581495,-0.1955891495779509
5.372577092511014,-0.3861610728148956
5.405947136563877,-0.66623085135101
5.43931718061674,-0.9429749239921312
5.4726872246696034,-1.1134690925107498
5.506057268722468,-1.1040337553509456
5.539427312775331,-0.8997814932561226
5.572797356828194,-0.5518238937183328
5.606167400881057,-0.15854677669809825
5.639537444933921,0.1722453551386893
5.672907488986785,0.36561195841260213
5.706277533039648,0.4089518925757561
5.739647577092511,0.355576002967943
5.7730176211453745,0.29929095186189353
5.806387665198238,0.3294659233155516
5.839757709251102,0.48585269361433864
5.873127753303965,0.734316717399292
5.9064977973568284,0.9765474093567444
5.939867841409692,1.0915901830739905
5.973237885462555,0.991613052091546
6.006607929515419,0.6664071717329971
6.039977973568282,0.19518197783890204
6.073348017621146,-0.28112535377041853
6.106718061674009,-0.6153882737845154
6.140088105726872,-0.7128638446596041
6.173458149779736,-0.5666024600838351
6.2068281938325995,-0.2545621829030463
6.240198237885463,0.09871344072037284
6.273568281938326,0.37684833239571564
6.306938325991189,0.5171050508495038
6.3403083700440535,0.5264639439234354
6.373678414096917,0.463123092265249
6.40704845814978,0.3951875362665918
6.440418502202643,0.35912662015963
6.4737885462555065,0.33995888792956436
6.507158590308371,0.2832600940846191
6.540528634361234,0.1318385960642848
6.573898678414097,-0.1337263590469039
6.60726872246696,-0.47393078669403005
6.640638766519824,-0.8012819918173253
6.674008810572688,-1.0181646781624372
6.707378854625551,-1.061530183656035
6.740748898678414,-0.9309583294190897
6.774118942731278,-0.6865080273048748
6.807488986784141,-0.4194166723203023
6.840859030837005,-0.2120872750774373
6.874229074889868,-0.10687950740840574
6.9075991189427315,-0.09596346752517623
6.940969162995595,-0.13272495944582582
6.974339207048458,-0.155905319160173
7.007709251101322,-0.11464157681251035
7.041079295154185,0.014643301624576284
7.074449339207049,0.22304941847878978
7.107819383259912,0.4742700948648476
7.141189427312775,0.7158817632583523
7.174559471365639,0.8927793655031552
7.207929515418503,0.9601006573385874
7.241299559471366,0.8942270024975574
7.274669603524229,0.7004730580895951
7.308039647577092,0.4152191304906337
7.3414096916299565,0.09997947367964861
7.37477973568282,-0.17342155644959878
7.408149779735683,-0.34385642677965855
7.441519823788546,-0.3816359439658143
7.47488986784141,-0.30079183470132925
7.508259911894274,-0.1563819994970539
7.541629955947137,-0.02532917244458971
7.575,0.023862374888871486
7.608370044052863,-0.03885740563221899
7.641740088105728,-0.18889031628941036
7.675110132158591,-0.35443169902498906
7.708480176211454,-0.4476223320520227
7.741850220264317,-0.40739755229711444
7.775220264317181,-0.23381392926372394
7.808590308370045,0.004956098936465857
7.841960352422908,0.1996325597325351
7.875330396475771,0.2500606956180627
7.9087004405286345,0.11464746052381226
7.942070484581498,-0.16610264521884646
7.975440528634362,-0.48470009685534615
8.008810572687224,-0.7137616514340112
8.042180616740088,-0.7622773634802514
8.075550660792953,-0.6138500161211728
8.108920704845815,-0.32911263098973953
8.142290748898679,-0.012626586785298205
8.175660792951541,0.2380582328750838
8.209030837004406,0.37558819429562484
8.24240088105727,0.41783574460695416
8.275770925110132,0.4294656980079659
8.309140969162996,0.48156788258530775
8.342511013215859,0.6108726358827299
8.375881057268723,0.7986860594501811
8.409251101321587,0.9785543129893902
8.44262114537445,1.0671763613626841
8.475991189427313,1.0026617193987617
8.509361233480176,0.7724450627214242
8.54273127753304,0.4197200920464507
8.576101321585904,0.027754694142666587
8.609471365638766,-0.3096499257090769
8.64284140969163,-0.519543657839579
8.676211453744493,-0.5725500344901876
8.709581497797357,-0.4908092320960347
8.742951541850221,-0.3397410706457846
8.776321585903084,-0.2061889705919352
8.809691629955948,-0.16886881990389915
8.84306167400881,-0.26980468673521446
8.876431718061674,-0.4965413689256803
8.909801762114538,-0.7828782380957143
8.9431718061674,-1.0301353929916026
8.976541850220265,-1.1429872773904848
9.009911894273127,-1.0668937677439576
9.043281938325991,-0.8117095042600215
9.076651982378856,-0.45023920862234085
9.110022026431718,-0.09050132252390097
9.143392070484582,0.1676497600784287
9.176762114537445,0.27275348796815974
9.210132158590309,0.24037182575056731
9.243502202643173,0.1413922927504592
9.276872246696035,0.06613357427147036
9.3102422907489,0.08253431701496891
9.343612334801762,0.20912646965108234
9.376982378854626,0.4145218660224248
9.41035242290749,0.6400410775137678
9.443722466960352,0.8300602785302542
9.477092511013216,0.9527778684140596
9.510462555066079,1.0027088537407176
9.543832599118943,0.9887412617493139
9.577202643171807,0.9195010153078669
9.61057268722467,0.7966484934458046
9.643942731277534,0.6188828182447372
9.677312775330396,0.3913451399744663
9.71068281938326,0.13223706090857865
9.744052863436124,-0.1283806660122024
9.777422907488987,-0.35689090823218006
9.81079295154185,-0.5267699334372363
9.844162995594713,-0.6265102003595808
9.877533039647577,-0.6620789744834771
9.910903083700441,-0.6538030548718056
9.944273127753304,-0.629077569277375
9.977643171806168,-0.612939317844296
10.01101321585903,-0.6191121371195785
10.044383259911895,-0.644558848149118
10.077753303964759,-0.6699580978179123
10.111123348017621,-0.6664198150587135
10.144493392070485,-0.606070970971563
10.177863436123348,-0.4725149634096416
10.211233480176212,-0.2675149913330442
10.244603524229076,-0.012097928763119308
10.277973568281938,0.25767773672587524
10.311343612334802,0.4988240134554657
10.344713656387665,0.6716239562896882
10.378083700440529,0.7500826891965385
10.411453744493393,0.7302534690791055
10.444823788546255,0.6332679576502891
10.47819383259912,0.5000630944585108
10.511563876651982,0.37724762877390156
10.544933920704846,0.29815224563133
10.57830396475771,0.2674546191746056
10.611674008810573,0.2583407029706336
10.645044052863437,0.22602719395298096
10.678414096916299,0.13252460117683557
10.711784140969163,-0.029943387435655184
10.745154185022027,-0.2301176449167178
10.77852422907489,-0.40930072964222713
10.811894273127754,-0.5078208660542972
10.845264317180618,-0.49254266118389056
10.87863436123348,-0.3715466710751722
10.912004405286345,-0.18990724485619842
10.945374449339207,-0.010808124586965139
10.978744493392071,0.10739716538843086
11.012114537444935,0.1282424694116628
11.045484581497798,0.04414936613485953
11.078854625550662,-0.1248432394352072
11.112224669603524,-0.3365855215589863
11.145594713656388,-0.534281577890222
11.178964757709252,-0.656547439458058
11.212334801762115,-0.6514611260921452
11.245704845814979,-0.49344240641693654
11.279074889867841,-0.19761529584629547
11.312444933920705,0.17615161702815457
11.34581497797357,0.535348728972392
11.379185022026432,0.7823880945633892
11.412555066079296,0.8489180591563471
11.445925110132158,0.723171626079305
11.479295154185023,0.4579218742391578
11.512665198237887,0.15412375728940217
11.546035242290749,-0.07448248472697415
11.579405286343613,-0.14255103497488225
11.612775330396476,-0.024609920010868765
11.64614537444934,0.23463066246824568
11.679515418502204,0.5346487026853811
11.712885462555066,0.7531315273735717
11.74625550660793,0.7882617486857443
11.779625550660793,0.5951832477020291
11.812995594713657,0.20406888985024133
11.846365638766521,-0.28719074683923695
11.879735682819383,-0.7441333425377801
11.913105726872248,-1.0403570715822226
11.94647577092511,-1.0997572658393702
11.979845814977974,-0.9209566815097593
12.013215859030838,-0.5751906007620512
12.0465859030837,-0.17906991250385657
12.079955947136565,0.1469811055111315
12.113325991189427,0.3189402807197714
12.146696035242291,0.3135897111903879
12.180066079295155,0.1691029740591932
12.213436123348018,-0.036986542002237
12.246806167400882,-0.22259239392032037
12.280176211453744,-0.33390076073194425
12.313546255506608,-0.36244685018011424
12.346916299559473,-0.339641620386901
12.380286343612335,-0.3122741108858045
12.413656387665199,-0.31158830009628935
12.447026431718061,-0.3318783955974751
12.480396475770926,-0.33020509331647224
12.51376651982379,-0.248537605560877
12.547136563876652,-0.04809947836488665
12.580506607929516,0.26145398122161434
12.613876651982379,0.614280251753
12.647246696035243,0.9087317055308212
12.680616740088107,1.0487234758044643
12.71398678414097,0.9874793432171307
12.747356828193833,0.7521471161306048
12.780726872246696,0.43564210285844185
12.81409691629956,0.15748184337137774
12.847466960352424,0.010939893814873095
12.880837004405286,0.02159853922600042
12.91420704845815,0.13784532415434067
12.947577092511013,0.25865402145540206
12.980947136563877,0.2854220493299694
13.014317180616741,0.17218057220135946
13.047687224669604,-0.05115907538299163
13.081057268722468,-0.2945091308058206
13.11442731277533,-0.45450982620708724
13.147797356828194,-0.4688658605575497
13.181167400881058,-0.3503573266679671
13.21453744493392,-0.18291100543598393
13.247907488986785,-0.08116622273173198
13.281277533039647,-0.13319665097602554
13.314647577092511,-0.3543682566784503
13.348017621145376,-0.6748342317945294
13.381387665198238,-0.9668854656403675
13.414757709251102,-1.099423344742467
13.448127753303964,-0.9943758278277065
13.481497797356829,-0.6596992701200494
13.514867841409693,-0.18530840280653196
13.548237885462555,0.2943338254396472
13.58160792951542,0.6528077004720316
13.614977973568282,0.8164472703491437
13.648348017621146,0.7840036290924554
13.68171806167401,0.6166946649693524
13.715088105726872,0.40671170003603996
13.748458149779736,0.23940794564735474
13.781828193832599,0.16412695259549082
13.815198237885463,0.18269599765914915
13.848568281938327,0.25671861611572516
13.88193832599119,0.32833929744024937
13.915308370044054,0.3457382757366316
13.948678414096916,0.2841703293243506
13.98204845814978,0.15525893879722802
14.015418502202644,0.0011667960207843429
14.048788546255507,-0.12421248691003632
14.08215859030837,-0.17926714425945944
14.115528634361233,-0.15312349003659118
14.148898678414097,-0.06981750131506194
14.182268722466961,0.02370392607902888
14.215638766519824,0.079421352766318
14.249008810572688,0.06874068265582574
14.28237885462555,-0.008127291618488781
14.315748898678414,-0.1269892488310651
14.349118942731279,-0.25397249812330513
14.382488986784141,-0.36033784147662856
14.415859030837005,-0.43030643709068545
14.449229074889868,-0.4600301486012667
14.482599118942732,-0.45154895665857836
14.515969162995596,-0.4076858739742438
14.549339207048458,-0.3314461360805272
14.582709251101322,-0.22892790319208603
14.616079295154185,-0.11165688688691268
14.649449339207049,0.005129193204149752
14.682819383259913,0.10810924691559784
14.716189427312775,0.19163393541190946
14.74955947136564,0.2590432449796179
14.782929515418502,0.3178327147426377
14.816299559471366,0.37153429526969173
14.84966960352423,0.414216660759214
14.883039647577093,0.4325424665714005
14.916409691629957,0.415452160672719
14.94977973568282,0.3656859749200771
14.983149779735683,0.30458579870466806
15.016519823788547,0.2644934305155498
15.04988986784141,0.2705726198289122
15.083259911894274,0.32161243646205745
15.116629955947138,0.38208348921744545
15.15,0.392873132055212
15.183370044052865,0.29790488872014004
15.216740088105727,0.07412774996627836
15.250110132158591,-0.2508929767151259
15.283480176211455,-0.6040778692902445
15.316850220264318,-0.8935751138257247
15.350220264317182,-1.0450473651141923
15.383590308370044,-1.0305562899800687
15.416960352422908,-0.8768254322265149
15.450330396475772,-0.6498044236504035
15.483700440528635,-0.42368626846632546
15.517070484581499,-0.24931341703395657
15.550440528634361,-0.13632314282344876
15.583810572687225,-0.05625926450094723
15.61718061674009,0.03606262085814706
15.650550660792952,0.17383714518430304
15.683920704845816,0.35614795386786063
15.717290748898678,0.5432819395855897
15.750660792951543,0.6724959057073813
15.784030837004407,0.687903784601605
15.817400881057269,0.5710737114074242
15.850770925110133,0.3573101403130128
15.884140969162996,0.12780433012853434
15.91751101321586,-0.02160747467527217
15.950881057268724,-0.022786767204800013
15.984251101321586,0.13044208659532602
16.01762114537445,0.3733977780358138
16.050991189427315,0.5936789373160362
16.084361233480177,0.678218250134464
16.11773127753304,0.5642221358263088
16.151101321585905,0.2707554002107419
16.184471365638768,-0.10485729203712173
16.21784140969163,-0.4264558883981798
16.251211453744492,-0.5784228428765991
16.284581497797358,-0.5187824018300315
16.31795154185022,-0.3009302460392912
16.351321585903083,-0.05201970036497227
16.38469162995595,0.08414090750764078
16.41806167400881,0.014392354727478828
16.451431718061674,-0.2578207351197041
16.48480176211454,-0.6305684662417298
16.518171806167402,-0.947858145082993
16.551541850220264,-1.0701053036303938
16.584911894273127,-0.9372875648594063
16.618281938325993,-0.5947596479811548
16.651651982378855,-0.17013423926638677
16.685022026431717,0.18631182337089755
16.718392070484583,0.36803587063736976
16.751762114537446,0.35400564986199623
16.785132158590308,0.20829197981694106
16.818502202643174,0.04143452807621297
16.851872246696036,-0.044655121919730624
16.8852422907489,-0.0009217574944445938
16.91861233480176,0.15462222695304761
16.951982378854627,0.35545299174808953
16.98535242290749,0.5248864296168945
17.01872246696035,0.6135837572358707
17.052092511013218,0.6185391428494218
17.08546255506608,0.5768047932632164
17.118832599118942,0.5400768800246649
17.152202643171808,0.5447982415300833
17.18557268722467,0.5930231234931981
17.218942731277533,0.6524783923750918
17.2523127753304,0.674077016802278
17.28568281938326,0.6168052222458343
17.319052863436124,0.46723522892545716
17.352422907488986,0.24471867784067483
17.385792951541852,-0.00878665424197525
