Time (s),Filtered Signal
0.0,-0.06448105687333877
0.03337004405286344,-0.1253376577418141
0.06674008810572687,-0.1828563202703562
0.10011013215859031,-0.23308901838644464
0.13348017621145375,-0.27038756742172826
0.16685022026431717,-0.2889206315489451
0.20022026431718062,-0.2851950735693448
0.23359030837004408,-0.259997761713797
0.2669603524229075,-0.21826046963302956
0.3003303964757709,-0.1664794228397532
0.33370044052863435,-0.10894436287881792
0.3670704845814978,-0.045143110433808344
0.40044052863436125,0.029572067204835746
0.43381057268722467,0.11972597256819
0.46718061674008815,0.22384501857852293
0.5005506607929515,0.3303646192682981
0.533920704845815,0.4182641271375618
0.5672907488986785,0.4631449649895617
0.6006607929515418,0.44661568696265436
0.6340308370044053,0.3648847997107411
0.6674008810572687,0.2324439962865886
0.7007709251101322,0.07873715051565819
0.7341409691629956,-0.061162694146336835
0.767511013215859,-0.15810060832923353
0.8008810572687225,-0.19783318012756188
0.834251101321586,-0.1839203764279672
0.8676211453744493,-0.13379875986728482
0.9009911894273128,-0.07030176360193056
0.9343612334801763,-0.012586709839360506
0.9677312775330397,0.029823444827347962
1.001101321585903,0.057992130833660574
1.0344713656387665,0.07995011322954475
1.06784140969163,0.10470207901500225
1.1012114537444935,0.1366558776967247
1.134581497797357,0.17271566431466762
1.1679515418502202,0.20299082968094379
1.2013215859030837,0.21461029048860625
1.2346916299559472,0.1969873221231498
1.2680616740088106,0.14638377968362784
1.3014317180616741,0.06791761225851146
1.3348017621145374,-0.025833506033076388
1.3681718061674009,-0.11909541208624334
1.4015418502202643,-0.19828080135985843
1.4349118942731278,-0.25625957034525826
1.4682819383259913,-0.2937766801545488
1.5016519823788548,-0.3175434310366211
1.535022026431718,-0.3359759725690625
1.5683920704845815,-0.35451768437522785
1.601762114537445,-0.3725577942884483
1.6351321585903085,-0.38319784124052647
1.668502202643172,-0.3759431164442399
1.7018722466960352,-0.34131803917453774
1.7352422907488987,-0.2757472410239523
1.7686123348017622,-0.18488768565411723
1.8019823788546256,-0.08391780765753393
1.8353524229074891,0.005911627301541552
1.8687224669603526,0.06392247976429052
1.9020925110132159,0.07789901650003467
1.9354625550660793,0.050254951082057006
1.9688325991189428,-0.0004718755075442965
2.002202643171806,-0.044362983702298464
2.0355726872246698,-0.0502093855097281
2.068942731277533,0.0025258567848134273
2.1023127753303967,0.11477333279301123
2.13568281938326,0.26613066083082804
2.1690528634361232,0.4216278903764638
2.202422907488987,0.5444160160990549
2.23579295154185,0.6089631796453708
2.269162995594714,0.609099135521255
2.302533039647577,0.5578029831197924
2.3359030837004404,0.47959893312241014
2.369273127753304,0.39968178205684546
2.4026431718061674,0.33483221369955307
2.436013215859031,0.2895806610093528
2.4693832599118943,0.2580752423668424
2.5027533039647576,0.22942280695786796
2.5361233480176213,0.19321175445806918
2.5694933920704845,0.1427523752659888
2.6028634361233483,0.0754972264466897
2.6362334801762115,-0.00814817747735289
2.6696035242290748,-0.1058493225807209
2.7029735682819385,-0.21322216685085807
2.7363436123348017,-0.32304098196717007
2.7697136563876654,-0.42523261607804147
2.8030837004405287,-0.5088319247438254
2.8364537444933924,-0.5656235234118774
2.8698237885462556,-0.5935923533661284
2.903193832599119,-0.5978093069252363
2.9365638766519826,-0.5875666021305835
2.969933920704846,-0.5708449579378949
3.0033039647577096,-0.5490926094327183
3.036674008810573,-0.5155030484712144
3.070044052863436,-0.45820832832357744
3.1034140969162998,-0.3670321016294375
3.136784140969163,-0.24031111861458276
3.1701541850220267,-0.08808910727420391
3.20352422907489,0.07013410656301118
3.2368942731277532,0.21203561249097813
3.270264317180617,0.32019882400229266
3.30363436123348,0.38730472685698786
3.337004405286344,0.4167339623327605
3.370374449339207,0.4189863427227225
3.4037444933920704,0.40622353613313084
3.437114537444934,0.3876654709149274
3.4704845814977974,0.36756541405554155
3.503854625550661,0.34585328836132656
3.5372246696035243,0.3202429940209114
3.5705947136563876,0.2882447134447868
3.6039647577092513,0.24809782875243566
3.6373348017621145,0.1986433104904597
3.6707048458149782,0.13893404678840046
3.7040748898678415,0.06849531665270926
3.737444933920705,-0.011433239714189731
3.7708149779735685,-0.09624792236563554
3.8041850220264317,-0.17714810659142938
3.8375550660792954,-0.24225354469243363
3.8709251101321587,-0.2798814787602364
3.9042951541850224,-0.28288004579933335
3.9376651982378856,-0.2519936592511235
3.971035242290749,-0.19635461920225175
4.004405286343612,-0.1304231943704977
4.037775330396476,-0.0684496920625991
4.0711453744493395,-0.018895795128379106
4.104515418502203,0.018516186025833197
4.137885462555066,0.05156928907415095
4.171255506607929,0.09058451391761278
4.2046255506607935,0.1421201678644159
4.237995594713657,0.2045791889941229
4.27136563876652,0.2681215605055695
4.304735682819383,0.31904924721716704
4.3381057268722465,0.34634612217725796
4.371475770925111,0.3467208542614107
4.404845814977974,0.32520179555332873
4.438215859030837,0.29084439691181874
4.4715859030837,0.2500956525314809
4.504955947136564,0.20203429156467803
4.538325991189428,0.13887827177544465
4.571696035242291,0.05204848990931068
4.605066079295154,-0.059590701373826216
4.638436123348018,-0.18461920214858152
4.671806167400881,-0.3010952500800326
4.705176211453745,-0.3857157755207457
4.738546255506608,-0.42559094200312764
4.7719162995594715,-0.425950583056077
4.805286343612335,-0.4087544351492792
4.838656387665198,-0.40192361985158154
4.872026431718062,-0.42419146869944174
4.905396475770925,-0.4734545947883096
4.938766519823789,-0.525278127099691
4.972136563876652,-0.5433028830973062
5.005506607929515,-0.4971236476490549
5.038876651982379,-0.3789702126844347
5.072246696035243,-0.21059984900331133
5.105616740088106,-0.03640230363829334
5.138986784140969,0.09441829279885354
5.172356828193832,0.14819563661673674
5.2057268722466965,0.12011014387943372
5.23909691629956,0.034649775800513406
5.272466960352423,-0.06600044871093805
5.305837004405286,-0.13912763594628375
5.3392070484581495,-0.15581974615711658
5.372577092511014,-0.10669841211978695
5.405947136563877,0.001398451817348448
5.43931718061674,0.1534777882247369
5.4726872246696034,0.3333001141016008
5.506057268722468,0.5254152837326427
5.539427312775331,0.7128592223063095
5.572797356828194,0.8745023180883614
5.606167400881057,0.986413964137118
5.639537444933921,1.0286239778655297
5.672907488986785,0.9942582209961613
5.706277533039648,0.8951897008692192
5.739647577092511,0.7592470140475064
5.7730176211453745,0.6185463966306829
5.806387665198238,0.49413452095522875
5.839757709251102,0.3853024416322243
5.873127753303965,0.27029366840506175
5.9064977973568284,0.119165644606135
5.939867841409692,-0.08741906644202384
5.973237885462555,-0.3434687350470473
6.006607929515419,-0.6151111917092843
6.039977973568282,-0.851790356112704
6.073348017621146,-1.005540842868516
6.106718061674009,-1.0489527759823256
6.140088105726872,-0.9840401640563676
6.173458149779736,-0.8395548558738187
6.2068281938325995,-0.6598036723465405
6.240198237885463,-0.49076259159897223
6.273568281938326,-0.36855034173312007
6.306938325991189,-0.3126094650816967
6.3403083700440535,-0.3234437001766206
6.373678414096917,-0.38381506055477843
6.40704845814978,-0.46274065893134175
6.440418502202643,-0.5222593530356374
6.4737885462555065,-0.5266572068193128
6.507158590308371,-0.45251546844986157
6.540528634361234,-0.296510201300417
6.573898678414097,-0.07764646967106102
6.60726872246696,0.16777506405811407
6.640638766519824,0.3972126229987356
6.674008810572688,0.574922583120392
6.707378854625551,0.6818846111744463
6.740748898678414,0.718861581830153
6.774118942731278,0.701970452800191
6.807488986784141,0.6534514941141377
6.840859030837005,0.5921586098103027
6.874229074889868,0.527838268772922
6.9075991189427315,0.4609438977663636
6.940969162995595,0.3868936295909756
6.974339207048458,0.30179166361761944
7.007709251101322,0.20649918409326962
7.041079295154185,0.1073527962190687
7.074449339207049,0.013816834378966834
7.107819383259912,-0.065187336678151
7.141189427312775,-0.12424488080070228
7.174559471365639,-0.1624660887192314
7.207929515418503,-0.18255558404785388
7.241299559471366,-0.18886553573700304
7.274669603524229,-0.1855915001133724
7.308039647577092,-0.17583859820265202
7.3414096916299565,-0.16159130115621262
7.37477973568282,-0.14410805684039588
7.408149779735683,-0.12418133502793685
7.441519823788546,-0.10200515291230867
7.47488986784141,-0.07680984105241419
7.508259911894274,-0.04667578859633743
7.541629955947137,-0.008899688470293569
7.575,0.03898092364390603
7.608370044052863,0.09774509906675162
7.641740088105728,0.16514438471717294
7.675110132158591,0.23526185528941734
7.708480176211454,0.29900212953737587
7.741850220264317,0.3457171752412394
7.775220264317181,0.3654708294716844
7.808590308370045,0.35113757529011425
7.841960352422908,0.29963435122661747
7.875330396475771,0.21207423319180174
7.9087004405286345,0.09320397854414238
7.942070484581498,-0.04925044300654413
7.975440528634362,-0.20493242458384076
8.008810572687224,-0.36101874788716304
8.042180616740088,-0.5027274604542893
8.075550660792953,-0.6147075323253158
8.108920704845815,-0.6834681720337318
8.142290748898679,-0.7004401964093864
8.175660792951541,-0.6647421495548976
8.209030837004406,-0.5844626221098088
8.24240088105727,-0.47547388398774215
8.275770925110132,-0.35756346708695624
8.309140969162996,-0.2488279911720366
8.342511013215859,-0.16030374966298813
8.375881057268723,-0.0930929321081031
8.409251101321587,-0.03944335579176383
8.44262114537445,0.012436546085895122
8.475991189427313,0.07186483520710084
8.509361233480176,0.1405394073708118
8.54273127753304,0.21138826706108502
8.576101321585904,0.27217531811702395
8.609471365638766,0.3121502174130721
8.64284140969163,0.3282797925515426
8.676211453744493,0.3276316361191338
8.709581497797357,0.32441781905581013
8.742951541850221,0.33305464846178534
8.776321585903084,0.36077751000007463
8.809691629955948,0.40363853286085233
8.84306167400881,0.4479606124519524
8.876431718061674,0.47652478332872544
8.909801762114538,0.47644819495477725
8.9431718061674,0.4450106222291314
8.976541850220265,0.3908004768977002
9.009911894273127,0.3297641127227808
9.043281938325991,0.2779580090043208
9.076651982378856,0.24411935329836645
9.110022026431718,0.22518720173178114
9.143392070484582,0.20672784288050544
9.176762114537445,0.16830517123892919
9.210132158590309,0.0918571893513385
9.243502202643173,-0.03018239091042819
9.276872246696035,-0.19036758835503534
9.3102422907489,-0.36735822709083027
9.343612334801762,-0.5323788417841611
9.376982378854626,-0.6583618083957443
9.41035242290749,-0.7278886684904629
9.443722466960352,-0.7367076030582645
9.477092511013216,-0.6919359199506205
9.510462555066079,-0.6067942307582381
9.543832599118943,-0.49525680476609646
9.577202643171807,-0.3694293021304108
9.61057268722467,-0.2402189268381236
9.643942731277534,-0.11947184525398559
9.677312775330396,-0.020803962804467932
9.71068281938326,0.0425944075349914
9.744052863436124,0.06264430573360243
9.777422907488987,0.04110163007192271
9.81079295154185,-0.008520297607170288
9.844162995594713,-0.0633953757604411
9.877533039647577,-0.09768333859714337
9.910903083700441,-0.09043895955868202
9.944273127753304,-0.032278649364023373
9.977643171806168,0.07145022684858084
10.01101321585903,0.20190761104538915
10.044383259911895,0.3318789097185786
10.077753303964759,0.43320493734578613
10.111123348017621,0.48447535101621486
10.144493392070485,0.4769321613129379
10.177863436123348,0.4169000560004584
10.211233480176212,0.32383942553223805
10.244603524229076,0.22434729718426633
10.277973568281938,0.14386716877906794
10.311343612334802,0.09889469489335248
10.344713656387665,0.09243524794957472
10.378083700440529,0.114228996524995
10.411453744493393,0.14536112566899906
10.444823788546255,0.16524960790170104
10.47819383259912,0.1583698095586805
10.511563876651982,0.11855344703512413
10.544933920704846,0.04985993044546668
10.57830396475771,-0.03574964915635177
10.611674008810573,-0.12283067240302073
10.645044052863437,-0.19746571250880934
10.678414096916299,-0.25138088341110354
10.711784140969163,-0.2839916442687869
10.745154185022027,-0.301738906409166
10.77852422907489,-0.31479096701735443
10.811894273127754,-0.33201078567641984
10.845264317180618,-0.35586742146506106
10.87863436123348,-0.37939986773022016
10.912004405286345,-0.38702063894010025
10.945374449339207,-0.35965055867755574
10.978744493392071,-0.2827021857034437
11.012114537444935,-0.15367907574109826
11.045484581497798,0.014264297259408937
11.078854625550662,0.19497273484469418
11.112224669603524,0.357433078472363
11.145594713656388,0.47588793705288507
11.178964757709252,0.537326636224764
11.212334801762115,0.5431500944940202
11.245704845814979,0.5049095177710139
11.279074889867841,0.4370262345445516
11.312444933920705,0.3505999824994833
11.34581497797357,0.251259628630263
11.379185022026432,0.14137505602727102
11.412555066079296,0.02446352726999393
11.445925110132158,-0.09135909532836999
11.479295154185023,-0.19317684350796416
11.512665198237887,-0.26664538235116914
11.546035242290749,-0.30136763310237097
11.579405286343613,-0.2957944255604359
11.612775330396476,-0.259440914428552
11.64614537444934,-0.21127125454310958
11.679515418502204,-0.17442459503686153
11.712885462555066,-0.16867192711873702
11.74625550660793,-0.20290213882563157
11.779625550660793,-0.2703157280776875
11.812995594713657,-0.34857510322839735
11.846365638766521,-0.4057751743964133
11.879735682819383,-0.4110021474419635
11.913105726872248,-0.3461485374260755
11.94647577092511,-0.21449592783003618
11.979845814977974,-0.042121890524171236
12.013215859030838,0.12944287630927678
12.0465859030837,0.25741959358629063
12.079955947136565,0.3138119771871278
12.113325991189427,0.2968775262858953
12.146696035242291,0.23294315550075062
12.180066079295155,0.16708483365573829
12.213436123348018,0.14572565868675813
12.246806167400882,0.1977380818944667
12.280176211453744,0.3215822995630666
12.313546255506608,0.483859823683906
12.346916299559473,0.6302224294391388
12.380286343612335,0.7046578543181847
12.413656387665199,0.6697980846198761
12.447026431718061,0.5204565644881749
12.480396475770926,0.28529866505894685
12.51376651982379,0.016308149601670884
12.547136563876652,-0.22942871421564973
12.580506607929516,-0.4082080213480961
12.613876651982379,-0.5013836097503092
12.647246696035243,-0.5165151067026074
12.680616740088107,-0.4790189100646717
12.71398678414097,-0.41920387227619976
12.747356828193833,-0.36077456568854105
12.780726872246696,-0.3151196333262619
12.81409691629956,-0.2822063202248319
12.847466960352424,-0.25569961466971675
12.880837004405286,-0.22862980443725262
12.91420704845815,-0.19685252317405907
12.947577092511013,-0.15965555694990588
12.980947136563877,-0.11863191368779381
13.014317180616741,-0.07636646814174038
13.047687224669604,-0.035677013597029364
13.081057268722468,0.0009436252472076428
13.11442731277533,0.03241202152004366
13.147797356828194,0.060714927961833504
13.181167400881058,0.09203622414351775
13.21453744493392,0.1356716169879983
13.247907488986785,0.19987372339796683
13.281277533039647,0.285813773179221
13.314647577092511,0.3828799647396713
13.348017621145376,0.4689437458570359
13.381387665198238,0.5171657155889067
13.414757709251102,0.507146092109136
13.448127753303964,0.4349600179777525
13.481497797356829,0.3162173991088436
13.514867841409693,0.17957827216125985
13.548237885462555,0.05355546792116386
13.58160792951542,-0.04630290069938651
13.614977973568282,-0.12251317410052814
13.648348017621146,-0.1899790947338039
13.68171806167401,-0.2628997474702947
13.715088105726872,-0.3422928070524659
13.748458149779736,-0.4120997044322913
13.781828193832599,-0.44689080710863466
13.815198237885463,-0.42720426815462065
13.848568281938327,-0.35369058378844814
13.88193832599119,-0.2514468462174221
13.915308370044054,-0.16116436116215385
13.948678414096916,-0.12097934238124756
13.98204845814978,-0.1480747163798988
14.015418502202644,-0.2293127098077627
14.048788546255507,-0.32553942493755966
14.08215859030837,-0.38740632540247655
14.115528634361233,-0.3752392831644034
14.148898678414097,-0.27416125250102613
14.182268722466961,-0.09854888213886938
14.215638766519824,0.1148916038432893
14.249008810572688,0.32132017453692474
14.28237885462555,0.48279841726901596
14.315748898678414,0.5785201286395506
14.349118942731279,0.6075472278118514
14.382488986784141,0.5847272858051966
14.415859030837005,0.5327157538537254
14.449229074889868,0.47355524344412386
14.482599118942732,0.4224319792176389
14.515969162995596,0.3848358390751039
14.549339207048458,0.3570780594137418
14.582709251101322,0.32928906856229095
14.616079295154185,0.28965542245420467
14.649449339207049,0.22866158493232788
14.682819383259913,0.14235025766253462
14.716189427312775,0.03396697302650586
14.74955947136564,-0.08630403775979052
14.782929515418502,-0.2035089264827451
14.816299559471366,-0.30167522493261306
14.84966960352423,-0.3683951919869912
14.883039647577093,-0.39900239323912545
14.916409691629957,-0.39879886492290595
14.94977973568282,-0.3820226102552082
14.983149779735683,-0.36721012355356536
15.016519823788547,-0.370110151017854
15.04988986784141,-0.39671924662378494
15.083259911894274,-0.43953653399761505
15.116629955947138,-0.47924174580314033
15.15,-0.4918194652479418
15.183370044052865,-0.4585649445756764
15.216740088105727,-0.37469121671139455
15.250110132158591,-0.252437641047062
15.283480176211455,-0.1168209054623704
15.316850220264318,0.004434201766751079
15.350220264317182,0.09232250067994462
15.383590308370044,0.14399051563351153
15.416960352422908,0.17258569468703194
15.450330396475772,0.19959822286672815
15.483700440528635,0.24347781557498546
15.517070484581499,0.31010626312444145
15.550440528634361,0.3896584575884418
15.583810572687225,0.46110304851017003
15.61718061674009,0.5018545764021413
15.650550660792952,0.4977945943711257
15.683920704845816,0.44904428615051717
15.717290748898678,0.3691999517600088
15.750660792951543,0.278933066296977
15.784030837004407,0.1973391238131836
15.817400881057269,0.13510659205566367
15.850770925110133,0.09230323443991353
15.884140969162996,0.06110225398147865
15.91751101321586,0.031385619420692915
15.950881057268724,-0.003945212588857408
15.984251101321586,-0.04646536883570097
16.01762114537445,-0.09311429969515174
16.050991189427315,-0.13906285620118522
16.084361233480177,-0.18029197030151212
16.11773127753304,-0.21434245284971365
16.151101321585905,-0.23937310393121447
16.184471365638768,-0.25302304460294534
16.21784140969163,-0.2526189482994479
16.251211453744492,-0.23700437006862737
16.284581497797358,-0.20869261875798983
16.31795154185022,-0.17439885475031527
16.351321585903083,-0.1428577674123888
16.38469162995595,-0.12064977893053047
16.41806167400881,-0.10829188639788266
16.451431718061674,-0.0990176905783952
16.48480176211454,-0.08130800213733287
16.518171806167402,-0.04417297828287772
16.551541850220264,0.01732642736042115
16.584911894273127,0.09895220928388973
16.618281938325993,0.18795382823945875
16.651651982378855,0.26709719649416247
16.685022026431717,0.3202037305503586
16.718392070484583,0.33692330690384503
16.751762114537446,0.3150619747443733
16.785132158590308,0.2599610488194994
16.818502202643174,0.18161310457845709
16.851872246696036,0.09096495911025639
16.8852422907489,-0.0030235482875254098
16.91861233480176,-0.09452591858945342
16.951982378854627,-0.18011492153309816
16.98535242290749,-0.2570081810582599
17.01872246696035,-0.3216064459316828
17.052092511013218,-0.36933716550364765
17.08546255506608,-0.3959360859088687
17.118832599118942,-0.3993778666601668
17.152202643171808,-0.381256962983597
17.18557268722467,-0.346725967637205
17.218942731277533,-0.3028743691996054
17.2523127753304,-0.25619885528396064
