Frequency (Hz),Amplitude
0.0,0.8700294553228347
0.019801980198019802,0.8862116800681227
0.039603960396039604,0.9330160042704151
0.0594059405940594,1.0060114457659435
0.07920792079207921,1.0997427509813187
0.09900990099009901,1.209076789276007
0.1188118811881188,1.3297978794106213
0.13861386138613863,1.4586685688769423
0.15841584158415842,1.593268961048901
0.1782178217821782,1.7317968278457196
0.19801980198019803,1.8728968025380128
0.21782178217821782,2.0155319476414064
0.2376237623762376,2.1588921534073022
0.25742574257425743,2.3023301194934316
0.27722772277227725,2.445316806498882
0.297029702970297,2.5874103129286006
0.31683168316831684,2.728233952102567
0.33663366336633666,2.8674606500845687
0.3564356435643564,3.0048017186285745
0.37623762376237624,3.1399986860598754
0.39603960396039606,3.272817289079866
0.4158415841584158,3.403043009090648
0.43564356435643564,3.5304777250622164
0.45544554455445546,3.6549371825166324
0.4752475247524752,3.7762490653775047
0.495049504950495,3.8942515176323957
0.5148514851485149,4.008792003769973
0.5346534653465347,4.119726426591189
0.5544554455445545,4.226918442119424
0.5742574257425742,4.330238926547568
0.594059405940594,4.429565561223314
0.613861386138614,4.5247825097965295
0.6336633663366337,4.61578016766999
0.6534653465346534,4.702454968392803
0.6732673267326733,4.784709235024974
0.6930693069306931,4.86245106707777
0.7128712871287128,4.935594255606078
0.7326732673267327,5.004058220550806
0.7524752475247525,5.067767965611572
0.7722772277227723,5.126654046855858
0.7920792079207921,5.180652552000174
0.8118811881188118,5.229705087878621
0.8316831683168316,5.273758774077464
0.8514851485148516,5.312766241088197
0.8712871287128713,5.346685631635089
0.891089108910891,5.375480604082567
0.9108910891089109,5.3991203370339775
0.9306930693069307,5.417579534406379
0.9504950495049505,5.430838430413533
0.9702970297029703,5.438882794016038
0.99009900990099,5.441703932510243
1.00990099009901,5.4392986940283485
1.0297029702970297,5.431669468816442
1.0495049504950495,5.418824189246005
1.0693069306930694,5.40077632860295
1.0891089108910892,5.377544898787546
1.108910891089109,5.349154447152279
1.1287128712871286,5.315635052806159
1.1485148514851484,5.27702232282599
1.1683168316831685,5.233357388942628
1.188118811881188,5.184686905417365
1.2079207920792079,5.131063048996783
1.227722772277228,5.072543522040553
1.2475247524752475,5.009191560166298
1.2673267326732673,4.941075946058256
1.2871287128712872,4.8682710314608615
1.3069306930693068,4.7908567698406
1.3267326732673268,4.708918762778685
1.3465346534653466,4.622548323885426
1.3663366336633662,4.531842564951042
1.3861386138613863,4.436904510227434
1.405940594059406,4.337843246252766
1.4257425742574257,4.234774116596791
1.4455445544554455,4.1278189734714505
1.4653465346534653,4.0171065015275165
1.4851485148514851,3.902772633635826
1.504950495049505,3.7849610844397867
1.5247524752475248,3.663824035543562
1.5445544554455446,3.53952301719671
1.5643564356435644,3.412230046447082
1.5841584158415842,3.282129102703262
1.6039603960396038,3.1494180510443552
1.6237623762376237,3.0143111652539005
1.6435643564356437,2.8770424621635304
1.6633663366336633,2.737870145128467
1.683168316831683,2.5970825805048325
1.7029702970297032,2.455006416991853
1.7227722772277227,2.312017734341618
1.7425742574257426,2.1685575215136126
1.7623762376237624,2.0251534026478337
1.782178217821782,1.8824504450012502
1.801980198019802,1.7412552027908772
1.8217821782178218,1.6025989314120066
1.8415841584158414,1.467827931494424
1.8613861386138615,1.3387301053016516
1.881188118811881,1.217703262948996
1.900990099009901,1.1079525749511367
1.920792079207921,1.0136515173240617
1.9405940594059405,0.939890205344225
1.9603960396039604,0.8921053833679151
1.98019801980198,0.8747699451902443
2.0,0.8897407430896276
2.01980198019802,0.9354193599106461
2.0396039603960396,1.0074817189284633
2.0594059405940595,1.1005135706265539
2.0792079207920793,1.2093724985433025
2.099009900990099,1.3298108150000763
2.118811881188119,1.4585550844557231
2.1386138613861387,1.5931536391513021
2.1584158415841586,1.7317787644649996
2.1782178217821784,1.8730554515494753
2.1980198019801978,2.0159318233932924
2.217821782178218,2.159586395032881
2.237623762376238,2.3033631254756814
2.257425742574257,2.4467261656788053
2.2772277227722775,2.58922822011703
2.297029702970297,2.7304882507707227
2.3168316831683167,2.8701756057926677
2.336633663366337,3.0079985973847756
2.3564356435643563,3.1436961904701644
2.376237623762376,3.277031890021847
2.3960396039603964,3.407789199992897
2.4158415841584158,3.535768218372405
2.4356435643564356,3.660783062640689
2.455445544554456,3.7826599086014525
2.4752475247524752,3.901235486835055
2.495049504950495,4.016355923780653
2.514851485148515,4.1278758446211805
2.5346534653465347,4.235657676647848
2.5544554455445545,4.339571107263808
2.5742574257425743,4.439492662045916
2.594059405940594,4.53530537654882
2.6138613861386135,4.6268985416580515
2.633663366336634,4.714167506874931
2.6534653465346536,4.797013529363539
2.673267326732673,4.875343659209981
2.6930693069306932,4.949070653349363
2.712871287128713,5.018112912162987
2.7326732673267324,5.0823944339504425
2.7524752475247527,5.141844783422088
2.7722772277227725,5.196399071099141
2.792079207920792,5.245997941097353
2.811881188118812,5.290587565241369
2.8316831683168315,5.330119641836263
2.8514851485148514,5.364551397731502
2.8712871287128716,5.393845592565297
2.891089108910891,5.417970524287219
2.910891089108911,5.436900035232504
2.9306930693069306,5.450613518171155
2.9504950495049505,5.459095921883992
2.9702970297029703,5.462337755931827
2.99009900990099,5.460335094386749
3.00990099009901,5.453089578389726
3.0297029702970297,5.440608417489502
3.0495049504950495,5.422904389807365
3.0693069306930694,5.399995841163041
3.089108910891089,5.371906683392352
3.108910891089109,5.338666392190411
3.128712871287129,5.300310004927696
3.148514851485148,5.2568781190162035
3.1683168316831685,5.2084168915522735
3.1881188118811883,5.154978041138462
3.2079207920792077,5.096618852996827
3.227722772277228,5.033402188738454
3.2475247524752473,4.9653965024627
3.267326732673267,4.892675865238159
3.2871287128712874,4.815320000487426
3.3069306930693068,4.733414333384409
3.3267326732673266,4.64705005811161
3.346534653465347,4.556324227760592
3.366336633663366,4.461339872853577
3.386138613861386,4.362206155999769
3.4059405940594063,4.259038572188347
3.4257425742574257,4.15195920681432
3.4455445544554455,4.041097066943104
3.4653465346534653,3.9265885058387915
3.485148514851485,3.8085777668183294
3.504950495049505,3.6872176806310235
3.5247524752475248,3.5626705616274297
3.5445544554455446,3.435109363169819
3.564356435643564,3.304719173784968
3.5841584158415842,3.1716991650254234
3.603960396039604,3.0362651436751977
3.6237623762376234,2.8986529204795635
3.6435643564356437,2.7591227935449867
3.6633663366336635,2.6179655699105537
3.683168316831683,2.475510733258758
3.702970297029703,2.3321376392228563
3.722772277227723,2.1882910270495297
3.7425742574257423,2.0445027424486897
3.762376237623762,1.9014224588207271
3.7821782178217824,1.7598614598920268
3.801980198019802,1.6208552474484066
3.8217821782178216,1.4857526268095178
3.841584158415842,1.3563398457310583
3.8613861386138613,1.2350046346737593
3.881188118811881,1.1249270979098192
3.9009900990099013,1.0302332385708517
3.9207920792079207,0.9559420158363611
3.9405940594059405,0.907415225535429
3.96039603960396,0.889097830059979
3.98019801980198,0.9029169349573761
4.0,0.9474299521908504
4.01980198019802,1.018474626112778
4.03960396039604,1.110736842062098
4.0594059405940595,1.2191034224699573
4.079207920792079,1.3393104153679418
4.099009900990099,1.4680491011209291
4.118811881188119,1.602829368461349
4.138613861386139,1.7417887872783835
4.158415841584159,1.88352333659197
4.178217821782178,2.0269576891973906
4.198019801980198,2.17125162772243
4.217821782178218,2.315734150093605
4.237623762376238,2.459857381614229
4.257425742574258,2.6031642614766635
4.2772277227722775,2.745265722990864
4.297029702970297,2.885824423146918
4.316831683168317,3.0245430184449624
4.336633663366336,3.161155625137817
4.356435643564357,3.295421533335213
4.376237623762377,3.4271205339665074
4.3960396039603955,3.5560494127371665
4.415841584158416,3.6820192976679444
4.435643564356436,3.8048536375170725
4.455445544554455,3.9243866511258174
4.475247524752476,4.040462131569674
4.4950495049504955,4.1529325199524685
4.514851485148514,4.261658185762211
4.534653465346535,4.366506866617607
4.554455445544555,4.467353231809825
4.574257425742574,4.564078542544873
4.594059405940594,4.656570388092261
4.613861386138614,4.744722481754553
4.633663366336633,4.828434504122333
4.653465346534653,4.907611983776289
4.673267326732674,4.982166207663602
4.693069306930693,5.052014154969116
4.712871287128713,5.117078449540311
4.732673267326733,5.177287326894321
4.752475247524752,5.232574612599369
4.772277227722772,5.282879709429789
4.792079207920793,5.328147591178989
4.811881188118812,5.368328801406033
4.8316831683168315,5.40337945570904
4.851485148514852,5.433261246379865
4.871287128712871,5.45794144851005
4.891089108910891,5.477392926799336
4.910891089108912,5.491594142472292
4.930693069306931,5.500529159841379
4.9504950495049505,5.5041876521726305
4.97029702970297,5.502564906615804
4.99009900990099,5.495661828059172
5.00990099009901,5.483484941862934
5.02970297029703,5.466046395517241
5.0495049504950495,5.44336395936485
5.069306930693069,5.415461026626668
5.089108910891089,5.382366613074778
5.108910891089109,5.344115356815154
5.128712871287129,5.300747518776132
5.148514851485149,5.252308984652903
5.1683168316831685,5.198851269239976
5.188118811881188,5.140431524300043
5.207920792079208,5.077112551378494
5.227722772277227,5.008962821290818
5.247524752475248,4.9360565024007785
5.267326732673268,4.858473500291439
5.2871287128712865,4.776299512035595
5.306930693069307,4.689626099032452
5.326732673267327,4.598550783340245
5.346534653465346,4.503177173662719
5.366336633663367,4.403615128724971
5.3861386138613865,4.299980967815061
5.405940594059405,4.192397740928156
5.425742574257426,4.080995574443187
5.445544554455446,3.965912112886348
5.465346534653465,3.847293083506643
5.485148514851486,3.725293018694405
5.504950495049505,3.600076182550798
5.524752475247524,3.4718177633703045
5.544554455445545,3.3407054151754587
5.564356435643565,3.206941261305469
5.584158415841584,3.0707445151908863
5.603960396039604,2.93235493348486
5.623762376237624,2.792037403128303
5.643564356435643,2.6500880894630403
5.663366336633663,2.506842756439432
5.683168316831684,2.362688141247404
5.702970297029703,2.218077667145212
5.7227722772277225,2.0735533708319016
5.742574257425743,1.9297767839909643
5.762376237623762,1.7875727245397004
5.782178217821782,1.647991535147736
5.801980198019803,1.5123969733736733
5.821782178217822,1.3825875048598248
5.841584158415841,1.2609545235883381
5.861386138613861,1.1506629335039908
5.881188118811881,1.0557901057509886
5.900990099009901,0.9812615129234167
5.920792079207921,0.9323134256781666
5.9405940594059405,0.9132936467743087
5.96039603960396,0.9261449609605525
5.98019801980198,0.9695741239261516
6.0,1.0396203698272193
6.01980198019802,1.1311235765757444
6.03960396039604,1.2390408277106009
6.0594059405940595,1.3591129246063258
6.079207920792079,1.4880015325625378
6.099009900990099,1.623175124297383
6.118811881188119,1.7627298017963167
6.138613861386139,1.9052247324422007
6.158415841584159,2.049553593912934
6.178217821782178,2.194850659727261
6.198019801980198,2.3404240864445014
6.217821782178218,2.4857089491639788
6.237623762376237,2.630234150314538
6.257425742574258,2.7735989605431
6.2772277227722775,2.915456241166935
6.297029702970296,3.055500324556745
6.316831683168317,3.193458168209757
6.336633663366337,3.329082832200076
6.356435643564356,3.462148622944849
6.376237623762377,3.592447444875698
6.396039603960396,3.719786036992262
6.415841584158415,3.843983864300556
6.435643564356436,3.964871498653572
6.455445544554456,4.082289368694689
6.475247524752475,4.19608679056696
6.495049504950495,4.306121213887693
6.514851485148515,4.412257633964612
6.534653465346534,4.5143681332314145
6.554455445544554,4.612331523703709
6.574257425742575,4.706033068800743
6.594059405940594,4.795364267773721
6.6138613861386135,4.880222689674835
6.633663366336634,4.960511846608154
6.653465346534653,5.03614109815493
6.673267326732673,5.107025580526053
6.693069306930694,5.173086155285153
6.712871287128713,5.234249373496534
6.732673267326732,5.290447451949451
6.752475247524753,5.341618258742876
6.772277227722772,5.38770530602158
6.792079207920792,5.428657748062664
6.811881188118813,5.464430383243478
6.8316831683168315,5.494983658694007
6.851485148514851,5.520283676662756
6.871287128712871,5.5403022018141
6.891089108910891,5.555016668836005
6.910891089108911,5.564410189876589
6.930693069306931,5.568471561450204
6.9504950495049505,5.567195270565136
6.97029702970297,5.560581499927363
6.99009900990099,5.548636132172988
7.00990099009901,5.531370753178781
7.02970297029703,5.508802654598232
7.0495049504950495,5.480954835873869
7.069306930693069,5.447856006087913
7.089108910891089,5.409540586136901
7.108910891089109,5.366048711855868
7.128712871287128,5.317426238880129
7.148514851485149,5.263724750222702
7.1683168316831685,5.205001567772571
7.188118811881187,5.141319769192581
7.207920792079208,5.0727482120289595
7.227722772277228,4.999361567253389
7.247524752475247,4.921240364965988
7.267326732673268,4.838471055619504
7.287128712871287,4.751146090920208
7.306930693069306,4.65936402956712
7.326732673267327,4.563229674272826
7.346534653465347,4.462854248154844
7.366336633663366,4.358355620712727
7.3861386138613865,4.249858596374223
7.405940594059406,4.137495282224876
7.425742574257425,4.021405556334833
7.445544554455446,3.901737664491355
7.465346534653466,3.7786489817380486
7.485148514851485,3.6523069867658577
7.504950495049505,3.522890513122819
7.524752475247524,3.390591363181678
7.544554455445544,3.2556164014113502
7.564356435643565,3.1181902865440168
7.584158415841584,2.9785590633466095
7.603960396039604,2.8369949222915554
7.623762376237624,2.6938025620312582
7.643564356435643,2.5493277739745506
7.663366336633663,2.403969138239813
7.683168316831684,2.2581941161433763
7.702970297029703,2.112561401915835
7.7227722772277225,1.9677522244390682
7.742574257425743,1.8246144292571842
7.762376237623762,1.6842245957228514
7.782178217821782,1.5479748053653613
7.801980198019803,1.4176906846917163
7.821782178217822,1.2957823367306447
7.841584158415841,1.1854111343674127
7.861386138613862,1.0906075984287988
7.881188118811881,1.0161863702330496
7.900990099009901,0.9672144425733813
7.92079207920792,0.9478776891949039
7.9405940594059405,0.9600745760694972
7.96039603960396,1.0026379672223222
7.980198019801979,1.0718299893617529
8.0,1.1626885861651646
8.01980198019802,1.270281633332121
8.03960396039604,1.3903799574786382
8.05940594059406,1.5196263678091075
8.07920792079208,1.6554491513304612
8.099009900990099,1.795899173562688
8.118811881188119,1.939492950491156
8.138613861386139,2.0850868471760657
8.158415841584159,2.2317835916817597
8.178217821782178,2.3788650467408474
8.198019801980198,2.5257444437528305
8.217821782178218,2.671932485483451
8.237623762376238,2.81701317901985
8.257425742574258,2.960626472644379
8.277227722772277,3.102455665905958
8.297029702970297,3.24221819141068
8.316831683168317,3.37965879947643
8.336633663366337,3.51454447202881
8.356435643564357,3.646660593631674
8.376237623762377,3.775808045722951
8.396039603960396,3.9018009855406954
8.415841584158416,4.024465137669009
8.435643564356436,4.143636472828888
8.455445544554456,4.259160181669201
8.475247524752476,4.370889875043069
8.495049504950495,4.478686959413684
8.514851485148515,4.582420148556296
8.534653465346535,4.68196508194405
8.554455445544555,4.777204027054982
8.574257425742575,4.868025647968183
8.594059405940595,4.9543248264918
8.613861386138613,5.036002525013964
8.633663366336634,5.112965682529297
8.653465346534654,5.185127137040287
8.673267326732672,5.252405568891855
8.693069306930694,5.314725460662416
8.712871287128714,5.372017070074874
8.732673267326732,5.424216413058815
8.752475247524753,5.47126525462946
8.772277227722773,5.513111105680157
8.792079207920791,5.549707224135676
8.811881188118813,5.581012619201205
8.831683168316832,5.606992057680501
8.85148514851485,5.627616071536854
8.871287128712872,5.642860966040594
8.891089108910892,5.652708827994489
8.91089108910891,5.657147533658186
8.930693069306932,5.656170756110537
8.950495049504951,5.64977797189743
8.97029702970297,5.637974466917103
8.990099009900991,5.620771341597198
9.00990099009901,5.59818551552274
9.029702970297029,5.570239731783637
9.04950495049505,5.536962561428863
9.06930693069307,5.498388408546466
9.089108910891088,5.454557516637208
9.10891089108911,5.405515977122788
9.12871287128713,5.351315741032426
9.148514851485148,5.292014635153175
9.16831683168317,5.227676384220815
9.188118811881187,5.158370641082945
9.207920792079207,5.084173027201209
9.227722772277229,5.005165186398666
9.247524752475247,4.921434855430516
9.267326732673267,4.833075955800406
9.287128712871288,4.740188712311902
9.306930693069306,4.642879805203344
9.326732673267326,4.541262564456466
9.346534653465348,4.435457217117197
9.366336633663366,4.325591201390868
9.386138613861386,4.211799565101729
9.405940594059407,4.094225471159469
9.425742574257425,3.9730208393940196
9.445544554455445,3.8483471631289277
9.465346534653467,3.7203765510441027
9.485148514851485,3.5892930614893443
9.504950495049505,3.4552944192638684
9.524752475247526,3.318594236602188
9.544554455445544,3.1794249045484437
9.564356435643564,3.038041383707178
9.584158415841586,2.8947262128772797
9.603960396039604,2.7497961826412993
9.623762376237623,2.603611306761078
9.643564356435645,2.456586993616211
9.663366336633663,2.3092107101283674
9.683168316831683,2.1620649907723477
9.702970297029704,2.015859429668641
9.722772277227723,1.8714753380324682
9.742574257425742,1.7300279750004686
9.762376237623764,1.5929522315302898
9.782178217821782,1.4621169602806972
9.801980198019802,1.3399671147674383
9.821782178217823,1.22967341743323
9.841584158415841,1.1352232776393392
9.861386138613861,1.0613071706218247
9.881188118811881,1.0127860084078302
9.900990099009901,0.9936259777675014
9.92079207920792,1.0056203277424214
9.94059405940594,1.047691088321684
9.96039603960396,1.11632512194408
9.98019801980198,1.206788542816041
10.0,1.3142962002106597
10.01980198019802,1.434676393112249
10.03960396039604,1.564568333021785
10.05940594059406,1.7013657269287936
10.07920792079208,1.843073841261884
10.099009900990099,1.9881630858665098
10.118811881188119,2.135447766733974
10.138613861386139,2.2839940205264817
10.158415841584159,2.433052561667987
10.178217821782178,2.582010324614123
10.198019801980198,2.7303558233449934
10.217821782178218,2.8776542679878
10.237623762376238,3.0235295768473254
10.257425742574258,3.1676512666891274
10.277227722772277,3.309724812540195
10.297029702970297,3.449484493997217
10.316831683168317,3.586688039407652
10.336633663366337,3.7211125822956035
10.356435643564357,3.8525515847572893
10.376237623762377,3.9808124801272915
10.396039603960396,4.1057148555514
10.415841584158416,4.227089043357033
10.435643564356436,4.34477502448813
10.455445544554454,4.458621571981406
10.475247524752476,4.568485580383583
10.495049504950495,4.674231540123368
10.514851485148514,4.7757311255330555
10.534653465346535,4.872862872419674
10.554455445544555,4.965511926493807
10.574257425742573,5.053569848054302
10.594059405940595,5.1369344614451204
10.613861386138614,5.215509740194517
10.633663366336632,5.289205720598609
10.653465346534654,5.357938437953537
10.673267326732674,5.421629880771723
10.693069306930692,5.48020795921119
10.712871287128714,5.53360648465746
10.732673267326733,5.581765157966541
10.752475247524751,5.624629564337598
10.772277227722773,5.662151173156897
10.792079207920793,5.6942873414624575
10.81188118811881,5.721001319933118
10.831683168316832,5.742262260519853
