Frequency (Hz),Amplitude
0.0,8.788840124535849
0.04,8.785452233427055
0.08,8.77529406203832
0.12,8.758382127508133
0.16,8.734743996361058
0.19999999999999998,8.704418342181658
0.24,8.667455027837214
0.27999999999999997,8.623915213757432
0.32,8.57387149425237
0.36,8.517408064354704
0.39999999999999997,8.454620920216547
0.44,8.385618096682792
0.48,8.310519946309066
0.52,8.229459464800945
0.5599999999999999,8.142582668628629
0.6,8.050049031423182
0.64,7.952031986690033
0.6799999999999999,7.848719505382294
0.72,7.740314757954123
0.76,7.62703687164838
0.7999999999999999,7.509121794935224
0.84,7.386823282162949
0.88,7.260414012536604
0.9199999999999999,7.130186858393504
0.96,6.996456318235478
1.0,6.859560129872117
1.04,6.719861077997509
1.0799999999999998,6.577749008106188
1.1199999999999999,6.433643054227203
1.1600000000000001,6.287994080679721
1.2,6.141287326830737
1.24,5.994045227261987
1.28,5.846830356097234
1.3199999999999998,5.700248411464249
1.3599999999999999,5.554951111934322
1.4,5.411638819132775
1.44,5.2710626279668515
1.48,5.134025577945522
1.52,5.001382538529761
1.5599999999999998,4.874038215648636
1.5999999999999999,4.752942629614327
1.64,4.639083349872109
1.68,4.533473772655016
1.72,4.437136835474829
1.76,4.351083821209213
1.7999999999999998,4.276288346801058
1.8399999999999999,4.213656258724487
1.88,4.1639929179358175
1.92,4.127970132410214
1.9599999999999997,4.10609560675295
2.0,4.09868802525869
2.0399999999999996,4.105860612115621
2.08,4.127515183547546
2.12,4.16334744508195
2.1599999999999997,4.212862856621072
2.2,4.275401110060346
2.2399999999999998,4.35016640805587
2.28,4.436260430039156
2.3200000000000003,4.532715093783635
2.36,4.638522817234916
2.4,4.7526627560919215
2.44,4.874122256737344
2.48,5.001913399511917
2.5199999999999996,5.135084959313163
2.56,5.2727303782694515
2.6,5.413992460106132
2.6399999999999997,5.558065501245016
2.68,5.704195511706158
2.7199999999999998,5.851679083305014
2.76,5.999861357150374
2.8,6.1481334416273805
2.84,6.29592954349212
2.88,6.442724001267566
2.92,6.588028351804439
2.96,6.731388516134346
2.9999999999999996,6.8723821574561414
3.04,7.010616240028763
3.08,7.145724800846741
3.1199999999999997,7.277366934504243
3.16,7.405224984191764
3.1999999999999997,7.529002927205281
3.2399999999999998,7.64842494083099
3.28,7.763234133365487
3.32,7.8731914248752455
3.36,7.978074562755368
3.4,8.077677257977738
3.44,8.171808428957844
3.4799999999999995,8.260291541104577
3.52,8.342964031274708
3.5599999999999996,8.419676807484892
3.5999999999999996,8.490293815311405
3.64,8.554691663415154
3.6799999999999997,8.612759301560581
3.7199999999999998,8.664397745351037
3.76,8.709519842682907
3.7999999999999994,8.748050077631726
3.84,8.779924408132194
3.88,8.805090134408006
3.9199999999999995,8.823505795654016
3.96,8.835141092980558
4.0,8.839976837104736
4.04,8.8380049197241
4.079999999999999,8.829228307941236
4.12,8.813661061530167
4.16,8.791328373254737
4.199999999999999,8.762266632871464
4.24,8.726523515882104
4.28,8.684158098551181
4.319999999999999,8.635241001177954
4.36,8.579854562118724
4.4,8.518093045600306
4.4399999999999995,8.450062886957745
4.4799999999999995,8.375882979575437
4.5200000000000005,8.295685008518545
4.56,8.209613836617198
4.6,8.117827949614552
4.640000000000001,8.02049996791431
4.68,7.917817233462706
4.72,7.809982481367068
4.76,7.697214606972893
4.8,7.579749540264714
4.84,7.457841240575587
4.88,7.331762825612373
4.92,7.2018078496168
4.96,7.068291745922703
5.0,6.93155344900316
5.039999999999999,6.791957209996863
5.08,6.64989461720366
5.12,6.505786828521809
5.159999999999999,6.360087015432401
5.2,6.213283006832139
5.24,6.065900104390232
5.279999999999999,5.91850401745643
5.319999999999999,5.77170383288049
5.36,5.6261548912440675
5.3999999999999995,5.482561383867916
5.4399999999999995,5.3416784130471235
5.48,5.204313171241503
5.52,5.07132479611553
5.56,4.943622354637389
5.6,4.822160314867064
5.64,4.707930801319243
5.68,4.601951931384914
5.72,4.505251636873645
5.76,4.4188466287113926
5.8,4.343716595629076
5.84,4.280774340767533
5.879999999999999,4.230833303939484
5.92,4.1945746774674095
5.96,4.172516927302383
5.999999999999999,4.164990783915082
6.04,4.172122516929657
6.08,4.19382751399559
6.119999999999999,4.229814962477546
6.16,4.279603033890892
6.2,4.342542706987421
6.239999999999999,4.417847501506207
6.279999999999999,4.504626066646149
6.32,4.60191475654535
6.359999999999999,4.708707889043795
6.3999999999999995,4.823984131163553
6.44,4.946728206840392
6.4799999999999995,5.075947756372285
6.52,5.210685634897623
6.56,5.350028214512
6.6,5.493110379708906
6.64,5.639117920268332
6.68,5.787287970706965
6.72,5.936908054611663
6.76,6.087314189578978
6.8,6.237888409098227
6.84,6.3880559695891
6.88,6.53728243717259
6.92,6.685070789889066
6.959999999999999,6.83095862565424
7.0,6.97451553224541
7.04,7.115340650874899
7.08,7.253060447422524
7.119999999999999,7.387326693430496
7.16,7.517814651093886
7.199999999999999,7.644221451587704
7.239999999999999,7.766264653296995
7.28,7.883680965213064
7.32,7.99622512045055
7.359999999999999,8.103668885180968
7.3999999999999995,8.205800189023291
7.4399999999999995,8.30242236390858
7.4799999999999995,8.393353479526136
7.52,8.478425764584172
7.5600000000000005,8.557485104228087
7.599999999999999,8.630390605022553
7.64,8.69701421990289
7.68,8.757240426427986
7.719999999999999,8.810965952519714
7.76,8.858099544654532
7.800000000000001,8.89856177418635
7.839999999999999,8.932284878132071
7.88,8.959212631349523
7.92,8.979300247589066
7.959999999999999,8.992514307412725
8.0,8.998832711455393
8.040000000000001,8.998244657958832
8.08,8.99075064394836
8.12,8.976362489850551
8.159999999999998,8.95510338777561
8.2,8.927007974116554
8.24,8.892122427556401
8.28,8.850504594030586
8.32,8.802224140672136
8.36,8.747362741279288
8.399999999999999,8.686014296395307
8.44,8.61828519168729
8.48,8.544294598960029
8.52,8.464174824850641
8.56,8.378071713024982
8.6,8.28614510654148
8.639999999999999,8.188569377964951
8.68,8.085534035797938
8.72,7.977244416842736
8.76,7.863922475194345
8.8,7.745807679661602
8.84,7.623158032469261
8.879999999999999,7.4962512230285325
8.92,7.3653859312600645
8.959999999999999,7.230883295240843
9.0,7.093088557582265
9.040000000000001,6.952372903591328
9.079999999999998,6.809135501454505
9.12,6.663805749784469
9.16,6.5168457300490825
9.2,6.3687528495778185
9.24,6.220062643648561
9.280000000000001,6.0713516809382915
9.32,5.92324048345549
9.36,5.776396327910922
9.399999999999999,5.631535738426034
9.44,5.4894264092900364
9.48,5.350888211441165
9.52,5.216792840537481
9.559999999999999,5.08806156547568
9.6,4.9656604481029705
9.639999999999999,4.850592350088246
9.68,4.743885052984334
9.72,4.646574931093649
9.76,4.559685873282157
9.8,4.484203577242774
9.84,4.421045936350908
9.879999999999999,4.371030954985802
9.92,4.334844352310549
9.959999999999999,4.313009583043987
10.0,4.30586323445094
10.04,4.313538510774238
10.079999999999998,4.335958754713596
10.12,4.372841788805618
10.16,4.4237145234571305
10.2,4.487936064721876
10.24,4.564726714407324
10.280000000000001,4.6531999194353775
10.319999999999999,4.7523943836585625
10.36,4.861304076302392
10.4,4.978904577542056
10.44,5.104174924063572
10.48,5.236114735776414
10.52,5.3737568596940415
10.559999999999999,5.5161760500154395
10.6,5.662494338697336
10.639999999999999,5.811883776474234
10.68,5.963567179393559
10.72,6.1168174331371485
10.76,6.270955810463259
10.799999999999999,6.4253496612981404
10.84,6.579409748821699
10.879999999999999,6.732587432031942
10.92,6.884371836418159
10.96,7.034287108513165
11.0,7.181889815437119
11.04,7.3267665250761524
11.08,7.468531584334477
11.12,7.606825100274449
11.16,7.741311120518415
11.2,7.871676003913921
11.24,7.997626969295127
11.28,8.118890808553289
11.319999999999999,8.235212749669579
11.36,8.346355455509135
11.4,8.452098144769572
11.44,8.552235822339492
11.48,8.646578607327594
11.52,8.734951148085743
11.559999999999999,8.817192114614164
11.6,8.893153759768424
11.64,8.962701541665838
11.68,9.025713800602286
11.72,9.082081484635957
11.759999999999998,9.131707918772157
11.799999999999999,9.174508613397514
11.84,9.210411108267392
11.879999999999999,9.239354848953573
11.92,9.261291093217634
11.96,9.276182845295626
11.999999999999998,9.284004816569027
12.04,9.284743411562642
12.08,9.278396738659117
12.12,9.26497464535891
12.16,9.244498778350875
12.200000000000001,9.21700266909852
12.239999999999998,9.182531846097843
12.28,9.141143975430706
12.32,9.092909031730063
12.36,9.037909502197326
12.4,8.976240626873816
12.44,8.908010678975401
12.479999999999999,8.833341289757811
12.52,8.752367823095806
12.559999999999999,8.665239805736968
12.6,8.572121420032882
12.64,8.47319206685591
12.68,8.368647007373738
12.719999999999999,8.258698093362735
12.76,8.143574596772403
12.799999999999999,8.023524150267557
12.84,7.898813811413143
12.88,7.769731263938577
12.92,7.636586169993997
12.959999999999999,7.499711687302784
12.999999999999998,7.359466164362316
13.04,7.216235024986877
13.08,7.070432850034978
13.12,6.922505658465461
13.16,6.772933381071063
13.2,6.622232507257176
13.239999999999998,6.470958866718696
13.28,6.319710482215085
13.32,6.169130395049838
13.36,6.019909319481087
13.4,5.872787924553479
13.44,5.728558470995862
13.479999999999999,5.5880654478117355
13.52,5.452204761868798
13.559999999999999,5.321920942584545
13.6,5.198201747440609
13.64,5.08206951504167
13.68,4.974568641202288
13.719999999999999,4.876748685972279
13.76,4.789642890153671
13.799999999999999,4.714242309948623
13.84,4.651466359452484
13.88,4.602131228228532
13.919999999999998,4.566918306276621
13.959999999999999,4.546345247963591
14.0,4.5407424763975435
14.04,4.550237650965238
14.08,4.574749873664339
14.120000000000001,4.613994303580916
14.16,4.667496602720059
14.2,4.734615514586706
14.239999999999998,4.814571103060042
14.28,4.906475869203746
14.32,5.009366104979304
14.36,5.12223132092603
14.399999999999999,5.24404023816185
14.44,5.373762509501564
14.479999999999999,5.510385918940926
14.52,5.6529292459626985
14.56,5.800451260254492
14.6,5.952056453049329
14.64,6.106898147035807
14.68,6.264179593166024
14.719999999999999,6.423153590186038
14.76,6.583121074054055
14.799999999999999,6.743429034622971
14.84,6.903468034742871
14.879999999999999,7.062669536393498
14.919999999999998,7.220503180706402
14.959999999999999,7.37647412316219
15.0,7.530120490368106
15.04,7.681010998848748
15.079999999999998,7.828742757450288
15.120000000000001,7.972939261680942
15.159999999999998,8.113248579249005
15.199999999999998,8.249341720130259
15.24,8.380911180846063
15.28,8.507669650608245
15.319999999999999,8.62934886609425
15.36,8.745698601492421
15.399999999999999,8.856485780836989
15.439999999999998,8.961493700346773
15.48,9.060521349356181
15.52,9.153382819390472
15.559999999999999,9.239906791927428
15.600000000000001,9.319936096364188
15.639999999999999,9.393327330646509
15.679999999999998,9.45995053790414
15.72,9.519688933263916
15.76,9.572438675780004
15.799999999999999,9.618108681130725
15.84,9.656620471387491
15.879999999999999,9.687908058768878
15.919999999999998,9.711917860858366
15.96,9.728608645293988
16.0,9.73795150243909
16.04,9.739929845022232
16.080000000000002,9.734539434198243
16.12,9.721788431937307
16.16,9.701697480102835
16.200000000000003,9.674299807037087
16.24,9.639641362943498
16.279999999999998,9.597780985842874
16.319999999999997,9.54879060039366
16.36,9.492755452410812
16.4,9.42977438250005
16.439999999999998,9.359960142850225
16.48,9.28343976190164
16.52,9.200354962336785
16.56,9.110862638624173
16.6,9.015135401186077
16.64,8.91336219515152
16.68,8.805749002587277
16.72,8.692519638051209
16.759999999999998,8.573916648252673
16.799999999999997,8.450202327483375
16.84,8.321659861224688
16.88,8.188594610835885
16.919999999999998,8.051335552327602
16.96,7.910236881711924
17.0,7.765679797999099
17.04,7.618074472181638
17.080000000000002,7.467862205978095
17.12,7.315517777006514
17.16,7.161551956532224
17.2,7.006514170879513
17.24,6.850995256678543
17.279999999999998,6.695630231809695
17.32,6.541100966580227
17.36,6.388138591802206
17.4,6.237525420994628
17.44,6.090096092948923
17.48,5.946737560402778
17.52,5.8083874657929995
17.56,5.676030365896798
17.6,5.5506912096124825
17.64,5.433425460100694
17.68,5.325305313180203
17.72,5.227401630203305
17.759999999999998,5.140761502941381
17.799999999999997,5.06638181123919
17.84,5.005179701549458
17.88,4.957961542993448
17.919999999999998,4.925392498260446
17.96,4.907969238529363
18.0,4.9059983963732625
18.04,4.919583000626471
18.080000000000002,4.948618379013333
18.12,4.992797965499563
18.159999999999997,5.051628314069614
18.2,5.124451629675858
18.24,5.210473466049346
18.279999999999998,5.308792997370833
18.32,5.418433425238875
18.36,5.538370528978707
18.4,5.667557964134499
18.44,5.804948527281979
18.48,5.949511138589926
18.52,6.100243696446352
18.560000000000002,6.256182220431089
18.6,6.416406835981145
18.64,6.580045195052553
18.679999999999996,6.746273903034058
18.72,6.914318460328876
18.759999999999998,7.083452148141526
18.799999999999997,7.2529942061791175
18.84,7.422307573665663
18.88,7.5907963985501885
18.919999999999998,7.75790346452978
18.96,7.92310764127147
19.0,8.085921428867376
19.04,8.245888641592172
19.080000000000002,8.402582256894956
19.119999999999997,8.555602441813294
19.159999999999997,8.704574759407688
19.2,8.849148551356874
19.24,8.988995488712185
19.279999999999998,9.123808280346266
19.32,9.253299527361724
19.36,9.377200711284457
19.4,9.495261303985142
19.44,9.607247987754947
19.48,9.712943974667251
19.52,9.812148415188197
19.560000000000002,9.904675886886636
19.6,9.99035595499321
19.639999999999997,10.069032797439938
19.68,10.140564887857495
19.72,10.204824730808314
19.759999999999998,10.261698644285332
19.8,10.311086585209056
19.84,10.352902014311598
19.88,10.387071797410256
19.919999999999998,10.41353614064973
19.96,10.432248557837791
20.0,10.443175868519468
20.04,10.446298225937277
20.08,10.441609174514921
20.119999999999997,10.4291157369869
20.159999999999997,10.408838531782344
20.2,10.380811921765062
20.24,10.345084195939675
20.279999999999998,10.301717786261774
20.32,10.250789522245107
20.36,10.192390926646002
20.4,10.126628556130582
20.44,10.053624391497614
20.48,9.973516282743024
20.52,9.886458455011574
20.560000000000002,9.792622082285767
20.599999999999998,9.692195936505147
20.639999999999997,9.58538712067841
20.68,9.47242189542519
20.72,9.353546609229644
20.759999999999998,9.229028743454183
20.8,9.099158083773943
20.84,8.964248030045885
20.88,8.824637056572234
20.92,8.680690334053876
20.96,8.532801522978056
21.0,8.381394745379529
21.04,8.226926737369228
21.08,8.069889177915432
21.119999999999997,7.91081117929712
21.159999999999997,7.7502619104543715
21.2,7.588853304975679
21.24,7.427242779372469
21.279999999999998,7.266135853210797
21.32,7.106288519317344
21.36,6.948509158780959
21.4,6.793659731863717
21.44,6.642655903875437
21.48,6.496465688807404
21.52,6.356106121083306
21.56,6.222637410116249
21.599999999999998,6.097154012102046
21.639999999999997,5.980772092642314
21.68,5.874612979429519
21.72,5.7797824411521725
21.759999999999998,5.697345990880801
21.8,5.628300891174325
21.84,5.573546092589488
21.88,5.533851887235154
21.92,5.50983149226265
21.96,5.501916972193062
22.0,5.510341766513755
22.04,5.535131576716911
22.08,5.576104540535797
22.119999999999997,5.632880621649987
22.16,5.704899161485493
22.2,5.791442760922755
22.24,5.891665209705895
22.28,6.004621097761806
22.32,6.1292949780163655
22.36,6.264628401028699
22.4,6.409543686873402
22.44,6.562963833734288
22.48,6.7238284141129085
22.519999999999996,6.891105644240042
22.56,7.063801026592161
22.599999999999998,7.240963075251522
22.639999999999997,7.421686663996301
22.68,7.605114513327529
22.72,7.790437277526712
22.759999999999998,7.976892623377767
22.8,8.163763620075215
22.84,8.350376692213725
22.88,8.536099328321598
22.92,8.720337687535615
22.96,8.902534206644555
23.0,9.082165277988606
23.04,9.258739044376984
23.08,9.431793338980619
23.119999999999997,9.600893784852415
23.16,9.765632059251361
23.2,9.925624321400607
23.24,10.080509797963987
23.28,10.22994951780287
23.32,10.37362518602896
23.36,10.51123818665757
23.400000000000002,10.642508703034197
23.44,10.76717494546576
23.479999999999997,10.884992475998713
23.519999999999996,10.995733620950302
23.56,11.099186962546773
23.599999999999998,11.195156901805108
23.639999999999997,11.28346328558076
23.68,11.3639410914723
23.72,11.436440165012462
23.759999999999998,11.500825004277575
23.8,11.55697458771173
23.84,11.604782241588964
23.88,11.644155544128676
23.92,11.675016263841545
23.96,11.697300330219083
23.999999999999996,11.710957835396464
24.04,11.715953065920976
24.08,11.71226456425353
24.119999999999997,11.699885220125672
24.16,11.67882239237527
24.2,11.649098062398584
24.24,11.610749020891824
24.28,11.56382709011918
24.32,11.508399384544969
24.36,11.444548613313057
24.400000000000002,11.372373428755512
24.439999999999998,11.29198882587337
24.479999999999997,11.203526598562902
24.52,11.107135859269778
24.56,11.002983629745772
24.599999999999998,10.891255511664031
24.64,10.77215644701805
24.68,10.645911579482837
24.72,10.512767229239515
24.759999999999998,10.372991995130887
24.8,10.226877999381356
24.84,10.074742291409644
24.88,9.916928428381762
24.92,9.753808250938844
24.959999999999997,9.58578387276679
24.999999999999996,9.413289902037585
25.04,9.236795910809215
25.08,9.056809164628628
25.119999999999997,8.873877618043378
25.16,8.688593171445296
25.2,8.501595169298938
25.24,8.313574097665803
25.28,8.125275407998327
25.32,7.937503352131608
25.36,7.751124657812629
25.4,7.56707180277497
25.439999999999998,7.386345556957223
25.479999999999997,7.210016357531197
25.52,7.039223963902238
25.56,6.875174719112469
25.599999999999998,6.719135637155981
25.64,6.572424469391549
25.68,6.436394914788211
25.72,6.312416273637471
25.76,6.201847148941075
25.8,6.106003307117174
25.84,6.0261205198159775
25.880000000000003,5.963314066126964
25.919999999999998,5.918537454602012
25.959999999999997,5.892543639830698
25.999999999999996,5.885852345599336
26.04,5.89872689265196
26.08,5.931163104204912
26.119999999999997,5.982891528721139
26.16,6.053392631661656
26.2,6.141923100975293
26.24,6.24755029254553
26.28,6.369191296841918
26.32,6.505653157610632
26.36,6.6556712963839235
26.4,6.817943994196364
26.439999999999998,6.991161650364608
26.479999999999997,7.174030320545864
26.52,7.365289643319218
26.56,7.563725669725886
26.599999999999998,7.768179330897243
26.64,7.977551354970394
26.68,8.19080442141255
26.72,8.406963259344055
26.76,8.625113287827052
26.8,8.84439828177633
26.84,9.06401744003619
26.88,9.283222138777491
26.919999999999998,9.501312575966073
26.959999999999997,9.717634450937894
27.0,9.931575775444859
27.04,10.142563876723823
27.08,10.35006262693735
27.119999999999997,10.55356991467199
27.16,10.752615361286475
27.2,10.946758276326356
27.24,11.135585840812256
27.28,11.318711504075845
27.32,11.495773578286897
27.36,11.666434014384414
27.4,11.830377343428
27.439999999999998,11.98730976815706
27.479999999999997,12.136958390598027
27.52,12.279070562762563
27.56,12.413413348744108
27.599999999999998,12.539773087787633
27.64,12.657955049140638
27.68,12.767783170670915
27.72,12.869099874346272
27.76,12.961765952709696
27.8,13.045660521449694
27.839999999999996,13.120681034063757
27.88,13.186743355447286
27.919999999999998,13.243781892016408
27.959999999999997,13.291749776696562
28.0,13.330619107784496
28.04,13.36038124132324
28.08,13.381047137221048
28.12,13.392647759896933
28.16,13.395234534746841
28.2,13.38887986219199
28.240000000000002,13.373677691488508
28.28,13.349744156834628
28.32,13.317218278593664
28.359999999999996,13.276262732637935
28.4,13.227064690882408
28.439999999999998,13.169836735982743
28.479999999999997,13.104817852873863
28.52,13.032274499265274
28.56,12.952501756315396
28.599999999999998,12.865824559391426
28.64,12.772599006975062
28.68,12.67321374327067
28.72,12.56809140675874
28.76,12.457690132641316
