Time (s),Filtered Signal
0.0,0.007868756243735916
0.0334075723830735,-0.3086780319651575
0.066815144766147,-0.5990833007044233
0.1002227171492205,-0.8407418620813142
0.133630289532294,-1.0173532704712513
0.1670378619153675,-1.1197445992063382
0.200445434298441,-1.1459283785471028
0.23385300668151449,-1.1012344560210465
0.267260579064588,-0.9982570891068234
0.3006681514476615,-0.8554422185726931
0.334075723830735,-0.6935133924069876
0.3674832962138085,-0.5304727149934599
0.400890868596882,-0.37735363987867443
0.4342984409799555,-0.23698193225790098
0.46770601336302897,-0.1065261177453612
0.5011135857461025,0.017441731460496643
0.534521158129176,0.13399559632788363
0.5679287305122495,0.23555354552779156
0.601336302895323,0.3094662361019687
0.6347438752783965,0.34299296906905413
0.66815144766147,0.32971338206110157
0.7015590200445435,0.2746917434189966
0.734966592427617,0.19586063139005475
0.7683741648106905,0.12018219626085494
0.801781737193764,0.07508232401985954
0.8351893095768375,0.0779356839820556
0.868596881959911,0.12800744610468773
0.9020044543429845,0.20510340270198354
0.9354120267260579,0.2767465169313078
0.9688195991091315,0.31173309380236713
1.002227171492205,0.29432741807287516
1.0356347438752784,0.2322456859782767
1.069042316258352,0.15399144359527325
1.1024498886414256,0.09615862945896626
1.135857461024499,0.08648978005292939
1.1692650334075725,0.1309125565411131
1.202672605790646,0.21095379668814893
1.2360801781737194,0.29265472794741393
1.269487750556793,0.34220176788995504
1.3028953229398665,0.34021616858493675
1.33630289532294,0.2878089890888289
1.3697104677060135,0.20232006050757512
1.403118040089087,0.10623949004020931
1.4365256124721606,0.015983818155474706
1.469933184855234,-0.06358791440998615
1.5033407572383075,-0.13693862850487754
1.536748329621381,-0.21044048706911506
1.5701559020044544,-0.284904543327906
1.603563474387528,-0.35260712132610944
1.6369710467706016,-0.4003151704640297
1.670378619153675,-0.41621764466552796
1.7037861915367485,-0.39656862544537275
1.737193763919822,-0.34824711741547004
1.7706013363028954,-0.2858772721132402
1.804008908685969,-0.22512937567601915
1.8374164810690425,-0.17573207118498202
1.8708240534521159,-0.13770927941463545
1.9042316258351895,-0.10260959129182005
1.937639198218263,-0.05901505737029197
1.9710467706013366,0.0003949954302241175
2.00445434298441,0.07363634127070808
2.0378619153674835,0.1486371543943786
2.071269487750557,0.20750000747671773
2.1046770601336307,0.23417781346981018
2.138084632516704,0.2222684040865348
2.1714922048997773,0.17926850943339775
2.204899777282851,0.12486717032833292
2.2383073496659245,0.08337010746314501
2.271714922048998,0.07313214314800538
2.3051224944320716,0.0976132504075777
2.338530066815145,0.142369769356141
2.3719376391982183,0.1798706448205004
2.405345211581292,0.18049961482548607
2.4387527839643655,0.12515333476585644
2.472160356347439,0.013991318389536236
2.5055679287305126,-0.1323727649387749
2.538975501113586,-0.2795130110339563
2.5723830734966593,-0.39059309327190506
2.605790645879733,-0.43784477256592125
2.6391982182628064,-0.4101444198642134
2.67260579064588,-0.3149979111234757
2.7060133630289536,-0.17563621015493008
2.739420935412027,-0.025142984158931597
2.7728285077951007,0.10070703861650145
2.806236080178174,0.17111726821487705
2.8396436525612474,0.16800015450971686
2.873051224944321,0.09252135250255468
2.9064587973273945,-0.03206730606852674
2.939866369710468,-0.16408240963368512
2.9732739420935417,-0.254459218948007
3.006681514476615,-0.26255496579183757
3.0400890868596884,-0.17083496837449594
3.073496659242762,0.008033067940065346
3.1069042316258355,0.23523605579106732
3.140311804008909,0.4594703019484656
3.1737193763919826,0.634145283169373
3.207126948775056,0.7307556476779181
3.2405345211581293,0.7435415223823291
3.273942093541203,0.6852805932749542
3.3073496659242765,0.5781644656876224
3.34075723830735,0.44497437533615114
3.3741648106904236,0.3039483754022735
3.407572383073497,0.16756532188227694
3.4409799554565703,0.04329158936200599
3.474387527839644,-0.0656549262646067
3.5077951002227175,-0.15993556021265407
3.541202672605791,-0.24321321378118993
3.5746102449888646,-0.32001085325022643
3.608017817371938,-0.3928979543837624
3.6414253897550113,-0.46073184586444427
3.674832962138085,-0.5193629621801468
3.7082405345211584,-0.5644798955745999
3.7416481069042318,-0.5944491354089979
3.7750556792873056,-0.6106644094939727
3.808463251670379,-0.6145976415157413
3.8418708240534527,-0.6034111080164162
3.875278396436526,-0.567701029814986
3.9086859688195994,-0.49421681334021056
3.942093541202673,-0.37337294303066504
3.9755011135857465,-0.20785630928492996
4.00890868596882,-0.017002150317531228
4.042316258351893,0.16679197334843962
4.075723830734967,0.3091944287619754
4.109131403118041,0.3878430826931236
4.142538975501114,0.40229656476077497
4.1759465478841875,0.37491862676872184
4.209354120267261,0.34185882040052046
4.242761692650334,0.33788649147854327
4.276169265033408,0.3814564636550238
4.309576837416482,0.4660729656003605
4.342984409799555,0.5613615719299556
4.3763919821826285,0.6236447506338877
4.409799554565702,0.6125086711451206
4.443207126948775,0.5076179886565023
4.476614699331849,0.3193783080739024
4.510022271714923,0.08843170423312893
4.543429844097996,-0.12740415853175732
4.5768374164810695,-0.27498989309779276
4.610244988864143,-0.3280264634701354
4.643652561247216,-0.29934512242357947
4.67706013363029,-0.2362221219163906
4.710467706013364,-0.1989234713753621
4.743875278396437,-0.23110343048289375
4.77728285077951,-0.33584095460262015
4.810690423162584,-0.46976285809552476
4.844097995545657,-0.5598202760983668
4.877505567928731,-0.5363866621777734
4.910913140311805,-0.3678555584306326
4.944320712694878,-0.08028288252083798
4.977728285077951,0.24806842208552113
5.011135857461025,0.5160081090899179
5.044543429844098,0.6400948630414017
5.077951002227172,0.5886970636543866
5.111358574610246,0.39416698443365794
5.144766146993319,0.13777615518303646
5.178173719376392,-0.08545690801470832
5.211581291759466,-0.20582008521948378
5.244988864142539,-0.20430051061898544
5.278396436525613,-0.1138267676720776
5.311804008908687,0.002301704148377862
5.34521158129176,0.08282116710204994
5.378619153674833,0.09556227952578232
5.412026726057907,0.046984342006486754
5.445434298440981,-0.02828689121778455
5.478841870824054,-0.09027720378670966
5.512249443207128,-0.115797280672741
5.545657015590201,-0.10849764867312744
5.579064587973274,-0.09275573892353967
5.612472160356348,-0.09615726590546075
5.645879732739422,-0.13111585170225343
5.679287305122495,-0.18606854309931786
5.712694877505569,-0.23101754941435135
5.746102449888642,-0.23417837130468858
5.779510022271715,-0.18048474994030364
5.812917594654789,-0.08179878839843058
5.846325167037863,0.02686533821452412
5.879732739420936,0.10352279420394053
5.91314031180401,0.11992738902966336
5.946547884187083,0.07662934124983635
5.979955456570156,0.004804993021173212
6.01336302895323,-0.04657553363802173
6.046770601336304,-0.03285165674533996
6.080178173719377,0.06476966346234017
6.1135857461024505,0.22802943046634738
6.146993318485524,0.40618559174375213
6.180400890868597,0.5348097880595047
6.213808463251671,0.5610681258014074
6.247216035634745,0.46497520916788865
6.280623608017818,0.2678704865871598
6.3140311804008915,0.024685932704214607
6.347438752783965,-0.1968784987465255
6.380846325167038,-0.3419459194483254
6.414253897550112,-0.3885150485600879
6.447661469933186,-0.3536935328047656
6.481069042316259,-0.2833230064050085
6.5144766146993325,-0.22925761976165757
6.547884187082406,-0.22424953260047825
6.581291759465479,-0.26591633792618913
6.614699331848553,-0.31746280447160274
6.648106904231627,-0.3251770514831883
6.6815144766147,-0.24482490127179085
6.7149220489977735,-0.06481316233675877
6.748329621380847,0.1845288957640598
6.78173719376392,0.4397640003873646
6.815144766146994,0.6272477169971122
6.848552338530068,0.6900440880211773
6.881959910913141,0.6076570643397858
6.915367483296214,0.4014002733996485
6.948775055679288,0.12498728554099775
6.982182628062361,-0.1541875078762151
7.015590200445435,-0.3752533865020832
7.048997772828509,-0.4991724822251137
7.082405345211582,-0.5161243133542235
7.115812917594655,-0.4448270440125623
7.149220489977729,-0.3249857654654858
7.182628062360802,-0.20447468070255315
7.216035634743876,-0.1237067793298238
7.24944320712695,-0.1013382789167529
7.282850779510023,-0.1267638586852815
7.316258351893096,-0.1638143905879743
7.34966592427617,-0.1658573700143349
7.383073496659243,-0.09672660910450367
7.416481069042317,0.0520079136289404
7.449888641425391,0.2560099010974472
7.4832962138084635,0.46804436071190225
7.516703786191537,0.6376149987433397
7.550111358574611,0.7302357743473821
7.583518930957685,0.7370318599181043
7.616926503340758,0.6713937956721672
7.650334075723832,0.5567299305769633
7.683741648106905,0.4135141562166903
7.717149220489978,0.25275471311812236
7.750556792873052,0.07812286958159675
7.783964365256126,-0.10629527221078901
7.817371937639199,-0.28840317483583905
7.850779510022273,-0.4458008933770125
7.884187082405346,-0.5509434767513535
7.917594654788419,-0.5821867161228683
7.951002227171493,-0.5361121007444338
7.984409799554567,-0.4351212131251974
8.01781737193764,-0.3252028017530361
8.051224944320714,-0.2621616523540094
8.084632516703786,-0.2896404496052428
8.118040089086861,-0.41703386496039413
8.151447661469934,-0.6074540960541058
8.184855233853007,-0.7835240493521276
8.218262806236082,-0.8520699023486275
8.251670378619155,-0.7401487050011261
8.285077951002227,-0.4282159334725079
8.318485523385302,0.03464220581209101
8.351893095768375,0.5421501831225801
8.385300668151448,0.966286295539672
8.418708240534523,1.2028256266905235
8.452115812917596,1.2078559602429175
8.485523385300668,1.0099665965854847
8.518930957683743,0.6939620988716713
8.552338530066816,0.3647670898170168
8.585746102449889,0.10825510150403811
8.619153674832964,-0.03460540070686292
8.652561247216036,-0.07178834954605298
8.68596881959911,-0.04477574947834992
8.719376391982184,-0.004120394100161998
8.752783964365257,0.011770226286405366
8.78619153674833,-0.013162026492044036
8.819599109131405,-0.0740947883441556
8.853006681514477,-0.15365044637122563
8.88641425389755,-0.23093390448334952
8.919821826280625,-0.2874639996243273
8.953229398663698,-0.30964605538569095
8.98663697104677,-0.28958133917963436
9.020044543429846,-0.2259594389566336
9.053452115812918,-0.1253343250190341
9.086859688195991,-0.0027167987856166146
9.120267260579066,0.11988097452383466
9.153674832962139,0.21750882130210208
9.187082405345212,0.2682435752004117
9.220489977728286,0.25933320772088486
9.25389755011136,0.19144472901270657
9.287305122494432,0.07935087687109674
9.320712694877507,-0.05154633557904584
9.35412026726058,-0.17203917373522937
9.387527839643653,-0.25718209395196545
9.420935412026727,-0.2928944616212662
9.4543429844098,-0.27881917939536055
9.487750556792873,-0.2265669658303411
9.521158129175948,-0.15433473994694413
9.55456570155902,-0.08037046041252936
9.587973273942094,-0.018103182316599832
9.621380846325168,0.02530799776588386
9.654788418708241,0.04725004585606875
9.688195991091314,0.04683781216325168
9.721603563474389,0.023622798615094878
9.755011135857462,-0.020772127098406257
9.788418708240535,-0.07907666507878768
9.82182628062361,-0.13591941857379586
9.855233853006682,-0.16978555825649969
9.888641425389755,-0.1604337012784689
9.92204899777283,-0.09910611882624383
9.955456570155903,0.004018075959297293
9.988864142538976,0.1204856928128832
10.02227171492205,0.21390228436471292
10.055679287305123,0.25594177637127097
10.089086859688196,0.24007676955071613
10.12249443207127,0.1853889802652027
10.155902004454344,0.1276459167723739
10.189309576837417,0.10162746116310933
10.222717149220491,0.12359414398742131
10.256124721603564,0.18294014921603877
10.289532293986637,0.24732002843378634
10.322939866369712,0.27852098798270536
10.356347438752785,0.25091764795748744
10.389755011135858,0.16332721758587782
10.423162583518932,0.038806418259962686
10.456570155902005,-0.08678358245335772
10.489977728285078,-0.18113272060771862
10.523385300668153,-0.2284948992738792
10.556792873051226,-0.23344249655182728
10.590200445434299,-0.2146159721428294
10.623608017817373,-0.19285069712566877
10.657015590200446,-0.18045348113285006
10.69042316258352,-0.1769699565563179
10.723830734966594,-0.17261535045486998
10.757238307349667,-0.15619360544151942
10.790645879732741,-0.12228800726027036
10.824053452115814,-0.07372367007854892
10.857461024498887,-0.018724494080726295
10.890868596881962,0.03447539457235356
10.924276169265035,0.08158968930180201
10.957683741648108,0.12228760305225951
10.991091314031182,0.1567123672258037
11.024498886414255,0.18147782847380978
11.057906458797328,0.18856028316548654
11.091314031180403,0.1686387326894072
11.124721603563476,0.11741680886415273
11.158129175946549,0.041157161192766446
11.191536748329623,-0.042437909340796005
11.224944320712696,-0.10955957841132558
11.25835189309577,-0.13993792862386192
11.291759465478844,-0.12624564661368087
11.325167037861917,-0.07838848064549774
11.35857461024499,-0.02007848565706751
11.391982182628064,0.02116288067035034
11.425389755011137,0.026051212098605264
11.45879732739421,-0.008137631116166267
11.492204899777285,-0.06707550996125154
11.525612472160358,-0.12691213724503816
11.55902004454343,-0.16583504452058323
11.592427616926505,-0.17355808678984974
11.625835189309578,-0.15389901727633337
11.659242761692651,-0.11957943644449637
11.692650334075726,-0.0827593496821185
11.726057906458799,-0.047062585689704714
11.759465478841872,-0.005741012228031503
11.792873051224946,0.05305409891996412
11.82628062360802,0.136983831527011
11.859688195991092,0.24150951178374813
11.893095768374167,0.3477522746204024
11.92650334075724,0.4277759036071097
11.959910913140313,0.45511607875588334
11.993318485523387,0.41579526606573153
12.02672605790646,0.31477512868979385
12.060133630289533,0.1748580721854212
12.093541202672608,0.02846095973602166
12.12694877505568,-0.09413430207057943
12.160356347438753,-0.17495871725852588
12.193763919821828,-0.2127359229653095
12.227171492204901,-0.2200113768959231
12.260579064587974,-0.21491078798599572
12.293986636971049,-0.2117114147234796
12.327394209354122,-0.21463936531177058
12.360801781737194,-0.21746349849892183
12.39420935412027,-0.20856460211687183
12.427616926503342,-0.17868237938744302
12.461024498886415,-0.12757686101260327
12.49443207126949,-0.06657447267152247
12.527839643652563,-0.015780240860225395
12.561247216035635,0.003230434264831861
12.59465478841871,-0.023240332027116468
12.628062360801783,-0.09311503177301879
12.661469933184856,-0.18563169621873196
12.69487750556793,-0.26567797638199464
12.728285077951004,-0.29497738560518755
12.761692650334076,-0.24653995495881978
12.795100222717151,-0.11659700279764051
12.828507795100224,0.07148795474616308
12.861915367483297,0.27378445533511653
12.895322939866372,0.44071280800998963
12.928730512249444,0.534354866353719
12.962138084632517,0.5410765906438697
12.995545657015592,0.47451266449227847
13.028953229398665,0.36819451980946694
13.062360801781738,0.26133902945259824
13.095768374164813,0.18371819281468768
13.129175946547885,0.14536721889146292
13.162583518930958,0.13461016807844664
13.195991091314033,0.1246241104024044
13.229398663697106,0.08574456702359064
13.262806236080179,-0.0011516011174430131
13.296213808463254,-0.13511900595199433
13.329621380846326,-0.29309228342342586
13.3630289532294,-0.43641829890332606
13.396436525612474,-0.5240397942688872
13.429844097995547,-0.5277531645485387
13.46325167037862,-0.4437538860037411
13.496659242761694,-0.295664183454426
13.530066815144767,-0.1273342337897984
13.56347438752784,0.012207120093707183
13.596881959910915,0.08596350424356809
13.630289532293988,0.08163579025229643
13.66369710467706,0.014817762593489662
13.697104677060135,-0.07834900126629035
13.730512249443208,-0.15586026151584992
13.763919821826281,-0.18579947842406372
13.797327394209356,-0.15719930971100735
13.830734966592429,-0.08182046678750488
13.864142538975502,0.013244429476575354
13.897550111358576,0.09848382944275677
13.93095768374165,0.15464774512386034
13.964365256124722,0.17976064652206936
13.997772828507797,0.18756636042952532
14.03118040089087,0.1982926397720238
14.064587973273943,0.2261978718407848
14.097995545657017,0.27014821718091875
14.13140311804009,0.31238026042207706
14.164810690423163,0.3267347084432321
14.198218262806238,0.2926443451092816
14.23162583518931,0.20766128431942904
14.265033407572384,0.09152105321172255
14.298440979955458,-0.021053774678285137
14.331848552338531,-0.0955326696786506
14.365256124721604,-0.1129803867582877
14.398663697104679,-0.07774828722962157
14.432071269487752,-0.013812200521798889
14.465478841870825,0.04767695424347013
14.4988864142539,0.08260044158189432
14.532293986636972,0.0825243069584652
14.565701559020045,0.05418932011224533
14.59910913140312,0.01147179426943715
14.632516703786193,-0.03478594877855691
14.665924276169266,-0.08319194882522604
14.69933184855234,-0.1412018644534952
14.732739420935413,-0.21823645875723444
14.766146993318486,-0.3165206291433934
14.79955456570156,-0.42468434073321987
14.832962138084634,-0.5177205400367269
14.866369710467707,-0.5638649794707866
14.899777282850781,-0.5358361545478603
14.933184855233854,-0.4219693962466604
14.966592427616927,-0.23273473780745582
15.0,0.00016693743305334183
