Time (s),Filtered Signal
0.0,-0.03130930143452352
0.03337004405286344,0.04625742767751795
0.06674008810572687,0.11927908452705244
0.10011013215859031,0.18639724530474644
0.13348017621145375,0.24991091536459473
0.16685022026431717,0.31201239631396227
0.20022026431718062,0.3694634892720484
0.23359030837004408,0.41089064771628786
0.2669603524229075,0.4197447909746255
0.3003303964757709,0.3824702949952566
0.33370044052863435,0.29768111216862064
0.3670704845814978,0.18064115055609029
0.40044052863436125,0.05936036762879889
0.43381057268722467,-0.03675141342151983
0.46718061674008815,-0.09016424281497769
0.5005506607929515,-0.10328610350844597
0.533920704845815,-0.09661307521465555
0.5672907488986785,-0.0975770275350051
0.6006607929515418,-0.12579815349636678
0.6340308370044053,-0.18246608659708036
0.6674008810572687,-0.24940826721447876
0.7007709251101322,-0.298291440151668
0.7341409691629956,-0.3051115735061903
0.767511013215859,-0.26242969861438037
0.8008810572687225,-0.1830541573159992
0.834251101321586,-0.09334582069836417
0.8676211453744493,-0.019684377602302315
0.9009911894273128,0.024878908141629782
0.9343612334801763,0.046902084074518305
0.9677312775330397,0.06854133001770131
1.001101321585903,0.11526925186650473
1.0344713656387665,0.20148653230754612
1.06784140969163,0.3211543252100301
1.1012114537444935,0.44797824670831243
1.134581497797357,0.5449804281608449
1.1679515418502202,0.5789528534872027
1.2013215859030837,0.5333681683151248
1.2346916299559472,0.41448430376434137
1.2680616740088106,0.2486917330579677
1.3014317180616741,0.07283348669780328
1.3348017621145374,-0.07833365399005088
1.3681718061674009,-0.182896905966442
1.4015418502202643,-0.23735484062965512
1.4349118942731278,-0.25567594260877596
1.4682819383259913,-0.26263305407576987
1.5016519823788548,-0.28380943338357795
1.535022026431718,-0.3355930046104442
1.5683920704845815,-0.41855905843714764
1.601762114537445,-0.5166914545165313
1.6351321585903085,-0.602904512959894
1.668502202643172,-0.6488419626754838
1.7018722466960352,-0.635030407024238
1.7352422907488987,-0.5572394118131648
1.7686123348017622,-0.4266709551669045
1.8019823788546256,-0.26454526587080945
1.8353524229074891,-0.09418499700701234
1.8687224669603526,0.06556102363733132
1.9020925110132159,0.2030739906063239
1.9354625550660793,0.31291529648599525
1.9688325991189428,0.3930249084144739
2.002202643171806,0.44264214916088696
2.0355726872246698,0.46220209891586844
2.068942731277533,0.4546396186495385
2.1023127753303967,0.4264172673833296
2.13568281938326,0.38684817533971594
2.1690528634361232,0.3455684645586103
2.202422907488987,0.3093474602070044
2.23579295154185,0.2799338255554094
2.269162995594714,0.2540910632377957
2.302533039647577,0.22580692854807233
2.3359030837004404,0.18957582419457858
2.369273127753304,0.14319801300214915
2.4026431718061674,0.08886636926111896
2.436013215859031,0.03218685400034311
2.4693832599118943,-0.0202511611410909
2.5027533039647576,-0.0635276896442301
2.5361233480176213,-0.09604462663357453
2.5694933920704845,-0.11952704743115823
2.6028634361233483,-0.1375536382660938
2.6362334801762115,-0.15347437722522636
2.6696035242290748,-0.16878951020336025
2.7029735682819385,-0.18275046840258738
2.7363436123348017,-0.19327938637793576
2.7697136563876654,-0.19861182884259884
2.8030837004405287,-0.19867402021660874
2.8364537444933924,-0.1953152259439268
2.8698237885462556,-0.19111479682127688
2.903193832599119,-0.18731261959195183
2.9365638766519826,-0.18204958976034796
2.969933920704846,-0.1701635433896349
3.0033039647577096,-0.14513381627131414
3.036674008810573,-0.1026413107024462
3.070044052863436,-0.04414210741758195
3.1034140969162998,0.021566207549680267
3.136784140969163,0.08020838310766713
3.1701541850220267,0.11722114843010467
3.20352422907489,0.12432151371576941
3.2368942731277532,0.10430774057392467
3.270264317180617,0.07123971471218318
3.30363436123348,0.045103504652054975
3.337004405286344,0.042888140513111676
3.370374449339207,0.07019634878518863
3.4037444933920704,0.11770580801437751
3.437114537444934,0.1646402270986083
3.4704845814977974,0.18790759174348967
3.503854625550661,0.17258198565392271
3.5372246696035243,0.1186004598716021
3.5705947136563876,0.04040249291945872
3.6039647577092513,-0.04019541285529312
3.6373348017621145,-0.10417718099932806
3.6707048458149782,-0.1433397431237086
3.7040748898678415,-0.16212281331941558
3.737444933920705,-0.17254160749027508
3.7708149779735685,-0.1852093897556952
3.8041850220264317,-0.20156726528668936
3.8375550660792954,-0.2118099490954255
3.8709251101321587,-0.19988699792477532
3.9042951541850224,-0.15302184535742153
3.9376651982378856,-0.07057339918538741
3.971035242290749,0.03277603128807362
4.004405286343612,0.13163419859573555
4.037775330396476,0.20035583576744867
4.0711453744493395,0.2242816822805536
4.104515418502203,0.20621476171829123
4.137885462555066,0.16494713004476141
4.171255506607929,0.12657740363902514
4.2046255506607935,0.11281850411153876
4.237995594713657,0.13177735121821146
4.27136563876652,0.17526458621458968
4.304735682819383,0.22341006692241858
4.3381057268722465,0.25393592509559487
4.371475770925111,0.25154607346695124
4.404845814977974,0.21331720731707896
4.438215859030837,0.1482891834059906
4.4715859030837,0.07231997883742833
4.504955947136564,0.0012279304829564026
4.538325991189428,-0.054534853875025775
4.571696035242291,-0.0917850198511825
4.605066079295154,-0.11317912842398593
4.638436123348018,-0.12405801078218504
4.671806167400881,-0.129536880091861
4.705176211453745,-0.1330903784558059
4.738546255506608,-0.13669438329194264
4.7719162995594715,-0.1416969660824703
4.805286343612335,-0.14944224606274042
4.838656387665198,-0.16117860012688257
4.872026431718062,-0.17746859999029183
4.905396475770925,-0.19767405990561487
4.938766519823789,-0.2199239702334082
4.972136563876652,-0.24150848614980866
5.005506607929515,-0.2593073308259941
5.038876651982379,-0.26993999907843336
5.072246696035243,-0.2697319493338188
5.105616740088106,-0.2549417427765682
5.138986784140969,-0.22262426612881517
5.172356828193832,-0.17198843768745756
5.2057268722466965,-0.10551969247040204
5.23909691629956,-0.028989667340346786
5.272466960352423,0.04999609895240262
5.305837004405286,0.12433539237560284
5.3392070484581495,0.18939676032786631
5.372577092511014,0.24348641797364146
5.405947136563877,0.2866208042398234
5.43931718061674,0.31855483239672777
5.4726872246696034,0.3375491303586372
5.506057268722468,0.34086784769197725
5.539427312775331,0.32680947375300884
5.572797356828194,0.2970153645665007
5.606167400881057,0.2575653664354194
5.639537444933921,0.21801717859606148
5.672907488986785,0.1885641083364142
5.706277533039648,0.17628175833779497
5.739647577092511,0.18175965640222674
5.7730176211453745,0.19737016516732878
5.806387665198238,0.20815352135428652
5.839757709251102,0.19573723813252372
5.873127753303965,0.1447171946809038
5.9064977973568284,0.049629240509542476
5.939867841409692,-0.08036520880135152
5.973237885462555,-0.22183070105968905
6.006607929515419,-0.3434921036757177
6.039977973568282,-0.4169976986649819
6.073348017621146,-0.42774371237849856
6.106718061674009,-0.38080666175851696
6.140088105726872,-0.2988751083305185
6.173458149779736,-0.21274821871183047
6.2068281938325995,-0.14864265209694855
6.240198237885463,-0.11823816577221495
6.273568281938326,-0.11608118722364405
6.306938325991189,-0.1252366282650933
6.3403083700440535,-0.12787149237434936
6.373678414096917,-0.11503340555480288
6.40704845814978,-0.09055720378809656
6.440418502202643,-0.06737335374830515
6.4737885462555065,-0.05861613391372637
6.507158590308371,-0.06860010845553637
6.540528634361234,-0.08862042458701663
6.573898678414097,-0.09985851154815378
6.60726872246696,-0.08196242266324948
6.640638766519824,-0.0230490875594562
6.674008810572688,0.07371855602250053
6.707378854625551,0.19005343926814577
6.740748898678414,0.2989202791179708
6.774118942731278,0.37443278889798454
6.807488986784141,0.4009904822342333
6.840859030837005,0.3780087436416403
6.874229074889868,0.31871500979478323
6.9075991189427315,0.24401591447210436
6.940969162995595,0.1742918727621607
6.974339207048458,0.12247087208593528
7.007709251101322,0.09081891382049675
7.041079295154185,0.07209355376601011
7.074449339207049,0.05390518030519046
7.107819383259912,0.02411288224743518
7.141189427312775,-0.024819810085856618
7.174559471365639,-0.0936523841287309
7.207929515418503,-0.1764322544492354
7.241299559471366,-0.2621956945032524
7.274669603524229,-0.33760436724709186
7.308039647577092,-0.38996054951503206
7.3414096916299565,-0.41007169033663715
7.37477973568282,-0.3943096162309915
7.408149779735683,-0.3452074649136949
7.441519823788546,-0.27031207427807286
7.47488986784141,-0.17969088960164972
7.508259911894274,-0.08309811972129698
7.541629955947137,0.012071824540050688
7.575,0.10139226084421914
7.608370044052863,0.182718878153414
7.641740088105728,0.2549674820237098
7.675110132158591,0.31715320709752154
7.708480176211454,0.3679901451486203
7.741850220264317,0.4057522953191288
7.775220264317181,0.4279348326657869
7.808590308370045,0.43071407096631836
7.841960352422908,0.40890207052966776
7.875330396475771,0.35731170598487905
7.9087004405286345,0.273731005250263
7.942070484581498,0.16235024999403622
7.975440528634362,0.03548085682561867
8.008810572687224,-0.08827342371913505
8.042180616740088,-0.1894619445324181
8.075550660792953,-0.2546867214093338
8.108920704845815,-0.28158328047991754
8.142290748898679,-0.27923342007436386
8.175660792951541,-0.26367694724512314
8.209030837004406,-0.25072646470427623
8.24240088105727,-0.2495714472880399
8.275770925110132,-0.260036462513657
8.309140969162996,-0.2743270258943787
8.342511013215859,-0.28187656938735006
8.375881057268723,-0.27465983097869645
8.409251101321587,-0.2505261648221162
8.44262114537445,-0.2133801759683316
8.475991189427313,-0.17060442170908793
8.509361233480176,-0.12925440069516056
8.54273127753304,-0.09288787648414865
8.576101321585904,-0.060408584768120915
8.609471365638766,-0.027270658443356986
8.64284140969163,0.011733505118145745
8.676211453744493,0.05956233632277262
8.709581497797357,0.11525473575527458
8.742951541850221,0.17408458460561335
8.776321585903084,0.2291742279235885
8.809691629955948,0.2736514956523801
8.84306167400881,0.3025010846325036
8.876431718061674,0.31369105753447474
8.909801762114538,0.3085179150646453
8.9431718061674,0.29119887877113376
8.976541850220265,0.26769325611671413
9.009911894273127,0.24383847995681107
9.043281938325991,0.223233297569518
9.076651982378856,0.2056708500631711
9.110022026431718,0.18696422428825848
9.143392070484582,0.16053854987911462
9.176762114537445,0.12035844795425539
9.210132158590309,0.06404169224891704
9.243502202643173,-0.005216800222759564
9.276872246696035,-0.07887626281858498
9.3102422907489,-0.14552878384819307
9.343612334801762,-0.19476133507570187
9.376982378854626,-0.2208960758023484
9.41035242290749,-0.22504125070310388
9.443722466960352,-0.2144656891123491
9.477092511013216,-0.19938757350934472
9.510462555066079,-0.18847160816083466
9.543832599118943,-0.18510577932521805
9.577202643171807,-0.18636358449946622
9.61057268722467,-0.18532703645803075
9.643942731277534,-0.17565562993946385
9.677312775330396,-0.15591011147767989
9.71068281938326,-0.13106223634966413
9.744052863436124,-0.11003431403471554
9.777422907488987,-0.10031105647357738
9.81079295154185,-0.10243809829506473
9.844162995594713,-0.1075646838591695
9.877533039647577,-0.09987196535368645
9.910903083700441,-0.06337295903439744
9.944273127753304,0.009709125648147231
9.977643171806168,0.11289278339124588
10.01101321585903,0.22497913131768518
10.044383259911895,0.3161826560599652
10.077753303964759,0.3588985201814019
10.111123348017621,0.33883480945511424
10.144493392070485,0.26170760488294664
10.177863436123348,0.15232656632181168
10.211233480176212,0.04603347380880847
10.244603524229076,-0.024292424061834666
10.277973568281938,-0.04051814194622053
10.311343612334802,-0.005896889606665049
10.344713656387665,0.056623298982928665
10.378083700440529,0.11375785599335717
10.411453744493393,0.13514817755338734
10.444823788546255,0.10519538680273033
10.47819383259912,0.02876379934181221
10.511563876651982,-0.07136634020503124
10.544933920704846,-0.1639972326643914
10.57830396475771,-0.2218854428042411
10.611674008810573,-0.2319399285016671
10.645044052863437,-0.19936140370061683
10.678414096916299,-0.14450890948406092
10.711784140969163,-0.09422597731313369
10.745154185022027,-0.07133978913056299
10.77852422907489,-0.08636449705305609
10.811894273127754,-0.1341834925364331
10.845264317180618,-0.1963734474473578
10.87863436123348,-0.24779029524482143
10.912004405286345,-0.26477778251156375
10.945374449339207,-0.23217806947476752
10.978744493392071,-0.1471096349403808
11.012114537444935,-0.01883241027974322
11.045484581497798,0.13458968869183263
11.078854625550662,0.29119088679127547
11.112224669603524,0.4297627534765165
11.145594713656388,0.5330393602154887
11.178964757709252,0.5891770534726221
11.212334801762115,0.5921941627606969
11.245704845814979,0.5423206679331936
11.279074889867841,0.4466841286301959
11.312444933920705,0.3197449333780954
11.34581497797357,0.1821271735266749
11.379185022026432,0.05669250799292037
11.412555066079296,-0.03794395494583422
11.445925110132158,-0.09436648097172765
11.479295154185023,-0.12043130818866823
11.512665198237887,-0.13754191691484863
11.546035242290749,-0.17254720446982333
11.579405286343613,-0.2459549778878274
11.612775330396476,-0.3615794842376718
11.64614537444934,-0.5027226026738548
11.679515418502204,-0.6371727357027802
11.712885462555066,-0.7290137573086956
11.74625550660793,-0.7518233336115294
11.779625550660793,-0.6972820879804614
11.812995594713657,-0.5758315793469277
11.846365638766521,-0.4102324640975394
11.879735682819383,-0.22620955800546777
11.913105726872248,-0.04501786023320026
11.94647577092511,0.11933693228355603
11.979845814977974,0.2587266441648112
12.013215859030838,0.3681200577214722
12.0465859030837,0.4441446311447565
12.079955947136565,0.48590183855878777
12.113325991189427,0.49680438383827574
12.146696035242291,0.4852673569532641
12.180066079295155,0.46283574773910524
12.213436123348018,0.4400854013332374
12.246806167400882,0.42218969860245414
12.280176211453744,0.4064825285201929
12.313546255506608,0.3834847165373916
12.346916299559473,0.34120167706741167
12.380286343612335,0.27089499112894555
12.413656387665199,0.1717630217949019
12.447026431718061,0.05241623371330705
12.480396475770926,-0.07149907036364558
12.51376651982379,-0.1824077223713772
12.547136563876652,-0.2663488141691744
12.580506607929516,-0.31665748190431364
12.613876651982379,-0.33457825455571416
12.647246696035243,-0.3271160305609952
12.680616740088107,-0.303540388970643
12.71398678414097,-0.27218497299021654
12.747356828193833,-0.23861296119107012
12.780726872246696,-0.20534378565459896
12.81409691629956,-0.17268192754672837
12.847466960352424,-0.14000392992017321
12.880837004405286,-0.10702968703189404
12.91420704845815,-0.07481567647682776
12.947577092511013,-0.04623789208714635
12.980947136563877,-0.025641286242915014
13.014317180616741,-0.017401888693863356
13.047687224669604,-0.023592254707654654
13.081057268722468,-0.041631354915712196
13.11442731277533,-0.06326245705564945
13.147797356828194,-0.07595141386277109
13.181167400881058,-0.06675759726550093
13.21453744493392,-0.02738808532492718
13.247907488986785,0.041712820819119846
13.281277533039647,0.13018652848119414
13.314647577092511,0.22021404178884046
13.348017621145376,0.291709119055065
13.381387665198238,0.3282377373335975
13.414757709251102,0.3215565333550068
13.448127753303964,0.2734857805791407
13.481497797356829,0.19497190333305753
13.514867841409693,0.10303918778975943
13.548237885462555,0.016649177982657425
13.58160792951542,-0.04756270401411372
13.614977973568282,-0.0788615319004953
13.648348017621146,-0.074649606195024
13.68171806167401,-0.04094252771631954
13.715088105726872,0.009001925001964223
13.748458149779736,0.057612241475448585
13.781828193832599,0.08691075911265785
13.815198237885463,0.08267566810819856
13.848568281938327,0.03807544872304668
13.88193832599119,-0.0440307631878998
13.915308370044054,-0.15087317409415615
13.948678414096916,-0.262085754872101
13.98204845814978,-0.3543865963657424
14.015418502202644,-0.40760805641600867
14.048788546255507,-0.410324233319206
14.08215859030837,-0.3631187774417961
14.115528634361233,-0.27812107284255055
14.148898678414097,-0.17471571809495168
14.182268722466961,-0.07283580131914014
14.215638766519824,0.013659518501825126
14.249008810572688,0.0808906576192779
14.28237885462555,0.1345198922443356
14.315748898678414,0.18516197389347436
14.349118942731279,0.2416990607881211
14.382488986784141,0.3055732870463325
14.415859030837005,0.36874105830266374
14.449229074889868,0.41629514917424165
14.482599118942732,0.4325766309325523
14.515969162995596,0.40796904333494893
14.549339207048458,0.3432860291010915
14.582709251101322,0.24985164745406818
14.616079295154185,0.1454148941266077
14.649449339207049,0.047904162204208324
14.682819383259913,-0.030192058938423916
14.716189427312775,-0.08463699510062474
14.74955947136564,-0.11882587092140644
14.782929515418502,-0.14073186469200902
14.816299559471366,-0.1592614750870208
14.84966960352423,-0.1815867128392256
14.883039647577093,-0.21193802607591467
14.916409691629957,-0.25125109528131706
14.94977973568282,-0.29675331570241215
14.983149779735683,-0.34126745238804346
15.016519823788547,-0.37311223644262786
15.04988986784141,-0.3779771827557873
15.083259911894274,-0.3433798772991926
15.116629955947138,-0.2645622603367782
15.15,-0.14908412407524013
15.183370044052865,-0.017162998393658164
15.216740088105727,0.10355610127614841
15.250110132158591,0.18735547815119238
15.283480176211455,0.22009876814931134
15.316850220264318,0.20477193194111576
15.350220264317182,0.16016490129329178
15.383590308370044,0.11308187062956866
15.416960352422908,0.08747095835630812
15.450330396475772,0.09520973819186086
15.483700440528635,0.13235185472707658
15.517070484581499,0.18201352655386918
15.550440528634361,0.22215082980669762
15.583810572687225,0.23463900007434577
15.61718061674009,0.2119778271693174
15.650550660792952,0.15934779512503242
15.683920704845816,0.09177863826982362
15.717290748898678,0.027973850308522223
15.750660792951543,-0.016697056739770098
15.784030837004407,-0.035517923842246356
15.817400881057269,-0.032322148372656026
15.850770925110133,-0.019477736243055117
15.884140969162996,-0.012795204418154371
15.91751101321586,-0.025224516962270252
15.950881057268724,-0.06164434629787902
15.984251101321586,-0.11669984818572722
16.01762114537445,-0.1765495101235041
16.050991189427315,-0.22388493955234195
16.084361233480177,-0.24427758657172266
16.11773127753304,-0.23135480422866092
16.151101321585905,-0.1887780303833159
16.184471365638768,-0.12830850510981284
16.21784140969163,-0.06485927589829736
16.251211453744492,-0.010671036597524896
16.284581497797358,0.02892060367351359
16.31795154185022,0.05639685836910795
16.351321585903083,0.07941222271959716
16.38469162995595,0.10594954482227407
16.41806167400881,0.13958794203710306
16.451431718061674,0.17708980211509454
16.48480176211454,0.20938983855589016
16.518171806167402,0.22546353886874593
16.551541850220264,0.21722858973525172
16.584911894273127,0.18321118196441855
16.618281938325993,0.12935930546823682
16.651651982378855,0.06675875509641573
16.685022026431717,0.007430841759284075
16.718392070484583,-0.039805307659888385
16.751762114537446,-0.07159733706640695
16.785132158590308,-0.08967896506732374
16.818502202643174,-0.09842387531439636
16.851872246696036,-0.10187339508712621
16.8852422907489,-0.10185778007536893
16.91861233480176,-0.09804515974412545
16.951982378854627,-0.08958896960084047
16.98535242290749,-0.07716625059361652
17.01872246696035,-0.0640620836101873
17.052092511013218,-0.05557864799013488
17.08546255506608,-0.057034171117143505
17.118832599118942,-0.07139846016720858
17.152202643171808,-0.09777224209173278
