Frequency (Hz),Amplitude
0.0,1.5523087188393268
0.019867549668874173,1.5520888503698431
0.039735099337748346,1.5514299346810365
0.059602649006622516,1.5503340403717307
0.07947019867549669,1.5488046132276827
0.09933774834437085,1.5468464733609013
0.11920529801324503,1.54446581111985
0.13907284768211922,1.541670181684776
0.15894039735099338,1.5384684982369392
0.17880794701986755,1.5348710235637257
0.1986754966887417,1.5308893599345812
0.2185430463576159,1.526536437054026
0.23841059602649006,1.5218264978687503
0.2582781456953642,1.516775081975414
0.27814569536423844,1.5113990063445768
0.2980132450331126,1.5057163430447078
0.31788079470198677,1.4997463936180855
0.33774834437086093,1.493509659729258
0.3576158940397351,1.4870278096761549
0.3774834437086093,1.4803236403253992
0.3973509933774834,1.4734210340080167
0.4172185430463576,1.466344909890366
0.4370860927152318,1.4591211693195467
0.45695364238410596,1.4517766346348628
0.4768211920529801,1.4443389809380511
0.49668874172185434,1.4368366603281648
0.5165562913907285,1.4292988181341608
0.5364238410596026,1.4217552007208758
0.5562913907284769,1.4142360545064954
0.5761589403973509,1.4067720159115156
0.5960264900662252,1.3993939920649514
0.6158940397350993,1.392133032222918
0.6357615894039735,1.3850201900090269
0.6556291390728477,1.37808637676622
0.6754966887417219,1.3713622065125188
0.695364238410596,1.3648778332185154
0.7152317880794702,1.3586627813670147
0.7350993377483444,1.3527457710097697
0.7549668874172186,1.347154538796161
0.7748344370860927,1.3419156567048667
0.7947019867549668,1.3370543504521397
0.8145695364238411,1.3325943197682317
0.8344370860927152,1.328557562915587
0.8543046357615894,1.3249642079563047
0.8741721854304636,1.3218323533525054
0.8940397350993378,1.319177920491167
0.9139072847682119,1.3170145206592145
0.9337748344370861,1.3153533388501273
0.9536423841059603,1.314203036560507
0.9735099337748344,1.3135696754379016
0.9933774834437087,1.31345666327613
1.0132450331125828,1.3138647234346204
1.033112582781457,1.3147918882971794
1.0529801324503312,1.316233516900679
1.0728476821192052,1.3181823363750453
1.0927152317880795,1.3206285063596894
1.1125827814569538,1.323559705117902
1.1324503311258278,1.3269612356753795
1.1523178807947019,1.3308161499745748
1.1721854304635762,1.335105388773637
1.1920529801324504,1.339807934832841
1.2119205298013245,1.3449009768237687
1.2317880794701985,1.3503600813663539
1.2516556291390728,1.3561593706396375
1.271523178807947,1.3622717031166005
1.2913907284768211,1.3686688551311779
1.3112582781456954,1.3753217011857353
1.3311258278145695,1.3822003911380376
1.3509933774834437,1.389274522656797
1.370860927152318,1.396513307593672
1.390728476821192,1.4038857311776884
1.410596026490066,1.4113607031877444
1.4304635761589404,1.4189072004933154
1.4503311258278146,1.4264944005685787
1.4701986754966887,1.4340918057777643
1.4900662251655628,1.441669358396753
1.5099337748344372,1.4491975464789777
1.5298013245033113,1.4566475007915454
1.5496688741721854,1.4639910831415128
1.5695364238410596,1.471200966485029
1.5894039735099337,1.4782507072646762
1.609271523178808,1.4851148104555556
1.6291390728476822,1.4917687878207373
1.6490066225165563,1.498189209884358
1.6688741721854303,1.5043537521270858
1.6887417218543048,1.5102412358973571
1.7086092715231789,1.515831664513197
1.728476821192053,1.5211062550062247
1.7483443708609272,1.5260474659324503
1.7682119205298013,1.5306390216448411
1.7880794701986755,1.5348659333920693
1.8079470198675496,1.5387145175757229
1.8278145695364238,1.5421724114670023
1.847682119205298,1.545228586652149
1.8675496688741722,1.5478733604453256
1.8874172185430464,1.550098405477697
1.9072847682119205,1.5518967576426392
1.9271523178807946,1.553262822548887
1.9470198675496688,1.5541923806068638
1.9668874172185429,1.554682590846909
1.9867549668874174,1.554731993543175
2.0066225165562916,1.554340511691948
2.0264900662251657,1.5535094513689103
2.0463576158940397,1.5522415009656814
2.066225165562914,1.5505407292817421
2.086092715231788,1.5484125824234758
2.1059602649006623,1.5458638794373536
2.1258278145695364,1.5429028065784847
2.1456953642384105,1.5395389100902688
2.165562913907285,1.5357830873429517
2.185430463576159,1.531647576151364
2.205298013245033,1.5271459420629323
2.2251655629139075,1.5222930633765528
2.2450331125827816,1.5171051136222184
2.2649006622516556,1.5115995411993801
2.2847682119205297,1.5057950458396197
2.3046357615894038,1.499711551527415
2.324503311258278,1.4933701754808741
2.3443708609271523,1.4867931927644147
2.364238410596027,1.4800039960774611
2.384105960264901,1.4730270502391232
2.403973509933775,1.4658878408694518
2.423841059602649,1.4586128167552037
2.443708609271523,1.4512293253838786
2.463576158940397,1.4437655411359027
2.4834437086092715,1.4362503856439819
2.5033112582781456,1.4287134398626464
2.52317880794702,1.4211848474428768
2.543046357615894,1.4136952090779011
2.562913907284768,1.4062754675801528
2.5827814569536423,1.398956783566524
2.6026490066225163,1.3917704017715675
2.622516556291391,1.3847475081762812
2.642384105960265,1.377919078333058
2.662251655629139,1.371315717483868
2.6821192052980134,1.3649674933050846
2.7019867549668874,1.3589037623648375
2.7218543046357615,1.3531529916399585
2.741721854304636,1.3477425767024713
2.76158940397351,1.3426986584403646
2.781456953642384,1.3380459404131548
2.801324503311258,1.3338075091486292
2.821192052980132,1.330004659850611
2.8410596026490067,1.3266567300976964
2.8609271523178808,1.3237809441595656
2.8807947019867552,1.3213922705313441
2.9006622516556293,1.319503295183709
2.9205298013245033,1.3181241128428882
2.9403973509933774,1.3172622383532522
2.9602649006622515,1.3169225398412294
2.9801324503311255,1.3171071950019606
3.0,1.317815671383426
3.0198675496688745,1.3190447310623883
3.0397350993377485,1.320788459611265
3.0596026490066226,1.3230383187634935
3.0794701986754967,1.325783221716658
3.0993377483443707,1.3290096295848395
3.119205298013245,1.3327016671394782
3.1390728476821192,1.3368412556732536
3.1589403973509933,1.3414082605922317
3.1788079470198674,1.3463806511917045
3.198675496688742,1.351734670000353
3.218543046357616,1.3574450090824708
3.23841059602649,1.3634849907616453
3.2582781456953644,1.3698267503625343
3.2781456953642385,1.3764414187492602
3.2980132450331126,1.3832993026581573
3.3178807947019866,1.3903700610667729
3.3377483443708607,1.3976228760996976
3.3576158940397347,1.405026617234297
3.3774834437086096,1.4125499978270155
3.3973509933774837,1.420161723226651
3.4172185430463577,1.4278306299690047
3.437086092715232,1.4355258157534259
3.456953642384106,1.4432167600844064
3.47682119205298,1.450873435617906
3.4966887417218544,1.4584664103840363
3.5165562913907285,1.465966941164516
3.5364238410596025,1.4733470583876096
3.556291390728477,1.480579642965909
3.576158940397351,1.4876384955467163
3.596026490066225,1.4944983986721099
3.615894039735099,1.5011351723596211
3.6357615894039736,1.5075257236159672
3.6556291390728477,1.5136480903887144
3.6754966887417218,1.5194814804450887
3.695364238410596,1.5250063056461416
3.7152317880794703,1.530204212058475
3.7350993377483444,1.5350581063174942
3.754966887417219,1.539552178625145
3.774834437086093,1.5436719227337308
3.794701986754967,1.5474041532351528
3.814569536423841,1.5507370204430497
3.834437086092715,1.5536600231239812
3.854304635761589,1.5561640193031947
3.8741721854304636,1.558241235340843
3.8940397350993377,1.5598852734459503
3.9139072847682117,1.5610911177677638
3.9337748344370858,1.5618551391774318
3.9536423841059607,1.5621750988270888
3.9735099337748347,1.5620501505482385
3.993377483443709,1.5614808421265078
4.013245033112583,1.560469115465599
4.033112582781457,1.559018305628643
4.052980132450331,1.5571331387210017
4.072847682119205,1.5548197285534127
4.0927152317880795,1.5520855719993285
4.112582781456953,1.5489395429338493
4.132450331125828,1.5453918846150863
4.152317880794702,1.541454200340413
4.172185430463576,1.537139442181321
4.19205298013245,1.5324618975702045
4.211920529801325,1.5274371734813454
4.231788079470199,1.5220821779161458
4.251655629139073,1.5164150983699636
4.271523178807947,1.5104553769247604
4.291390728476821,1.5042236815790015
4.311258278145695,1.4977418733942882
4.33112582781457,1.4910329690081057
4.3509933774834435,1.484121098034752
4.370860927152318,1.4770314548534862
4.390728476821192,1.4697902442655681
4.410596026490066,1.4624246204918727
4.43046357615894,1.454962618982647
4.450331125827815,1.4474330805219973
4.470198675496689,1.4398655671354896
4.490066225165563,1.4322902693509856
4.509933774834438,1.424737904424136
4.529801324503311,1.4172396052222174
4.549668874172186,1.4098267995661131
4.569536423841059,1.4025310799612951
4.589403973509934,1.3953840638058477
4.6092715231788075,1.388417244347009
4.629139072847682,1.3816618328663408
4.649006622516556,1.3751485928049814
4.66887417218543,1.3689076667910791
4.688741721854305,1.3629683977949887
4.708609271523179,1.3573591459081458
4.728476821192054,1.3521071025087714
4.748344370860927,1.3472381038317258
4.768211920529802,1.342776446189803
4.788079470198675,1.3387447052868982
4.80794701986755,1.3351635622080005
4.827814569536423,1.332051638755638
4.847682119205298,1.3294253448171387
4.867549668874172,1.3272987403849328
4.887417218543046,1.3256834147082706
4.9072847682119205,1.3245883848293525
4.927152317880794,1.3240200154529105
4.947019867549669,1.3239819617239217
4.966887417218543,1.3244751360550089
4.986754966887418,1.3254976996685692
5.006622516556291,1.3270450790164638
5.026490066225166,1.3291100067317845
5.04635761589404,1.3316825862726285
5.066225165562914,1.3347503789557955
5.086092715231788,1.3382985116660207
5.105960264900662,1.3423098031774838
5.125827814569536,1.3467649067496565
5.14569536423841,1.351642466464475
5.1655629139072845,1.356919284659146
5.185430463576159,1.3625704977760493
5.205298013245033,1.3685697579927536
5.225165562913908,1.3748894181029052
5.245033112582782,1.3815007172821356
5.264900662251656,1.3883739655804328
5.28476821192053,1.3954787252216228
5.304635761589404,1.4027839870498642
5.324503311258278,1.4102583407310747
5.344370860927152,1.4178701375846567
5.364238410596027,1.4255876451790956
5.3841059602649,1.4333791930676054
5.403973509933775,1.441213309262219
5.4238410596026485,1.4490588472431514
5.443708609271523,1.4568851034729684
5.463576158940397,1.4646619255320483
5.483443708609272,1.4723598111126426
5.503311258278146,1.4799499982056574
5.52317880794702,1.4874045468881287
5.543046357615895,1.4946964131731966
5.562913907284768,1.5017995154195851
5.582781456953643,1.508688793818206
5.602649006622516,1.5153402634798203
5.622516556291391,1.5217310616443325
5.642384105960264,1.527839489519377
5.662251655629139,1.533645049236712
5.682119205298013,1.5391284763904451
5.701986754966887,1.544271768592998
5.7218543046357615,1.5490582104541664
5.741721854304636,1.5534723953567093
5.7615894039735105,1.5575002443692105
5.781456953642384,1.5611290226042263
5.801324503311259,1.5643473532974457
5.821192052980132,1.5671452298521744
5.841059602649007,1.5695140260625673
5.860927152317881,1.571446504699695
5.880794701986755,1.5729368246158235
5.900662251655629,1.573980546494831
5.920529801324503,1.5745746373500178
5.940397350993377,1.5747174738446927
5.960264900662251,1.57440884448575
5.980132450331126,1.5736499507154023
6.0,1.5724434069016435
6.0198675496688745,1.5707932392032906
6.039735099337749,1.568704883260399
6.059602649006623,1.5661851806353038
6.079470198675497,1.5632423739035495
6.099337748344371,1.5598861002668067
6.119205298013245,1.556127383531737
6.139072847682119,1.5519786242699884
6.158940397350993,1.547453587943465
6.178807947019867,1.542567390748344
6.198675496688741,1.5373364828977931
6.218543046357616,1.5317786290304825
6.23841059602649,1.5259128853974333
6.258278145695365,1.5197595734456433
6.2781456953642385,1.5133402493828734
6.298013245033113,1.5066776692755541
6.317880794701987,1.4997957492010914
6.337748344370861,1.4927195199490348
6.357615894039735,1.4854750757434283
6.377483443708609,1.47808951644313
6.397350993377484,1.4705908826699068
6.417218543046357,1.4630080833181394
6.437086092715232,1.4553708149167115
6.456953642384105,1.4477094723464468
6.47682119205298,1.4400550504673932
6.496688741721854,1.4324390362821438
6.516556291390729,1.424893291356358
6.5364238410596025,1.4174499243381862
6.556291390728477,1.4101411535652177
6.5761589403973515,1.402999159922487
6.596026490066225,1.3960559303162787
6.6158940397351,1.3893430923560817
6.635761589403973,1.3828917410862585
6.655629139072848,1.3767322588762234
6.675496688741721,1.370894129856043
6.695364238410596,1.3654057505652817
6.715231788079469,1.3602942387562516
6.735099337748344,1.3555852425479038
6.754966887417219,1.351302752350027
6.774834437086093,1.3474689181575865
6.794701986754967,1.3441038749384198
6.814569536423841,1.3412255788938887
6.8344370860927155,1.3388496573515851
6.854304635761589,1.3369892749456054
6.874172185430464,1.335655018551015
6.894039735099337,1.3348548031656196
6.913907284768212,1.3345938005805558
6.933774834437086,1.3348743922612627
6.95364238410596,1.3356961473867022
6.973509933774834,1.337055826484113
6.993377483443709,1.3389474105694739
7.013245033112583,1.341362155180482
7.033112582781457,1.344288668189596
7.052980132450331,1.3477130098291479
7.072847682119205,1.3516188129641171
7.0927152317880795,1.3559874213242058
7.112582781456954,1.3607980431640716
7.132450331125828,1.3660279176621302
7.152317880794702,1.3716524912956585
7.172185430463576,1.377645601437292
7.19205298013245,1.383979664498912
7.211920529801324,1.3906258660934294
7.231788079470198,1.397554350880337
7.251655629139073,1.4047344099959782
7.271523178807947,1.4121346642303696
7.291390728476822,1.419723241388031
7.311258278145695,1.4274679465491975
7.33112582781457,1.4353364242208522
7.3509933774834435,1.4432963116266573
7.370860927152318,1.4513153826251028
7.390728476821192,1.4593616819619393
7.410596026490066,1.4674036497537386
7.430463576158941,1.475410236263059
7.450331125827814,1.4833510071622769
7.470198675496689,1.4911962395936915
7.490066225165562,1.4989170094196316
7.509933774834438,1.5064852701201892
7.52980132450331,1.5138739238403607
7.549668874172186,1.5210568851151747
7.569536423841059,1.5280091378139364
7.589403973509934,1.534706785844391
7.6092715231788075,1.5411270981482688
7.629139072847682,1.5472485485017613
7.649006622516557,1.5530508506112726
7.66887417218543,1.5585149889667975
7.6887417218543055,1.5636232458844184
7.708609271523178,1.5683592251371445
7.728476821192054,1.5727078725391077
7.748344370860927,1.5766554938148978
7.768211920529802,1.5801897700519212
7.788079470198675,1.5832997710008572
7.80794701986755,1.585975966457487
7.827814569536423,1.5882102359281542
7.847682119205298,1.589995876751539
7.8675496688741715,1.5913276108206083
7.887417218543046,1.5922015900212012
7.907284768211921,1.592615400476765
7.927152317880795,1.5925680656629762
7.9470198675496695,1.592060048430003
7.966887417218543,1.591093251945649
7.986754966887418,1.5896710195465378
8.006622516556291,1.5877981334600282
8.026490066225167,1.585480812333019
8.046357615894038,1.5827267074779874
8.066225165562914,1.5795448977187692
8.086092715231787,1.5759458826909092
8.105960264900663,1.5719415744213299
8.125827814569536,1.5675452869817836
8.14569536423841,1.5627717239781302
8.165562913907285,1.5576369636044447
8.185430463576159,1.5521584409560198
8.205298013245034,1.5463549272603476
8.225165562913906,1.5402465056486834
8.245033112582782,1.5338545430550943
8.264900662251655,1.5272016577942689
8.28476821192053,1.5203116823357297
8.304635761589404,1.513209620760791
8.324503311258278,1.5059216003618876
8.344370860927151,1.4984748168222488
8.364238410596027,1.4908974724007253
8.3841059602649,1.4832187065425246
8.403973509933774,1.4754685183451473
8.42384105960265,1.4676776803323808
8.443708609271523,1.4598776430300393
8.463576158940398,1.452100429898711
8.483443708609272,1.444378522263214
8.503311258278146,1.4367447339887043
8.52317880794702,1.429232075790897
8.543046357615895,1.4218736092341806
8.562913907284768,1.4147022906671554
8.582781456953642,1.4077508055685672
8.602649006622515,1.4010513940265883
8.62251655629139,1.3946356683456413
8.642384105960264,1.3885344240628414
8.66225165562914,1.3827774459515934
8.682119205298013,1.3773933108845047
8.701986754966887,1.3724091897089714
8.721854304635762,1.367850650545098
8.741721854304636,1.363741466132484
8.76158940397351,1.3601034280171287
8.781456953642383,1.356956170468992
8.801324503311259,1.3543170070439359
8.821192052980132,1.352200782641899
8.841059602649008,1.3506197437616663
8.86092715231788,1.3495834294105713
8.880794701986755,1.349098584798125
8.90066225165563,1.3491690995357843
8.920529801324504,1.3497959715919516
8.940397350993377,1.3509772977306769
8.960264900662251,1.3527082906134367
8.980132450331126,1.3549813221868654
9.0,1.3577859924392455
9.019867549668875,1.3611092221042276
9.039735099337747,1.3649353674417124
9.059602649006623,1.3692463548478309
9.079470198675496,1.3740218327501454
9.099337748344372,1.3792393380370191
9.119205298013245,1.3848744741532315
9.139072847682119,1.3909010979653
9.158940397350994,1.3972915125524605
9.178807947019868,1.4040166632038757
9.198675496688743,1.4110463340871924
9.218543046357615,1.4183493432850365
9.23841059602649,1.4258937341610645
9.258278145695364,1.4336469613023317
9.27814569536424,1.441576069578327
9.298013245033111,1.4496478651477807
9.317880794701987,1.4578290775243474
9.33774834437086,1.4660865120733049
9.357615894039736,1.4743871925495393
9.37748344370861,1.4826984934984164
9.397350993377483,1.4909882625238025
9.417218543046358,1.499224932581851
9.437086092715232,1.5073776245849007
9.456953642384107,1.5154162406995255
9.47682119205298,1.5233115487978217
9.496688741721854,1.5310352585744118
9.516556291390728,1.5385600898755625
9.536423841059603,1.5458598338048415
9.556291390728477,1.552909407173627
9.57615894039735,1.5596849008576454
9.596026490066224,1.5661636226046836
9.6158940397351,1.5723241348156174
9.635761589403973,1.5781462877931478
9.655629139072847,1.58361124892087
9.675496688741722,1.5887015282016996
9.695364238410596,1.593401000549642
9.715231788079471,1.5976949251934043
9.735099337748345,1.6015699625151678
9.754966887417218,1.605014188613335
9.774834437086092,1.6080171078442078
9.794701986754967,1.6105696635654438
9.814569536423841,1.6126642472725232
9.834437086092716,1.6142947062896844
9.854304635761588,1.6154563501478116
9.874172185430464,1.6161459557538915
9.894039735099337,1.6163617714295422
9.913907284768213,1.6161035198700247
9.933774834437086,1.615372400048749
9.95364238410596,1.6141710880667737
9.973509933774835,1.6125037369208626
9.993377483443709,1.6103759751371998
10.013245033112582,1.6077949041912571
10.033112582781456,1.604769094606484
10.052980132450331,1.6013085805956722
10.072847682119205,1.597424853079127
10.09271523178808,1.5931308508820763
10.112582781456952,1.5884409498811454
10.132450331125828,1.5833709498353143
10.152317880794701,1.577938058600919
10.172185430463577,1.5721608733933574
10.192052980132452,1.5660593587200438
10.211920529801324,1.559654820570542
10.2317880794702,1.5529698764117035
10.251655629139073,1.5460284204975403
10.271523178807948,1.5388555839686795
10.29139072847682,1.5314776891834663
10.311258278145695,1.5239221976958572
10.331125827814569,1.5162176512743761
10.350993377483444,1.508393605344995
10.370860927152318,1.5004805542405677
10.390728476821192,1.4925098476533456
10.410596026490065,1.484513597718133
10.43046357615894,1.4765245762047168
10.450331125827816,1.4685761013722909
10.470198675496688,1.460701914138663
10.490066225165563,1.4529360433455933
10.509933774834437,1.445312660060373
10.529801324503312,1.4378659210438527
10.549668874172186,1.4306298017367127
10.56953642384106,1.423637919366782
10.589403973509933,1.4169233470578206
10.609271523178808,1.4105184201192005
10.629139072847682,1.4044545360086966
10.649006622516556,1.3987619497785333
10.66887417218543,1.393469567125553
10.688741721854305,1.3886047374580237
10.70860927152318,1.3841930496490364
