Time (s),Filtered Signal
0.0,-0.030185384717952332
0.033370165745856356,-0.08858037869003758
0.06674033149171271,-0.14316230279489625
0.10011049723756907,-0.19125979507828186
0.13348066298342542,-0.23160767996880816
0.16685082872928178,-0.26371792667558797
0.20022099447513814,-0.28667205764865733
0.2335911602209945,-0.2981852148154772
0.26696132596685085,-0.2947446842125162
0.30033149171270723,-0.27306748074818576
0.33370165745856356,-0.23232439944314992
0.3670718232044199,-0.1759742170089154
0.4004419889502763,-0.11201976374967859
0.43381215469613266,-0.05114777029110145
0.467182320441989,-0.0032830422359811087
0.5005524861878453,0.025976072635531228
0.5339226519337017,0.03732814232442272
0.5672928176795581,0.0371025253073528
0.6006629834254145,0.03420576645770134
0.6340331491712707,0.03615061576270624
0.6674033149171271,0.04609453811175482
0.7007734806629835,0.0622384258128067
0.7341436464088398,0.07965625261842386
0.7675138121546962,0.09337119531433716
0.8008839779005525,0.10095469452661457
0.8342541436464089,0.103359253346141
0.8676243093922653,0.10380045284416806
0.9009944751381216,0.10561303113752825
0.934364640883978,0.11048244666902758
0.9677348066298344,0.11805045620713212
1.0011049723756906,0.1268949582798936
1.0344751381215471,0.13594321621035524
1.0678453038674034,0.14512391944307276
1.1012154696132597,0.15469587946223545
1.1345856353591162,0.1638035785171371
1.1679558011049724,0.169607897576173
1.201325966850829,0.1681599789364796
1.2346961325966852,0.15699665336593663
1.2680662983425415,0.1379614628178507
1.301436464088398,0.11806319114845806
1.3348066298342542,0.1069562176036707
1.3681767955801105,0.11160815729847613
1.401546961325967,0.13076686061621728
1.4349171270718233,0.15259882813496436
1.4682872928176796,0.15765972010107585
1.501657458563536,0.12665336847864664
1.5350276243093923,0.04967299721947913
1.5683977900552488,-0.06760736744480231
1.601767955801105,-0.20418490532157804
1.6351381215469614,-0.3307835993130447
1.6685082872928179,-0.42070655321045247
1.7018784530386741,-0.4595758907047538
1.7352486187845306,-0.44962850735181087
1.768618784530387,-0.40695364430010594
1.8019889502762432,-0.3534424594528438
1.8353591160220997,-0.30751631238823485
1.868729281767956,-0.2778350277824528
1.9020994475138122,-0.2622864142513035
1.9354696132596687,-0.25178596560474475
1.968839779005525,-0.23625851032656514
2.0022099447513813,-0.20962519740346597
2.0355801104972375,-0.17171213452589104
2.0689502762430942,-0.12691212433165416
2.1023204419889505,-0.08105422928526752
2.135690607734807,-0.03849234375930341
2.169060773480663,-0.0008289051259467684
2.2024309392265193,0.03252521611281899
2.235801104972376,0.06282509778974872
2.2691712707182323,0.09073967284534708
2.3025414364640886,0.11618394645842815
2.335911602209945,0.13917644610040958
2.369281767955801,0.16091637341580822
2.402651933701658,0.18410029349693888
2.436022099447514,0.21198775938548287
2.4693922651933704,0.24657782207127768
2.5027624309392267,0.28695339644527573
2.536132596685083,0.32893908630981206
2.5695027624309392,0.3665821573496821
2.602872928176796,0.3949104278297337
2.636243093922652,0.41253510855621217
2.6696132596685085,0.42251204437944867
2.7029834254143648,0.43065049356126506
2.736353591160221,0.4418437126183063
2.7697237569060777,0.45627309370297453
2.803093922651934,0.46774999914197846
2.8364640883977903,0.46562264231053757
2.8698342541436466,0.43984480692822714
2.903204419889503,0.3868432628297923
2.936574585635359,0.3128416696192573
2.969944751381216,0.23208039555653756
3.003314917127072,0.15984298868520086
3.0366850828729284,0.1032883740009165
3.0700552486187846,0.05511425637620673
3.103425414364641,-0.005407295412224655
3.1367955801104976,-0.10280037824062266
3.170165745856354,-0.2508337443345998
3.20353591160221,-0.44067961483926554
3.2369060773480665,-0.6398303947084427
3.2702762430939227,-0.8054825342779491
3.3036464088397794,-0.9083027392593277
3.3370165745856357,-0.9549651717193747
3.370386740331492,-0.9951721539530685
3.4037569060773483,-1.1039655642491337
3.4371270718232045,-1.342062714924082
3.4704972375690613,-1.710473779532033
3.5038674033149175,-2.123293654048999
3.537237569060774,-2.4184924115918545
3.57060773480663,-2.4104643629231264
3.6039779005524863,-1.9666855839629018
3.6373480662983426,-1.0751552262511692
3.6707182320441993,0.1309208228160962
3.7040883977900556,1.4072618338992124
3.737458563535912,2.48007582912786
3.770828729281768,3.1404989696684797
3.8041988950276244,3.311080783496705
3.837569060773481,3.0574799571732254
3.8709392265193374,2.5449132598286486
3.9043093922651937,1.9635139776840003
3.93767955801105,1.4575833021385098
3.9710497237569062,1.0871172791068486
4.0044198895027625,0.8314735294927613
4.037790055248619,0.6250723573315172
4.071160220994475,0.4030464826198473
4.104530386740332,0.13481979562604587
4.1379005524861885,-0.1665386019418289
4.171270718232044,-0.4579905344686712
4.204640883977901,-0.6919175624736434
4.238011049723757,-0.8389654810511684
4.271381215469614,-0.8982536736896634
4.30475138121547,-0.8928089701932062
4.338121546961326,-0.8553875443438824
4.371491712707183,-0.8132293595455224
4.404861878453039,-0.7789503019363277
4.438232044198895,-0.7503178610815587
4.471602209944752,-0.716857900451608
4.504972375690608,-0.6684877534831882
4.538342541436465,-0.6015590607057438
4.5717127071823205,-0.520080516300344
4.605082872928177,-0.43280219170389456
4.638453038674034,-0.3487070901334755
4.67182320441989,-0.2735737644860074
4.7051933701657465,-0.20899447311758917
4.738563535911602,-0.15355550506739926
4.771933701657459,-0.10480566148789454
4.805303867403316,-0.0606179033863739
4.8386740331491715,-0.01936559109519817
4.872044198895028,0.020673026023680572
4.905414364640884,0.0617519932882516
4.938784530386741,0.10623023232315981
4.972154696132597,0.15530865823783746
5.005524861878453,0.2076781909237643
5.03889502762431,0.259042947392665
5.072265193370166,0.3030618538082505
5.105635359116023,0.33345881900349955
5.1390055248618784,0.34637116925505596
5.172375690607735,0.3418328037945914
5.205745856353592,0.3237025262770705
5.239116022099448,0.29810051569150614
5.272486187845304,0.27110111522731056
5.30585635359116,0.2467144043659591
5.339226519337017,0.2259684718757949
5.372596685082874,0.2073287100135146
5.4059668508287295,0.1880654625853194
5.439337016574586,0.16580873981182387
5.472707182320442,0.13956246971534633
5.506077348066299,0.10983383504573757
5.5394475138121555,0.07803809060028735
5.572817679558011,0.045688497590180906
5.606187845303868,0.01389390508261213
5.639558011049724,-0.01661781616383316
5.672928176795581,-0.04513997898468368
5.706298342541437,-0.07071390675922966
5.739668508287293,-0.09226818606380403
5.77303867403315,-0.10914229329955032
5.806408839779006,-0.12161097521104286
5.839779005524862,-0.13093097743134766
5.873149171270718,-0.13869087955791112
5.906519337016575,-0.1457144155890522
5.939889502762432,-0.15114792240376604
5.9732596685082875,-0.1523795835244381
6.006629834254144,-0.14602653162590432
6.04,-0.12959873452276338
6.073370165745857,-0.10299030019535288
6.1067403314917135,-0.06897401341350293
6.140110497237569,-0.03240618753438337
6.173480662983426,0.0014227308064273525
6.206850828729282,0.02838555049300678
6.240220994475139,0.046249648058134626
6.273591160220995,0.05432918447206337
6.306961325966851,0.052559785936321414
6.340331491712708,0.04084193618681645
6.373701657458564,0.019235769095278875
6.40707182320442,-0.011096881582550495
6.440441988950277,-0.04693074810592394
6.473812154696133,-0.08284021332282036
6.50718232044199,-0.11225755410168113
6.5405524861878455,-0.12935624829562112
6.573922651933702,-0.1308744645900583
6.607292817679559,-0.11701973753012189
6.640662983425415,-0.09110777436190572
6.674033149171271,-0.058237987138915065
6.707403314917127,-0.023708810047769098
6.740773480662984,0.008159557815539425
6.774143646408841,0.03450592774656201
6.8075138121546965,0.05386656052949824
6.840883977900553,0.06595380138001236
6.874254143646409,0.07155860453611262
6.907624309392266,0.07255054013996967
6.9409944751381225,0.07168982527880605
6.974364640883978,0.07198465228913958
7.007734806629835,0.07564583047774084
7.041104972375691,0.08309047599358133
7.074475138121548,0.09260576772327302
7.107845303867403,0.10101557227302814
7.14121546961326,0.10511269035613094
7.174585635359117,0.10310286318169423
7.207955801104973,0.09523563353461122
7.241325966850829,0.08327131726217929
7.274696132596685,0.06916849394936027
7.308066298342542,0.05388395612649198
7.341436464088399,0.03710078039866871
7.3748066298342545,0.018068161469424405
7.408176795580111,-0.0030459510930915894
7.441546961325967,-0.02429696109355329
7.474917127071824,-0.04234154075324361
7.5082872928176805,-0.0539869039385388
7.541657458563536,-0.058014133883810055
7.575027624309393,-0.05608509615656596
7.608397790055249,-0.05202758427482959
7.641767955801106,-0.049783619703223474
7.675138121546962,-0.05117648054899579
7.708508287292818,-0.054833221440288085
7.741878453038675,-0.056954677279385704
7.775248618784531,-0.05354379705062522
7.808618784530387,-0.04284709873559453
7.841988950276244,-0.026640553247483816
7.8753591160221,-0.009645483237125057
7.908729281767957,0.0026182396742240005
7.9420994475138125,0.006424585967371357
7.975469613259669,0.0015692851213695805
8.008839779005525,-0.008604918711287138
8.042209944751383,-0.01886227213942853
8.075580110497238,-0.024563826454399102
8.108950276243094,-0.02376139563001325
8.14232044198895,-0.017890180066465512
8.175690607734808,-0.010780419844309152
8.209060773480664,-0.0065619882745866255
8.24243093922652,-0.007569327568893112
8.275801104972377,-0.013288522829100381
8.309171270718233,-0.020778574579642252
8.342541436464089,-0.02620711880424643
8.375911602209946,-0.026619214022824723
8.409281767955802,-0.021071369626509903
8.442651933701658,-0.010733623210622925
8.476022099447514,0.0018542842487149361
8.509392265193371,0.013846962758407938
8.542762430939227,0.02298567092688924
8.576132596685083,0.028093455735910645
8.60950276243094,0.02919770423326102
8.642872928176796,0.02738833291273349
8.676243093922652,0.024472001840860794
8.709613259668508,0.02244069943257395
8.742983425414366,0.02282759819836524
8.776353591160222,0.02613896763328625
8.809723756906077,0.031611268411314765
8.843093922651935,0.037458875115231965
8.87646408839779,0.041565652568573565
8.909834254143647,0.04234360259516992
8.943204419889504,0.03936916580012975
8.97657458563536,0.033489831226412005
9.009944751381216,0.026341038250824136
9.043314917127072,0.019502630346145768
9.07668508287293,0.013708684270681028
9.110055248618785,0.008515195669473627
9.143425414364641,0.0026309463773378124
9.176795580110499,-0.005192263867635843
9.210165745856354,-0.015111545867678846
9.24353591160221,-0.025540076908404617
9.276906077348068,-0.03334230056208846
9.310276243093924,-0.034970073503631516
9.34364640883978,-0.028150986813851756
9.377016574585635,-0.013379154973140565
9.410386740331493,0.005566501119054828
9.443756906077349,0.022489370399995823
9.477127071823205,0.03084187740202956
9.510497237569062,0.026243545059099985
9.543867403314918,0.008433421156558618
9.577237569060774,-0.01820546653180517
9.610607734806631,-0.04588052354475511
9.643977900552487,-0.06601060151201711
9.677348066298343,-0.0722752138435989
9.710718232044199,-0.06292053801122144
9.744088397790057,-0.04141726401418166
9.777458563535912,-0.01520917661036508
9.810828729281768,0.006959448739213251
9.844198895027626,0.01811205319993707
9.877569060773482,0.015366084866077356
9.910939226519337,0.0007127311450304975
9.944309392265193,-0.019940747556202336
9.97767955801105,-0.03901579903397897
10.011049723756907,-0.04991007249850458
10.044419889502763,-0.04907807446241724
10.07779005524862,-0.03685560714564011
10.111160220994476,-0.016867918830714486
10.144530386740332,0.005580380411913063
10.17790055248619,0.02539105383048539
10.211270718232045,0.03910611926558908
10.244640883977901,0.045497532302244945
10.278011049723757,0.04536330353135475
10.311381215469615,0.040875879630524095
10.34475138121547,0.03484483390446836
10.378121546961326,0.03006610254163587
10.411491712707184,0.028737317368969877
10.44486187845304,0.0318901034513275
10.478232044198895,0.0389313096646831
10.511602209944753,0.047547117580253095
10.544972375690609,0.05422388985766427
10.578342541436465,0.055403088646012684
10.61171270718232,0.048917291866921064
10.645082872928178,0.03507931691798838
10.678453038674034,0.01682894543900928
10.71182320441989,-0.0012720487926097537
10.745193370165747,-0.014840105091131215
10.778563535911603,-0.021470418096246953
10.811933701657459,-0.02169033825384242
10.845303867403315,-0.018602815750603647
10.878674033149172,-0.016386672111200425
10.912044198895028,-0.018364936736996528
10.945414364640884,-0.02553025394955913
10.978784530386742,-0.03615382930941791
11.012154696132598,-0.046570089427865995
11.045524861878453,-0.05271786060215376
11.078895027624311,-0.051765947198202954
11.112265193370167,-0.043212100175413874
11.145635359116023,-0.029113240514188742
11.179005524861878,-0.01342595408649766
11.212375690607736,-0.0007043423351830015
11.245745856353592,0.005420048229002679
11.279116022099448,0.0034779925290895734
11.312486187845305,-0.005317777462173016
11.345856353591161,-0.017497028387738468
11.379226519337017,-0.028582931221253768
11.412596685082875,-0.03470590401876371
11.44596685082873,-0.0339362688103432
11.479337016574586,-0.026791417042828038
11.512707182320442,-0.01572865902255322
11.5460773480663,-0.003884505231005109
11.579447513812156,0.006345981778798149
11.612817679558011,0.014234521840754815
11.646187845303869,0.02073613255240291
11.679558011049725,0.027624101807695204
11.71292817679558,0.03620639518608897
11.746298342541436,0.046299321819514384
11.779668508287294,0.056005200523169735
11.81303867403315,0.06242704671281972
11.846408839779006,0.06297060686676559
11.879779005524863,0.05658907233019768
11.91314917127072,0.04436821559124695
11.946519337016575,0.029189146820159568
11.979889502762433,0.014646351971231012
12.013259668508288,0.0037128088580898155
12.046629834254144,-0.0022979448183615718
12.08,-0.004100453136335523
12.113370165745858,-0.004051972105989602
12.146740331491714,-0.005190652063442859
12.18011049723757,-0.01003713775069014
12.213480662983427,-0.019552506877398183
12.246850828729283,-0.03260400454831083
12.280220994475139,-0.046159141500196815
12.313591160220996,-0.05621219710884839
12.346961325966852,-0.05918327864367215
12.380331491712708,-0.053308883307748814
12.413701657458564,-0.03947437423896431
12.447071823204421,-0.021089456081018004
12.480441988950277,-0.002953188061266788
12.513812154696133,0.010522854671976545
12.54718232044199,0.017040386859543566
12.580552486187846,0.017334651056399707
12.613922651933702,0.014808833966713127
12.64729281767956,0.013933839496072081
12.680662983425416,0.01803509525675982
12.714033149171271,0.02743545614275712
12.747403314917127,0.03886450345280079
12.780773480662985,0.04656121943712161
12.81414364640884,0.044755312981467725
12.847513812154697,0.03051784161290993
12.880883977900554,0.005661071437186801
12.91425414364641,-0.023345183436363496
12.947624309392266,-0.047637011776336675
12.980994475138122,-0.05955445030631382
13.01436464088398,-0.05598908210639802
13.047734806629835,-0.03987290194696523
13.081104972375691,-0.0189785815897129
13.114475138121549,-0.0024560756908139788
13.147845303867404,0.00333898130748231
13.18121546961326,-0.002252775663433391
13.214585635359118,-0.013995045162910792
13.247955801104974,-0.02340647274215853
13.28132596685083,-0.023008208933391065
13.314696132596685,-0.010109835714952768
13.348066298342543,0.011718068750400377
13.381436464088399,0.03421702623647854
13.414806629834255,0.04831816889197772
13.448176795580112,0.04847513748027277
13.481546961325968,0.035383174283042024
13.514917127071824,0.01577119639241833
13.548287292817681,-0.0006762422181694265
13.581657458563537,-0.005858670052255899
13.615027624309393,0.002858341894319571
13.648397790055249,0.021267713789868317
13.681767955801106,0.04014780278562287
13.715138121546962,0.049473439596191486
13.748508287292818,0.04304037611942511
13.781878453038676,0.021321941525886772
13.815248618784532,-0.008765184832666004
13.848618784530387,-0.0370022182827458
13.881988950276245,-0.054341189449826
13.9153591160221,-0.056562805038809116
13.948729281767957,-0.045486165052052045
13.982099447513813,-0.02738782614704752
14.01546961325967,-0.009659794450653387
14.048839779005526,0.0025077354677245905
14.082209944751382,0.007831312057558836
14.11558011049724,0.008421487331609669
14.148950276243095,0.007650857103731637
14.182320441988951,0.007781702362796292
14.215690607734807,0.008704502697251097
14.249060773480664,0.008377327016013672
14.28243093922652,0.004534545631786163
14.315801104972376,-0.003461482075227096
14.349171270718234,-0.013757740147993516
14.38254143646409,-0.0226359741133795
14.415911602209945,-0.026256338059606147
14.449281767955803,-0.022544712518211458
14.482651933701659,-0.012219669295739382
14.516022099447515,0.0015315396079810812
14.54939226519337,0.014486080507554221
14.582762430939228,0.02314402011415933
14.616132596685084,0.02594606228112321
14.64950276243094,0.023461285040340903
14.682872928176797,0.01764559638044879
14.716243093922653,0.010730630633372894
14.749613259668509,0.004384991153088026
14.782983425414367,-0.0005121649926092828
14.816353591160222,-0.003601742668794394
14.849723756906078,-0.004694546100918466
14.883093922651934,-0.0037102417246959426
14.916464088397792,-0.0009507486689661143
14.949834254143648,0.0025901592759673825
14.983204419889503,0.005275607829757742
15.016574585635361,0.005396485779178974
15.049944751381217,0.0020320585163140733
15.083314917127073,-0.004307050848973935
15.116685082872928,-0.011707093216830755
15.150055248618786,-0.017636645834834944
15.183425414364642,-0.020120594477652874
15.216795580110498,-0.018679157228945933
15.250165745856355,-0.014516370300362338
15.283535911602211,-0.009853019951690314
15.316906077348067,-0.006771620724451153
15.350276243093925,-0.0062019555883085125
15.38364640883978,-0.007577502745785343
15.417016574585636,-0.009297084578108761
15.450386740331492,-0.009666443131353451
15.48375690607735,-0.007743306317119392
15.517127071823205,-0.0036140933571882313
15.550497237569061,0.001981828976055394
15.583867403314919,0.00834485869051119
15.617237569060775,0.01530761019890691
15.65060773480663,0.02317704072486433
15.683977900552488,0.032172658059189
15.717348066298344,0.04176450650048433
15.7507182320442,0.05039527916838294
15.784088397790056,0.05582646004969441
15.817458563535913,0.05594969897897794
15.85082872928177,0.049621455608045525
15.884198895027625,0.0370907277696714
15.917569060773483,0.0198638630007136
15.950939226519338,0.00017864530184613975
15.984309392265194,-0.019579909993546585
16.01767955801105,-0.0372730472568185
16.051049723756908,-0.051181233802785935
16.084419889502765,-0.06009251509691764
16.11779005524862,-0.06343554281134385
16.151160220994477,-0.061441677859304156
16.18453038674033,-0.0551834566255857
16.21790055248619,-0.046341113520415006
16.251270718232046,-0.03670766760996219
16.2846408839779,-0.0276374567153354
16.318011049723758,-0.019715974278710947
16.351381215469615,-0.012810120801663676
16.38475138121547,-0.006422696244611191
16.418121546961327,-9.112879836698977e-05
16.451491712707185,0.0064258321627755416
16.48486187845304,0.013238403095215819
16.518232044198896,0.020520766066492897
16.551602209944754,0.028538084615601884
16.584972375690608,0.037356601399599475
16.618342541436466,0.04635799681012638
16.651712707182323,0.053903435115949784
16.685082872928177,0.057499840887150884
16.718453038674035,0.054581468413271605
16.751823204419892,0.04366625735582173
16.785193370165747,0.025382693792316037
16.818563535911604,0.0028354804088743368
16.851933701657458,-0.018995562892706583
16.885303867403316,-0.034743374462133915
16.918674033149173,-0.04054888290354822
16.952044198895027,-0.03562630971900724
16.985414364640885,-0.022781749729117617
