Frequency (Hz),Amplitude
0.0,5.826194312984886
0.019867549668874173,5.825117299050604
0.039735099337748346,5.821889272554808
0.059602649006622516,5.81651927969397
0.07947019867549669,5.809022398337756
0.09933774834437085,5.799419739192792
0.11920529801324503,5.787738447129069
0.13907284768211922,5.774011702357695
0.15894039735099338,5.758278721047593
0.17880794701986755,5.740584754858102
0.1986754966887417,5.720981088743633
0.2185430463576159,5.699525036251104
0.23841059602649006,5.676279931381968
0.2582781456953642,5.651315115923649
0.27814569536423844,5.624705920970716
0.2980132450331126,5.596533641151228
0.31788079470198677,5.566885499849325
0.33774834437086093,5.535854603468876
0.3576158940397351,5.503539882517763
0.3774834437086093,5.470046017007862
0.3973509933774834,5.435483343365999
0.4172185430463576,5.399967739740312
0.4370860927152318,5.363620486270716
0.45695364238410596,5.326568096581389
0.4768211920529801,5.288942116457353
0.49668874172185434,5.250878885402893
0.5165562913907285,5.212519256562925
0.5364238410596026,5.174008270342239
0.5562913907284769,5.135494777006232
0.5761589403973509,5.0971310036188875
0.5960264900662252,5.059072060899379
0.6158940397350993,5.021475385991798
0.6357615894039735,4.984500117773721
0.6556291390728477,4.948306402209923
0.6754966887417219,4.913054626413297
0.695364238410596,4.878904581521788
0.7152317880794702,4.846014556244953
0.7350993377483444,4.814540364965065
0.7549668874172186,4.7846343165655965
0.7748344370860927,4.756444132652438
0.7947019867549668,4.730111826451304
0.8145695364238411,4.705772556306865
0.8344370860927152,4.683553470248034
0.8543046357615894,4.6635725603762435
0.8741721854304636,4.645937547722394
0.8940397350993378,4.630744819550345
0.9139072847682119,4.618078441714791
0.9337748344370861,4.608009268494038
0.9536423841059603,4.600594171235954
0.9735099337748344,4.595875405152929
0.9933774834437087,4.593880130712861
1.0132450331125828,4.594620102394446
1.033112582781457,4.598091533261509
1.0529801324503312,4.604275139067167
1.0728476821192052,4.613136360663431
1.0927152317880795,4.6246257586205894
1.1125827814569538,4.638679569402096
1.1324503311258278,4.6552204084192335
1.1523178807947019,4.67415810198744
1.1721854304635762,4.695390627748717
1.1920529801324504,4.718805141578093
1.2119205298013245,4.744279068359908
1.2317880794701985,4.771681234249834
1.2516556291390728,4.800873019032346
1.271523178807947,4.831709508809746
1.2913907284768211,4.864040631366376
1.3112582781456954,4.897712258983986
1.3311258278145695,4.932567266089806
1.3509933774834437,4.968446531762475
1.370860927152318,5.005189879686381
1.390728476821192,5.042636950543307
1.410596026490066,5.080628003994927
1.4304635761589404,5.119004649300439
1.4503311258278146,5.157610505210321
1.4701986754966887,5.196291791077533
1.4900662251655628,5.23489785214398
1.5099337748344372,5.273281622713055
1.5298013245033113,5.311300031438422
1.5496688741721854,5.348814353275262
1.5695364238410596,5.385690512786004
1.5894039735099337,5.4217993435003216
1.609271523178808,5.4570168079273635
1.6291390728476822,5.49122418263515
1.6490066225165563,5.524308212569163
1.6688741721854303,5.556161238501014
1.6887417218543048,5.58668130119339
1.7086092715231789,5.615772225553206
1.728476821192053,5.6433436877312255
1.7483443708609272,5.669311267820651
1.7682119205298013,5.693596490514471
1.7880794701986755,5.716126855806809
1.8079470198675496,5.736835861567408
1.8278145695364238,5.755663019583375
1.847682119205298,5.772553866447584
1.8675496688741722,5.78745997047887
1.8874172185430464,5.800338935683294
1.9072847682119205,5.811154403608296
1.9271523178807946,5.819876053799122
1.9470198675496688,5.826479603439715
1.9668874172185429,5.830946806643764
1.9867549668874174,5.833265453756855
2.0066225165562916,5.833429370932456
2.0264900662251657,5.831438420153882
2.0463576158940397,5.827298499786383
2.066225165562914,5.821021545658743
2.086092715231788,5.812625532588132
2.1059602649006623,5.802134476174859
2.1258278145695364,5.789578434602029
2.1456953642384105,5.774993510077825
2.165562913907285,5.758421849452299
2.185430463576159,5.739911643424836
2.205298013245033,5.719517123630387
2.2251655629139075,5.697298556750583
2.2450331125827816,5.673322234637543
2.2649006622516556,5.647660459262953
2.2847682119205297,5.620391521109745
2.3046357615894038,5.591599669409413
2.324503311258278,5.561375072392337
2.3443708609271523,5.529813765462678
2.364238410596027,5.497017584934155
2.384105960264901,5.463094084670678
2.403973509933775,5.428156432669823
2.423841059602649,5.392323284313224
2.443708609271523,5.355718628693924
2.463576158940397,5.3184716041263425
2.4834437086092715,5.280716278662898
2.5033112582781456,5.24259139119954
2.52317880794702,5.204240048568783
2.543046357615894,5.165809373918146
2.562913907284768,5.127450101679488
2.5827814569536423,5.089316114581091
2.6026490066225163,5.051563918470847
2.622516556291391,5.014352051237706
2.642384105960265,4.9778404228723225
2.662251655629139,4.9421895847233746
2.6821192052980134,4.907559927305751
2.7019867549668874,4.874110807612352
2.7218543046357615,4.841999608770317
2.741721854304636,4.811380737045055
2.76158940397351,4.782404563591039
2.781456953642384,4.755216320910969
2.801324503311258,4.729954966625575
2.821192052980132,4.706752029758837
2.8410596026490067,4.685730457173576
2.8609271523178808,4.667003479898624
2.8807947019867552,4.650673520714875
2.9006622516556293,4.636831165363286
2.9205298013245033,4.625554219971954
2.9403973509933774,4.6169068766731325
2.9602649006622515,4.610939007843212
2.9801324503311255,4.607685606951664
3.0,4.607166390714498
3.0198675496688745,4.609385573239281
3.0397350993377485,4.614331818303011
3.0596026490066226,4.621978371044805
3.0794701986754967,4.632283365429822
3.0993377483443707,4.645190299104575
3.119205298013245,4.6606286629534
3.1390728476821192,4.6785147089874215
3.1589403973509933,4.698752337304575
3.1788079470198674,4.721234080849398
3.198675496688742,4.745842165608566
3.218543046357616,4.772449623678302
3.23841059602649,4.800921437255797
3.2582781456953644,4.831115692924339
3.2781456953642385,4.86288472747691
3.2980132450331126,4.8960762488022995
3.3178807947019866,4.930534417885794
3.3377483443708607,4.966100880608995
3.3576158940397347,5.002615740645237
3.3774834437086096,5.039918467234354
3.3973509933774837,5.077848733906463
3.4172185430463577,5.116247186255178
3.437086092715232,5.15495613860626
3.456953642384106,5.193820200877355
3.47682119205298,5.232686838083026
3.4966887417218544,5.271406865824103
3.5165562913907285,5.3098348857360325
3.5364238410596025,5.347829665288103
3.556291390728477,5.385254466555478
3.576158940397351,5.4219773286626145
3.596026490066225,5.457871308548589
3.615894039735099,5.492814684562316
3.6357615894039736,5.526691127182329
3.6556291390728477,5.559389840893258
3.6754966887417218,5.590805680958485
3.695364238410596,5.620839248518448
3.7152317880794703,5.649396967130517
3.7350993377483444,5.676391143556155
3.754966887417219,5.70174001530224
3.774834437086093,5.7253677871396915
3.794701986754967,5.747204658557073
3.814569536423841,5.767186843861526
3.834437086092715,5.785256586414507
3.854304635761589,5.8013621682849
3.8741721854304636,5.81545791641767
3.8940397350993377,5.82750420624871
3.9139072847682117,5.837467463547178
3.9337748344370858,5.845320165131395
3.9536423841059607,5.851040838982253
3.9735099337748347,5.854614064167774
3.993377483443709,5.8560304708905235
4.013245033112583,5.855286740874976
4.033112582781457,5.852385608222737
4.052980132450331,5.8473358607767745
4.072847682119205,5.840152341950433
4.0927152317880795,5.830855952890541
4.112582781456953,5.819473654754239
4.132450331125828,5.806038470784627
4.152317880794702,5.79058948776849
4.172185430463576,5.773171856348277
4.19205298013245,5.753836789538816
4.211920529801325,5.73264155866344
4.231788079470199,5.709649485774466
4.251655629139073,5.684929931455798
4.271523178807947,5.658558276719802
4.291390728476821,5.630615897506353
4.311258278145695,5.601190130066113
4.33112582781457,5.570374225264901
4.3509933774834435,5.53826728958024
4.370860927152318,5.504974210277157
4.390728476821192,5.470605561951408
4.410596026490066,5.435277491318236
4.43046357615894,5.3991115768108635
4.450331125827815,5.362234659243339
4.470198675496689,5.324778639499806
4.490066225165563,5.286880238949887
4.509933774834438,5.248680718076979
4.529801324503311,5.210325548663885
4.549668874172186,5.171964034832521
4.569536423841059,5.133748878310971
4.589403973509934,5.0958356835313685
4.6092715231788075,5.058382398578227
4.629139072847682,5.0215486886421115
4.649006622516556,4.985495239516046
4.66887417218543,4.95038298982862
4.688741721854305,4.916372292153667
4.708609271523179,4.88362200487812
4.728476821192054,4.852288518734582
4.748344370860927,4.822524724185829
4.768211920529802,4.7944789283287195
4.788079470198675,4.768293732590743
4.80794701986755,4.744104885118948
4.827814569536423,4.722040124284312
4.847682119205298,4.702218032001557
4.867549668874172,4.684746917440201
4.887417218543046,4.669723753024333
4.9072847682119205,4.657233185244255
4.927152317880794,4.647346642616805
4.947019867549669,4.640121562057684
4.966887417218543,4.63560075294252
4.986754966887418,4.6338119152674935
5.006622516556291,4.6347673246705545
5.026490066225166,4.638463692792666
5.04635761589404,4.644882206749148
5.066225165562914,4.653988746578143
5.086092715231788,4.665734274690773
5.105960264900662,4.680055386811061
5.125827814569536,4.696875009886165
5.14569536423841,4.71610322914961
5.1655629139072845,4.737638224057911
5.185430463576159,4.761367291260606
5.205298013245033,4.787167932110284
5.225165562913908,4.814908982422354
5.245033112582782,4.844451763157867
5.264900662251656,4.875651232297456
5.28476821192053,4.908357120251487
5.304635761589404,4.9424150335557995
5.324503311258278,4.977667514184167
5.344370860927152,5.013955044432956
5.364238410596027,5.051116989885025
5.3841059602649,5.088992475349188
5.403973509933775,5.1274211908326395
5.4238410596026485,5.166244126494261
5.443708609271523,5.205304237127306
5.463576158940397,5.244447038026805
5.483443708609272,5.283521135121204
5.503311258278146,5.3223786930108865
5.52317880794702,5.360875845084891
5.543046357615895,5.3988730502136875
5.562913907284768,5.43623540067086
5.582781456953643,5.472832885953452
5.602649006622516,5.508540617077181
5.622516556291391,5.5432390157463365
5.642384105960264,5.5768139725619745
5.662251655629139,5.60915697815544
5.682119205298013,5.640165230834044
5.701986754966887,5.669741724014794
5.7218543046357615,5.697795316410624
5.741721854304636,5.724240787629779
5.7615894039735105,5.7489988815576005
5.781456953642384,5.771996339615961
5.801324503311259,5.79316592573969
5.821192052980132,5.812446444674606
5.841059602649007,5.829782754986322
5.860927152317881,5.84512577797439
5.880794701986755,5.858432503509691
5.900662251655629,5.869665993654688
5.920529801324503,5.878795384782902
5.940397350993377,5.885795888785293
5.960264900662251,5.890648793834394
5.980132450331126,5.893341465070456
6.0,5.893867345475079
6.0198675496688745,5.892225957105532
6.039735099337749,5.888422902774448
6.059602649006623,5.882469868172937
6.079470198675497,5.874384624348918
6.099337748344371,5.864191030363761
6.119205298013245,5.851919035857938
6.139072847682119,5.837604683157418
6.158940397350993,5.821290108446041
6.178807947019867,5.803023541411941
6.198675496688741,5.782859302647189
6.218543046357616,5.7608577979365645
6.23841059602649,5.737085508412601
6.258278145695365,5.711614975377548
6.2781456953642385,5.6845247783976145
6.298013245033113,5.655899505059867
6.317880794701987,5.625829710546532
6.337748344370861,5.59441186492617
6.357615894039735,5.56174828578653
6.377483443708609,5.527947053542935
6.397350993377484,5.493121906451929
6.417218543046357,5.45739211204876
6.437086092715232,5.420882311416394
6.456953642384105,5.383722332393658
6.47682119205298,5.34604696755354
6.496688741721854,5.307995712546478
6.516556291390729,5.269712460226738
6.5364238410596025,5.231345145885988
6.556291390728477,5.193045338933694
6.5761589403973515,5.154967776517666
6.596026490066225,5.117269834901624
6.6158940397351,5.080110934942155
6.635761589403973,5.043651878765448
6.655629139072848,5.008054115762039
6.675496688741721,4.973478937317578
6.695364238410596,4.940086601287964
6.715231788079469,4.908035389108114
6.735099337748344,4.877480600572843
6.754966887417219,4.848573493705257
6.774834437086093,4.821460179668875
6.794701986754967,4.796280485293236
6.814569536423841,4.773166798357813
6.8344370860927155,4.752242913179699
6.854304635761589,4.733622896130652
6.874172185430464,4.717409992313222
6.894039735099337,4.703695595607047
6.913907284768212,4.692558304525922
6.933774834437086,4.684063085707704
6.95364238410596,4.678260565340898
6.973509933774834,4.6751864664180545
6.993377483443709,4.674861206459093
7.013245033112583,4.677289666391755
7.033112582781457,4.682461136787731
7.052980132450331,4.6903494428505
7.072847682119205,4.700913244678813
7.0927152317880795,4.71409650463671
7.112582781456954,4.729829109382759
7.132450331125828,4.74802763044873
7.152317880794702,4.768596204365984
7.172185430463576,4.791427511312985
7.19205298013245,4.816403830135778
7.211920529801324,4.843398147353416
7.231788079470198,4.872275298329321
7.251655629139073,4.902893120055428
7.271523178807947,4.935103596820473
7.291390728476822,4.968753982264007
7.311258278145695,5.0036878838040995
7.33112582781457,5.039746298023378
7.3509933774834435,5.076768588183387
7.370860927152318,5.114593397506738
7.390728476821192,5.153059494142171
7.410596026490066,5.1920065457561515
7.430463576158941,5.231275823444055
7.450331125827814,5.270710836112501
7.470198675496689,5.3101578976554675
7.490066225165562,5.3494666301463365
7.509933774834438,5.388490406920364
7.52980132450331,5.4270867398552465
7.549668874172186,5.465117615404468
7.569536423841059,5.502449784029069
7.589403973509934,5.538955007640213
7.6092715231788075,5.574510269534255
7.629139072847682,5.608997951099398
7.649006622516557,5.642305979319771
7.66887417218543,5.674327948816956
7.6887417218543055,5.704963221865598
7.708609271523178,5.734117009509657
7.728476821192054,5.761700436599996
7.748344370860927,5.78763059327652
7.768211920529802,5.811830575136101
7.788079470198675,5.834229514062663
7.80794701986755,5.8547626014502825
7.827814569536423,5.8733711053247895
7.847682119205298,5.890002382663955
7.8675496688741715,5.9046098880300635
7.887417218543046,5.9171531794605405
7.907284768211921,5.927597922410907
7.927152317880795,5.935915892407503
7.9470198675496695,5.94208497694379
7.966887417218543,5.94608917704177
7.986754966887418,5.947918608796243
8.006622516556291,5.947569505123395
8.026490066225167,5.945044217844186
8.046357615894038,5.940351220144014
8.066225165562914,5.933505109363698
8.086092715231787,5.924526609987762
8.105960264900663,5.913442576605318
8.125827814569536,5.90028599652189
8.14569536423841,5.885095991597434
8.165562913907285,5.867917818773307
8.185430463576159,5.84880286862684
8.205298013245034,5.827808661156204
8.225165562913906,5.804998837846136
8.245033112582782,5.780443148897572
8.264900662251655,5.754217434317698
8.28476821192053,5.726403597361983
8.304635761589404,5.697089568594309
8.324503311258278,5.66636925858633
8.344370860927151,5.634342497012413
8.364238410596027,5.601114955614775
8.3841059602649,5.5667980522168214
8.403973509933774,5.531508832656195
8.42384105960265,5.495369827200179
8.443708609271523,5.458508877701848
8.463576158940398,5.42105893147008
8.483443708609272,5.383157797571977
8.503311258278146,5.344947861082785
8.52317880794702,5.3065757506656
8.543046357615895,5.268191954826643
8.562913907284768,5.229950382278593
8.582781456953642,5.192007862085286
8.602649006622515,5.154523579686492
8.62251655629139,5.117658445543634
8.642384105960264,5.081574394034181
8.66225165562914,5.046433611379104
8.682119205298013,5.012397692828693
8.701986754966887,4.979626731062613
8.721854304635762,4.9482783397680485
8.741721854304636,4.918506618614959
8.76158940397351,4.890461068297428
8.781456953642383,4.864285466878543
8.801324503311259,4.840116721261728
8.821192052980132,4.818083710092946
8.841059602649008,4.798306136633948
8.86092715231788,4.780893411987521
8.880794701986755,4.765943590351618
8.90066225165563,4.753542378591892
8.920529801324504,4.743762242239423
8.940397350993377,4.736661628968592
8.960264900662251,4.7322843286633445
8.980132450331126,4.730658986372144
9.0,4.731798780873233
9.019867549668875,4.735701277371616
9.039735099337747,4.742348458223307
9.059602649006623,4.751706930760587
9.079470198675496,4.763728306519496
9.099337748344372,4.77834974168909
9.119205298013245,4.795494624628708
9.139072847682119,4.815073393013328
9.158940397350994,4.836984460693179
9.178807947019868,4.861115232760932
9.198675496688743,4.88734318661544
9.218543046357615,4.915536996950599
9.23841059602649,4.945557683489113
9.258278145695364,4.977259761801882
9.27814569536424,5.01049237955827
9.298013245033111,5.045100422891845
9.317880794701987,5.080925580091944
9.33774834437086,5.117807352411498
9.357615894039736,5.155584004301788
9.37748344370861,5.194093447754176
9.397350993377483,5.233174057581798
9.417218543046358,5.272665416366589
9.437086092715232,5.312408989407116
9.456953642384107,5.352248731325422
9.47682119205298,5.392031627035472
9.496688741721854,5.431608170561611
9.516556291390728,5.470832785747943
9.536423841059603,5.509564193249735
9.556291390728477,5.547665728375809
9.57615894039735,5.5850056143884155
9.596026490066224,5.621457195792796
9.6158940397351,5.656899135988293
9.635761589403973,5.691215583430865
9.655629139072847,5.724296310192135
9.675496688741722,5.756036826508531
9.695364238410596,5.786338474611386
9.715231788079471,5.815108504821911
9.735099337748345,5.842260136595607
9.754966887417218,5.867712606911337
9.774834437086092,5.891391208127759
9.794701986754967,5.913227317173955
9.814569536423841,5.933158417706355
9.834437086092716,5.951128116646834
9.854304635761588,5.967086156321675
9.874172185430464,5.980988423241579
9.894039735099337,5.9927969544031905
9.913907284768213,6.002479941846722
9.933774834437086,6.010011736073118
9.95364238410596,6.015372848805047
9.973509933774835,6.01854995546669
9.993377483443709,6.0195358976560085
10.013245033112582,6.018329685788513
10.033112582781456,6.014936502000104
10.052980132450331,6.009367703307971
10.072847682119205,6.001640824939198
10.09271523178808,5.991779583646335
10.112582781456952,5.97981388073366
10.132450331125828,5.965779804417284
10.152317880794701,5.949719631033305
10.172185430463577,5.931681824488875
10.192052980132452,5.911721033220541
10.211920529801324,5.889898083779108
10.2317880794702,5.866279970000249
10.251655629139073,5.840939836542264
10.271523178807948,5.813956955376856
10.29139072847682,5.785416693603316
10.311258278145695,5.755410470721822
10.331125827814569,5.7240357032472104
10.350993377483444,5.691395734272467
10.370860927152318,5.657599745303316
10.390728476821192,5.622762647385752
10.410596026490065,5.587004948243002
10.43046357615894,5.550452591834806
10.450331125827816,5.51323676646044
10.470198675496688,5.475493677260715
10.490066225165563,5.437364278749638
10.509933774834437,5.398993962842396
10.529801324503312,5.360532197766316
10.549668874172186,5.322132113270866
10.56953642384106,5.283950027720298
10.589403973509933,5.246144912988828
10.609271523178808,5.208877793613786
10.629139072847682,5.172311077426954
10.649006622516556,5.13660781590445
10.66887417218543,5.101930893770085
10.688741721854305,5.0684421489664535
10.70860927152318,5.036301425967682
10.728476821192054,5.005665567527797
10.748344370860927,4.976687352296779
10.7682119205298,4.949514388230285
10.788079470198676,4.924287974279495
10.80794701986755,4.901141945365674
10.827814569536423,4.880201517988848
10.847682119205297,4.86158215584868
10.867549668874172,4.8453884764189
10.887417218543046,4.8317132203726345
10.907284768211921,4.820636305979525
10.927152317880793,4.812223989995119
