Frequency (Hz),Amplitude
0.0,1.0963114683051156
0.019823788546255508,1.1017786994694114
0.039647577092511016,1.117998600728206
0.059471365638766524,1.1444514991172567
0.07929515418502203,1.180348752487573
0.09911894273127755,1.2247246755691399
0.11894273127753305,1.2765290772206848
0.13876651982378857,1.3347041924245278
0.15859030837004406,1.3982389862296905
0.17841409691629956,1.4662013083876904
0.1982378854625551,1.5377523935488617
0.2180616740088106,1.6121492292974677
0.2378854625550661,1.688739644160962
0.25770925110132165,1.7669537005535507
0.27753303964757714,1.846293740370618
0.29735682819383263,1.9263244667961557
0.31718061674008813,2.0066637847019786
0.3370044052863437,2.086974708325175
0.3568281938325991,2.1669584062749214
0.37665198237885467,2.246348328437796
0.3964757709251102,2.3249053021877706
0.41629955947136565,2.402413466872688
0.4361233480176212,2.4786769175189063
0.4559471365638767,2.5535169402832767
0.4757709251101322,2.626769737348644
0.49559471365638774,2.698284554518336
0.5154185022026433,2.7679221391831352
0.5352422907488987,2.835553468991142
0.5550660792951543,2.9010587023138
0.5748898678414097,2.9643263105739694
0.5947136563876653,3.025252359887388
0.6145374449339208,3.083739915500618
0.6343612334801763,3.1396985474116708
0.6541850220264318,3.1930439195332387
0.6740088105726874,3.2436974479778136
0.6938325991189428,3.2915860166517397
0.7136563876651982,3.336641740459554
0.7334801762114539,3.3788017681384175
0.7533039647577093,3.418008118141656
0.7731277533039648,3.454207542133431
0.7929515418502204,3.4873514115932545
0.8127753303964759,3.5173956237999504
0.8325991189427313,3.5443005241019403
0.8524229074889869,3.568030841909929
0.8722466960352424,3.588555638290819
0.8920704845814978,3.605848263414455
0.9118942731277534,3.6198863224212623
0.931718061674009,3.6306516485502707
0.9515418502202644,3.638130282603939
0.9713656387665199,3.6423124580335133
0.9911894273127755,3.6431925911169754
1.0110132158590308,3.6407692758727084
1.0308370044052866,3.6350452835143945
1.0506607929515421,3.626027566408076
1.0704845814977975,3.613727266648225
1.090308370044053,3.5981597295274352
1.1101321585903086,3.5793445223414206
1.1299559471365639,3.5573054591499895
1.1497797356828194,3.5320706323128306
1.1696035242290752,3.503672451840895
1.1894273127753305,3.472147693858482
1.209251101321586,3.4375375597654676
1.2290748898678416,3.3998877480346055
1.248898678414097,3.3592485409868456
1.2687224669603525,3.3156749093755793
1.288546255506608,3.269226638195219
1.3083700440528636,3.219968477836548
1.3281938325991192,3.1679703255685085
1.3480176211453747,3.1133074433711196
1.36784140969163,3.056060719422398
1.3876651982378856,2.9963169821108924
1.4074889867841411,2.9341693773757034
1.4273127753303965,2.869717822556718
1.4471365638766522,2.8030695528786844
1.4669603524229078,2.7343397803283103
1.4867841409691631,2.663652489177874
1.5066079295154187,2.59114139795485
1.5264317180616742,2.516951124479413
1.5462555066079295,2.4412385989335066
1.5660792951541853,2.364174780028002
1.5859030837004409,2.2859467413848846
1.6057268722466962,2.206760209281482
1.6255506607929517,2.126842648606905
1.6453744493392073,2.0464470102743415
1.6651982378854626,1.965856268186311
1.6850220264317182,1.8853888827106184
1.7048458149779737,1.8054053222540156
1.7246696035242293,1.7263157404749896
1.7444933920704848,1.6485888198707674
1.7643171806167404,1.5727616149110528
1.7841409691629957,1.4994499039563385
1.8039647577092512,1.4293580166074022
1.8237885462555068,1.3632862680466673
1.8436123348017623,1.3021329756891715
1.863436123348018,1.2468866740922664
1.8832599118942732,1.19860301143738
1.9030837004405288,1.1583608135207613
1.9229074889867843,1.1271942761257576
1.9427312775330399,1.1060043166297515
1.9625550660792954,1.0954612743709942
1.982378854625551,1.0959198774262922
2.002202643171806,1.1073698504540292
2.0220264317180616,1.1294376124501175
2.041850220264317,1.1614384937513678
2.061674008810573,1.2024631993622859
2.0814977973568287,1.2514750171774696
2.1013215859030843,1.307397309640943
2.1211453744493394,1.369179744814858
2.140969162995595,1.4358407427725208
2.1607929515418505,1.5064894315575763
2.180616740088106,1.5803326765304009
2.2004405286343616,1.6566726392356714
2.220264317180617,1.7348991552939728
2.2400881057268722,1.814479868615626
2.2599118942731278,1.8949499246188648
2.2797356828193833,1.9759022120877334
2.299559471365639,2.0569786179970895
2.319383259911895,2.13786244755958
2.3392070484581504,2.2182719916421405
2.3590308370044055,2.297955141255646
2.378854625550661,2.3766849171478412
2.3986784140969166,2.45425577833158
2.418502202643172,2.530480582725889
2.4383259911894277,2.605188088057116
2.4581497797356833,2.678220897492323
2.4779735682819384,2.7494337700325158
2.497797356828194,2.8186922295524193
2.5176211453744495,2.8858714182575422
2.537444933920705,2.950855150282273
2.5572687224669606,3.013535129366896
2.577092511013216,3.073810301266032
2.5969162995594717,3.1315863169996634
2.6167400881057272,3.186775087480016
2.6365638766519828,3.239294413625971
2.6563876651982383,3.289067678970852
2.676211453744494,3.336023594113238
2.6960352422907494,3.380095984260885
2.715859030837005,3.4212236126624975
2.73568281938326,3.459350033981165
2.7555066079295156,3.494423472692949
2.775330396475771,3.5263967224386352
2.7951541850220267,3.5552270629537177
2.8149779735682823,3.580876191778132
2.834801762114538,3.603310168428329
2.854625550660793,3.6224993691169596
2.874449339207049,3.6384184504464607
2.8942731277533045,3.6510463207937653
2.91409691629956,3.660366118353875
2.9339207048458156,3.6663651950306133
2.953744493392071,3.66903510555791
2.9735682819383262,3.668371601413004
2.993392070484582,3.664374629248134
3.0132158590308373,3.6570483337245094
3.033039647577093,3.6464010647865197
3.0528634361233484,3.632445389570197
3.072687224669604,3.6151981093007315
3.092511013215859,3.594680281706201
3.1123348017621146,3.5709172496618615
3.1321585903083706,3.543938676989122
3.151982378854626,3.5137785925703735
3.1718061674008817,3.4804754442148482
3.1916299559471373,3.4440721640303944
3.2114537444933924,3.404616247433187
3.231277533039648,3.362159848376202
3.2511013215859035,3.316759893915419
3.270925110132159,3.268478221881604
3.2907488986784146,3.2173817462129346
3.31057268722467,3.163542655462604
3.3303964757709252,3.1070386511692067
3.350220264317181,3.047953234218941
3.3700440528634363,2.986376049103899
3.389867841409692,2.9224032981743955
3.4096916299559474,2.856138240698803
3.4295154185022034,2.7876917949122637
3.4493392070484585,2.7171832654150943
3.469162995594714,2.644741223467832
3.4889867841409696,2.5705045741532486
3.508810572687225,2.494623852303804
3.5286343612334807,2.417262798815353
3.5484581497797363,2.338600280766843
3.5682819383259914,2.258832632848684
3.588105726872247,2.1781765139705214
3.6079295154185025,2.0968723911164497
3.627753303964758,2.0151887811911053
3.6475770925110136,1.9334273977236076
3.667400881057269,1.8519293568656077
3.6872246696035247,1.7710825850442429
3.7070484581497802,1.6913305195141912
3.726872246696036,1.6131820706965372
3.7466960352422913,1.5372225713266081
3.7665198237885464,1.464125000115611
3.7863436123348024,1.3946600480476725
3.8061674008810575,1.3297025158488476
3.8259911894273135,1.2702301011453079
3.8458149779735686,1.217309102037544
3.8656387665198246,1.172060635096239
3.8854625550660797,1.1356019439282932
3.905286343612335,1.1089618655892137
3.925110132158591,1.092978245065775
3.9449339207048464,1.0881959676640311
3.964757709251102,1.0947915849168004
3.9845814977973575,1.1125476298432124
4.004405286343612,1.1408851421198785
4.024229074889869,1.1789435868190234
4.044052863436123,1.2256840380670029
4.06387665198238,1.2799901499407687
4.083700440528634,1.340749578524561
4.103524229074891,1.4069093567241882
4.123348017621146,1.4775069380802082
4.143171806167401,1.551682594883996
4.162995594713657,1.6286795076310543
4.182819383259912,1.707836825020989
4.2026431718061685,1.7885794338074448
4.222466960352423,1.8704067897917165
4.242290748898679,1.9528821323121675
4.262114537444934,2.0356227270469436
4.28193832599119,2.118291374271244
4.301762114537445,2.200589194737819
4.321585903083701,2.2822495941430505
4.3414096916299565,2.363033262138657
4.361233480176212,2.442724052832145
4.381057268722468,2.521125602595736
4.400881057268723,2.59805855749186
4.420704845814979,2.6733583011890403
4.440528634361234,2.746873092125053
4.46035242290749,2.8184625346611467
4.4801762114537445,2.8879963226793124
4.500000000000001,2.9553532055361837
4.5198237885462555,3.0204201357191467
4.539647577092512,3.0830915652369026
4.559471365638767,3.1432688640023816
4.579295154185023,3.2008598384913687
4.599118942731278,3.255778333011071
4.618942731277533,3.307943899177635
4.63876651982379,3.357281521834426
4.658590308370044,3.4037213917709797
4.678414096916301,3.447198717325091
4.6982378854625555,3.487653568349656
4.718061674008811,3.525030747165877
4.737885462555067,3.559279682056041
4.757709251101322,3.5903543396149162
4.777533039647578,3.6182131529097217
4.797356828193833,3.6428189629226404
4.817180616740089,3.6641389711867696
4.837004405286344,3.682144701894371
4.856828193832599,3.6968119720675023
4.876651982378855,3.708120868649095
4.896475770925111,3.7160557316041762
4.9162995594713665,3.7206051423261277
4.936123348017622,3.721761916826331
4.955947136563877,3.719523103354887
4.975770925110133,3.713889984258372
4.995594713656388,3.704868082034763
5.015418502202644,3.6924671696976636
5.035242290748899,3.6767012857189147
5.055066079295155,3.6575887539827945
5.07488986784141,3.6351522093627864
5.094713656387666,3.6094186297283977
5.114537444933921,3.580419375411121
5.134361233480177,3.5481902374117826
5.154185022026432,3.5127714959277854
5.174008810572688,3.4742079911248083
5.193832599118943,3.4325492084907485
5.213656387665199,3.3878493816029205
5.2334801762114544,3.3401676157349995
5.25330396475771,3.2895680364517608
5.2731277533039655,3.2361199682203283
5.292951541850221,3.1798981491438294
5.312775330396477,3.120982989250038
5.332599118942731,3.05946088140369
5.352422907488988,2.9954245759394267
5.372246696035242,2.9289736326314517
5.392070484581499,2.8602149667533934
5.4118942731277535,2.7892635098973937
5.43171806167401,2.7162430111117475
5.451541850220265,2.641287010025583
5.47136563876652,2.5645400212507745
5.491189427312777,2.4861589788279006
5.511013215859031,2.406315001195685
5.530837004405288,2.3251955514938296
5.550660792951542,2.2430070852569943
5.570484581497798,2.1599782977738036
5.5903083700440535,2.0763641060480706
5.610132158590309,1.9924505237227068
5.6299559471365646,1.9085606076102744
5.64977973568282,1.8250616637029815
5.669603524229076,1.742373883834398
5.689427312775331,1.6609805151400991
5.709251101321586,1.5814394988330382
5.729074889867842,1.5043961830946904
5.748898678414098,1.430596118229471
5.768722466960353,1.3608959624966328
5.788546255506609,1.296269075196928
5.808370044052864,1.2378005154453517
5.82819383259912,1.1866643586356769
5.848017621145375,1.1440756389060998
5.867841409691631,1.1112117459472783
5.887665198237886,1.089105675153329
5.907488986784142,1.0785259803886575
5.927312775330397,1.0798708839150524
5.9471365638766525,1.0931080359342558
5.966960352422908,1.1177803985696138
5.986784140969164,1.1530761036347235
6.00660792951542,1.1979387997850945
6.026431718061675,1.2511867500609466
6.04625550660793,1.3116151307174562
6.066079295154186,1.378069097995884
6.085903083700441,1.449486941072922
6.105726872246697,1.5249192210485942
6.125550660792952,1.6035316071008436
6.145374449339208,1.6845981946241282
6.1651982378854635,1.7674902259858127
6.185022026431718,1.8516633391327701
6.204845814977975,1.9366451086854497
6.224669603524229,2.022023743522571
6.244493392070486,2.107438264603533
6.264317180616741,2.1925701909594726
6.284140969162996,2.277136617167738
6.303964757709252,2.3608845079796468
6.323788546255507,2.443586024666476
6.3436123348017635,2.5250347092107623
6.363436123348018,2.605042373358915
6.3832599118942746,2.6834365627358796
6.403083700440529,2.7600584882940637
6.422907488986785,2.8347613368906965
6.44273127753304,2.9074088893659265
6.462555066079296,2.9778743882279612
6.482378854625551,3.0460396082595853
6.502202643171807,3.111794092420243
6.5220264317180625,3.1750345227013184
6.541850220264318,3.235664201430452
6.561674008810574,3.293592623194836
6.581497797356829,3.3487351212967464
6.601321585903085,3.4010125756558427
6.62114537444934,3.450351171484196
6.640969162995596,3.496682200001435
6.6607929515418505,3.53994189402647
6.680616740088107,3.5800712925533165
6.700440528634362,3.6170161294531664
6.720264317180618,3.650726742290049
6.740088105726873,3.6811579979309355
6.759911894273129,3.7082692322041613
6.779735682819384,3.7320242013345504
6.799559471365639,3.752391043281567
6.819383259911895,3.7693422474414047
6.83920704845815,3.782854631458606
6.859030837004407,3.792909324138645
6.8788546255506615,3.799491753666845
6.898678414096917,3.802591640529897
6.918502202643173,3.8022029947082845
6.938325991189428,3.798324116869077
6.958149779735684,3.7909576034401993
6.977973568281939,3.780110355598181
6.997797356828195,3.76579359235144
7.01762114537445,3.748022868058934
7.037444933920705,3.726818094891062
7.0572687224669615,3.7022035709237056
7.077092511013216,3.6742080147611076
7.096916299559473,3.642864607817557
7.116740088105728,3.608211045658333
7.136563876651983,3.570289600118035
7.156387665198239,3.529147194290522
7.176211453744494,3.4848354929351046
7.19603524229075,3.437411011385458
7.215859030837005,3.386935246706639
7.235682819383261,3.3334748356480604
7.255506607929516,3.277101744925545
7.275330396475772,3.2178935005804186
7.295154185022027,3.1559334646661883
7.314977973568283,3.0913111693822266
7.334801762114538,3.0241227211050523
7.354625550660794,2.954471289684931
7.374449339207049,2.882467702040241
7.394273127753305,2.80823116368939
7.4140969162995605,2.731890137673321
7.433920704845816,2.653583417650534
7.453744493392072,2.5734614411905214
7.473568281938327,2.4916879009189974
7.493392070484583,2.4084417257252015
7.513215859030838,2.3239195223078766
7.533039647577093,2.2383385894383103
7.552863436123348,2.151940643721948
7.572687224669605,2.064996425947017
7.59251101321586,1.9778113894697558
7.612334801762115,1.890732701771134
7.6321585903083715,1.8041578071717836
7.651982378854627,1.718544782821356
7.671806167400882,1.6344246350136642
7.691629955947137,1.5524154656591422
7.711453744493394,1.4732379882404445
7.731277533039649,1.3977310425181235
7.751101321585904,1.3268643730378067
7.7709251101321595,1.2617438776899776
7.790748898678416,1.203601948869041
7.81057268722467,1.1537632410495176
7.830396475770926,1.1135761513399174
7.850220264317182,1.0843054819205837
7.870044052863436,1.0669944606561403
7.889867841409693,1.0623223464460316
7.909691629955948,1.0704976800137644
7.929515418502204,1.091224070925441
7.9493392070484585,1.123751360115852
7.969162995594715,1.1669928847374211
7.9889867841409705,1.2196694811002928
8.008810572687224,1.2804421562681287
8.02863436123348,1.3480111634732572
8.048458149779737,1.4211766173474698
8.068281938325994,1.4988668146840298
8.088105726872246,1.5801442261982217
8.107929515418503,1.6641983878507876
8.12775330396476,1.7503324694143487
8.147577092511014,1.8379478047333684
8.167400881057269,1.9265287656788692
8.187224669603525,2.0156291157319455
8.207048458149782,2.1048602467516626
8.226872246696036,2.1938813129367953
8.246696035242293,2.2823910935018334
8.266519823788547,2.3701213486755384
8.286343612334802,2.456831426252324
8.306167400881058,2.5423038960038573
8.325991189427315,2.6263410194972625
8.345814977973568,2.7087618945553587
8.365638766519824,2.789400142768284
8.38546255506608,2.868102033656609
8.405286343612337,2.944724960066891
8.42511013215859,3.0191361964813046
8.444933920704846,3.0912118856793347
8.464757709251103,3.1608362101700167
8.484581497797357,3.2279007135388507
8.504405286343614,3.292303743775673
8.524229074889869,3.353949996138174
8.544052863436125,3.412750137462676
8.56387665198238,3.468620497298166
8.583700440528636,3.5214828140015824
8.60352422907489,3.5712640261404123
8.623348017621145,3.6178961013203805
8.643171806167402,3.6613158959825443
8.662995594713658,3.7014650408675807
8.682819383259913,3.7382898477818256
8.702643171806168,3.77174123406337
8.722466960352424,3.8017746617741035
8.74229074889868,3.8283500891600504
8.762114537444935,3.8514319323523067
8.78193832599119,3.870989035639872
8.801762114537446,3.8869946489495666
8.821585903083701,3.899426411427327
8.841409691629957,3.908266340239098
8.861233480176212,3.9135008239067766
8.881057268722468,3.915120619671044
8.900881057268723,3.9131208545341902
8.92070484581498,3.907501029787791
8.940528634361234,3.8982650289766765
8.960352422907489,3.8854211293953833
8.980176211453745,3.8689820173634617
9.000000000000002,3.8489648076817287
9.019823788546258,3.825391067842949
9.039647577092511,3.798286847757964
9.059471365638768,3.76768271597227
9.079295154185024,3.733613803593468
9.099118942731279,3.6961198574372447
9.118942731277533,3.655245304238886
9.13876651982379,3.611039328182805
9.158590308370046,3.563555964491407
9.1784140969163,3.5128542124070976
9.198237885462555,3.4589981716262046
9.218061674008812,3.402057207133555
9.237885462555067,3.342106148486114
9.257709251101323,3.2792255309601535
9.27753303964758,3.2135018876791177
9.297356828193834,3.1450281039748176
9.317180616740089,3.073903847919577
9.337004405286345,3.0002360943605373
9.356828193832602,2.9241397640888445
9.376651982378855,2.8457385052480566
9.396475770925111,2.765165651063667
9.416299559471367,2.6825653968906735
9.436123348017622,2.598094250975243
9.455947136563877,2.511922827891095
9.475770925110133,2.424238072166162
9.49559471365639,2.33524602310728
9.515418502202644,2.245175261247813
9.5352422907489,2.1542812129905786
9.555066079295155,2.062851533035953
9.57488986784141,1.9712128325411127
9.594713656387666,1.8797390695043044
9.614537444933923,1.7888619541984159
9.634361233480178,1.6990837204338352
9.654185022026432,1.610992522178846
9.674008810572689,1.5252804423581106
9.693832599118945,1.4427634913071314
9.713656387665198,1.3644017920526326
9.733480176211454,1.2913161071889045
9.75330396475771,1.2247937500297
9.773127753303967,1.1662730097751826
9.792951541850222,1.1172919960732215
9.812775330396477,1.0793887772897688
9.832599118942733,1.0539498852244025
9.852422907488988,1.0420262964413702
9.872246696035244,1.0441628765976303
9.892070484581499,1.0602999651354077
9.911894273127754,1.0897866298619703
9.93171806167401,1.131499831009159
9.951541850220266,1.1840224976891702
9.971365638766521,1.2458225025524423
9.991189427312776,1.3153925038465106
10.011013215859032,1.3913376070187347
10.030837004405289,1.472417135623754
10.050660792951543,1.5575543864338184
10.070484581497798,1.6458278253520127
10.090308370044054,1.7364535999767612
10.11013215859031,1.8287654769579356
10.129955947136565,1.9221954737937186
10.14977973568282,2.0162566502567207
10.169603524229077,2.1105285070502138
10.189427312775331,2.2046449272976845
10.209251101321588,2.2982843764608774
10.229074889867842,2.3911620108278604
10.248898678414099,2.4830233535785404
10.268722466960353,2.573639237034676
10.28854625550661,2.6628017579312733
10.308370044052865,2.750321039134456
10.32819383259912,2.836022632084193
10.348017621145376,2.919745428310027
10.367841409691632,3.0013399759761947
10.387665198237887,3.080667119410333
10.407488986784141,3.1575968969248156
10.427312775330398,3.23200764585752
10.447136563876654,3.3037852744188054
10.466960352422909,3.372822668272097
10.486784140969164,3.4390192063084997
10.50660792951542,3.5022803652031564
10.526431718061675,3.5625173963760557
10.546255506607931,3.619647062166028
10.566079295154186,3.6735914205512503
10.585903083700442,3.7242776497583967
10.605726872246697,3.771637905707113
10.625550660792953,3.815609206524424
10.645374449339208,3.8561333394019432
10.665198237885463,3.8931567859101186
10.685022026431719,3.926630662568823
10.704845814977975,3.9565106740354246
