Frequency (Hz),Amplitude
0.0,9.255265100293345
0.01993355481727575,9.250764762944126
0.0398671096345515,9.237268427334332
0.059800664451827246,9.21479012062853
0.079734219269103,9.183353214325543
0.09966777408637874,9.14299041378676
0.11960132890365449,9.093743743965451
0.13953488372093023,9.035664531741919
0.159468438538206,8.968813385407639
0.17940199335548174,8.893260171998461
0.19933554817275748,8.809083993358572
0.21926910299003324,8.716373162030719
0.23920265780730898,8.615225178323328
0.25913621262458475,8.50574671021383
0.27906976744186046,8.388053578124484
0.29900332225913623,8.26227074707217
0.318936877076412,8.12853232927221
0.3388704318936877,7.986981601002884
0.3588039867109635,7.837771038455248
0.37873754152823924,7.68106237846315
0.39867109634551495,7.517026711511158
0.4186046511627907,7.345844616362567
0.4385382059800665,7.167706348186641
0.4584717607973422,6.982812095400525
0.47840531561461797,6.791372324867439
0.49833887043189373,6.593608241016772
0.5182724252491695,6.389752392455111
0.5382059800664452,6.180049470558676
0.5581395348837209,5.964757359594436
0.5780730897009968,5.744148518908156
0.5980066445182725,5.518511807322019
0.6179401993355482,5.288154902155518
0.637873754152824,5.053407526432667
0.6578073089700996,4.8146257875217815
0.6777408637873754,4.572198063903308
0.6976744186046512,4.326553078363201
0.717607973421927,4.078171105279769
0.7375415282392027,3.8275997420584695
0.7574750830564785,3.5754764389031104
0.7774086378737541,3.3225612095666315
0.7973421926910299,3.069784944890694
0.8172757475083057,2.818322026191564
0.8372093023255814,2.569701275959054
0.8571428571428572,2.3259777381181537
0.877076411960133,2.0900000109877652
0.8970099667774087,1.8658209843782467
0.9169435215946844,1.659295948673953
0.9368770764119602,1.4788254449832603
0.9568106312292359,1.3358642099593772
0.9767441860465116,1.2440662180856774
0.9966777408637875,1.215477339170704
1.0166112956810631,1.2545460761349334
1.036544850498339,1.3553017141169998
1.0564784053156147,1.505070599888066
1.0764119601328903,1.690383883996564
1.0963455149501662,1.9002639456789032
1.1162790697674418,2.1267569112687617
1.1362126245847177,2.3643366383619675
1.1561461794019936,2.60917285442864
1.176079734219269,2.8585636289732483
1.196013289036545,3.110550565172901
1.2159468438538206,3.363669301328843
1.2358803986710964,3.6167891928394336
1.255813953488372,3.8690095880827418
1.275747508305648,4.119591778240404
1.2956810631229239,4.367913597265195
1.3156146179401993,4.6134386001621515
1.3355481727574752,4.855694779114256
1.3554817275747508,5.094259628240847
1.3754152823920267,5.328749507231169
1.3953488372093024,5.558811964431626
1.4152823920265782,5.784120129484855
1.435215946843854,6.004368574633402
1.4551495016611296,6.219270232606643
1.4750830564784054,6.42855408428955
1.495016611295681,6.631963413760674
1.514950166112957,6.829254485951988
1.5348837209302328,7.020195542129904
1.5548172757475083,7.204566036428387
1.5747508305647842,7.382156056577568
1.5946843853820598,7.552765886280691
1.6146179401993357,7.7162056770875305
1.6345514950166113,7.872295205243793
1.6544850498338872,8.020863694651835
1.6744186046511629,8.161749691310783
1.6943521594684385,8.294800977798387
1.7142857142857144,8.41987451878958
1.73421926910299,8.536836430473127
1.754152823920266,8.645561968172451
1.7740863787375416,8.74593552760262
1.7940199335548175,8.837850656080539
1.8139534883720931,8.921210070705692
1.8338870431893688,8.995925681088334
1.8538205980066447,9.061918614651605
1.8737541528239203,9.119119242899764
1.893687707641196,9.167467207343957
1.9136212624584719,9.20691144402525
1.9335548172757475,9.237410205783634
1.9534883720930232,9.258931081598394
1.9734219269102993,9.271451012480354
1.993355481727575,9.274956303532111
2.0132890365448506,9.26944263191631
2.0332225913621262,9.254915050587345
2.0531561461794023,9.23138798775212
2.073089700996678,9.19888524213534
2.0930232558139537,9.15743997423645
2.1129568106312293,9.107094693884061
2.132890365448505,9.047901244521316
2.1528239202657806,8.979920784799031
2.1727574750830567,8.903223768216053
2.1926910299003324,8.817889921735432
2.212624584717608,8.724008224528118
2.2325581395348837,8.621676888263378
2.25249169435216,8.511003340688184
2.2724252491694354,8.392104214634918
2.292358803986711,8.265105345085098
2.312292358803987,8.130141777527937
2.332225913621263,7.987357791617593
2.352159468438538,7.836906945103793
2.3720930232558137,7.678952144247697
2.39202657807309,7.513665748525395
2.4119601328903655,7.3412297194829215
2.431893687707641,7.161835826297577
2.4518272425249172,6.975685924144582
2.471760797342193,6.782992326174866
2.4916943521594686,6.583978296216623
2.511627906976744,6.37887869784577
2.5315614617940203,6.167940847127112
2.551495016611296,5.951425632421921
2.5714285714285716,5.729608987124234
2.5913621262458477,5.502783832920325
2.611295681063123,5.271262656542148
2.6312292358803986,5.035380948727069
2.6511627906976742,4.7955018306623876
2.6710963455149503,4.552022337105987
2.691029900332226,4.305382043104009
2.7109634551495017,4.056075055801117
2.7308970099667778,3.8046669151145265
2.7508305647840534,3.5518187749571037
2.770764119601329,3.2983225676928694
2.7906976744186047,3.0451530178703883
2.810631229235881,2.7935459032745653
2.8305647840531565,2.545117676179355
2.850498338870432,2.3020504551695953
2.870431893687708,2.067378755487333
2.8903654485049834,1.8454256970043084
2.910299003322259,1.6424238725743994
2.9302325581395348,1.4672418207779965
2.950166112956811,1.3317437039206037
2.9700996677740865,1.2495393568825102
2.990033222591362,1.2317160669317755
3.0099667774086383,1.2810577145800686
3.029900332225914,1.390279349350039
3.0498338870431896,1.54639553286646
3.0697674418604657,1.7363029980398543
3.089700996677741,1.9495390810076152
3.1096345514950166,2.1785679742554303
3.129568106312292,2.418147976552584
3.1495016611295683,2.664630047278316
3.169435215946844,2.9154255321864704
3.1893687707641196,3.168646930335283
3.2093023255813957,3.422874686967921
3.2292358803986714,3.6770068206474864
3.249169435215947,3.9301612196002687
3.2691029900332227,4.18161126115693
3.289036544850499,4.4307426795027105
3.3089700996677744,4.6770241691161285
3.32890365448505,4.919987012544687
3.3488372093023258,5.159210738741815
3.3687707641196014,5.394312879867521
3.388704318936877,5.624941559100272
3.4086378737541527,5.850770064316148
3.428571428571429,6.071492835047512
3.4485049833887045,6.286822468822638
3.46843853820598,6.496487471949103
3.4883720930232562,6.700230560183175
3.508305647840532,6.897807369810654
3.5282392026578075,7.088985477923916
3.548172757475083,7.273543657594005
3.5681063122923593,7.451271312799382
3.588039867109635,7.621968051772985
3.60797342192691,7.785443367475127
3.6279069767441863,7.941516401287807
3.647840531561462,8.090015771512096
3.6677740863787376,8.230779452361944
3.6877076411960132,8.363654692256437
3.7076411960132893,8.48849796258257
3.727574750830565,8.605174929922853
3.7475083056478407,8.713560446153336
3.7674418604651168,8.813538551919931
3.787375415282392,8.90500248986786
3.807308970099668,8.987854724686947
3.8272425249169437,9.062006967584468
3.8471760797342194,9.127380203240723
3.867109634551495,9.183904717662326
3.887043189368771,9.23152012564428
3.9069767441860463,9.270175396797608
3.9269102990033224,9.299828879306384
3.9468438538205985,9.320448320754947
3.9667774086378738,9.332010885519624
3.98671096345515,9.3345031683572
4.0066445182724255,9.327921203945882
4.026578073089701,9.312270472252756
4.046511627906977,9.287565899713664
4.0664451827242525,9.253831856324977
4.086378737541528,9.21110214886193
4.106312292358805,9.159420010561968
4.1262458471760795,9.098838087745445
4.146179401993356,9.02941842399691
4.166112956810632,8.951232442701889
4.186046511627907,8.864360928935223
4.205980066445183,8.768894011934124
4.225913621262459,8.664931149674244
4.245847176079734,8.552581117413117
4.26578073089701,8.431962002489126
4.2857142857142865,8.303201208189309
4.305647840531561,8.166435470153601
4.325581395348838,8.021810889606922
4.345514950166113,7.8694829887538456
4.365448504983389,7.709616795003243
4.385382059800665,7.542386962405356
4.40531561461794,7.367977940907445
4.425249169435216,7.1865842069409664
4.445182724252492,6.9984105726849775
4.465116279069767,6.803672596443541
4.485049833887043,6.6025971234067935
4.50498338870432,6.395422995317286
4.524916943521594,6.18240198021461
4.544850498338871,5.963799990917666
4.5647840531561465,5.739898685338278
4.584717607973422,5.510997576266574
4.604651162790698,5.2774168277175795
4.624584717607974,5.039500986638242
4.644518272425249,4.797624004194232
4.664451827242526,4.552196058073565
4.6843853820598005,4.303672925214996
4.704318936877076,4.052569020091407
4.724252491694353,3.7994757843417015
4.7441860465116275,3.5450880170440424
4.764119601328904,3.2902421837398865
4.78405315614618,3.0359730861828633
4.803986710963455,2.783599069645806
4.823920265780731,2.534851992158589
4.8438538205980075,2.2920773179817853
4.863787375415282,2.0585415090401638
4.883720930232559,1.8388916022060608
4.9036544850498345,1.639786146109811
4.92358803986711,1.4705677862563962
4.943521594684386,1.3434010745224985
4.963455149501661,1.2715717546992984
4.983388704318937,1.264882719372804
5.003322259136213,1.3243887424753573
5.023255813953488,1.4417449252138843
5.043189368770764,1.603940199948084
5.063122923588041,1.798374141177539
5.083056478405315,2.015117364205233
5.102990033222592,2.2470222768065127
5.122923588039868,2.489092401541347
5.142857142857143,2.7378248430101646
5.162790697674419,2.9907160480906887
5.182724252491695,3.24592754271062
5.20265780730897,3.5020676982529735
5.222591362126246,3.7580500761157576
5.242524916943522,4.013000778546803
5.262458471760797,4.266197020178426
5.282392026578074,4.517025741004183
5.3023255813953485,4.764955255816056
5.322259136212625,5.009515517472786
5.342192691029901,5.250284166190985
5.362126245847176,5.486876529498211
5.382059800664452,5.718938362635772
5.4019933554817285,5.946140518650336
5.421926910299003,6.168174996540685
5.44186046511628,6.384751986504231
5.4617940199335555,6.595597645438721
5.48172757475083,6.800452413257417
5.501661129568107,6.999069733806569
5.5215946843853825,7.191215081268888
5.541528239202658,7.376665219108686
5.561461794019934,7.555207637301423
5.5813953488372094,7.726640127082096
5.601328903654485,7.890770462291393
5.621262458471762,8.047416163655427
5.641196013289036,8.196404327733706
5.661129568106313,8.337571506325
5.681063122923589,8.470763625191822
5.700996677740864,8.59583593330958
5.72093023255814,8.712652975653144
5.740863787375416,8.821088583934287
5.760797342192691,8.921025880800094
5.780730897009967,9.012357293865566
5.800664451827243,9.09498457663955
5.820598006644518,9.168818833952331
5.840531561461795,9.233780549936066
5.8604651162790695,9.289799616970692
5.880398671096346,9.33681536430505
5.900332225913622,9.374776585310537
5.920265780730897,9.403641562533721
5.940199335548173,9.423378089893323
5.960132890365449,9.433963491524091
5.980066445182724,9.435384636909637
6.0,9.427637952074932
6.0199335548172765,9.4107294267301
6.039867109634551,9.384674617374618
6.059800664451828,9.349498646489414
6.0797342192691035,9.305236198066652
6.099667774086379,9.251931509857844
6.119601328903655,9.189638362864407
6.139534883720931,9.118420068756524
6.159468438538206,9.038349456091616
6.179401993355482,8.949508856420827
6.1993355481727574,8.851990091629798
6.219269102990033,8.745894464169558
6.23920265780731,8.631332752210911
6.259136212624584,8.508425212218091
6.279069767441861,8.377301592011143
6.299003322259137,8.23810115810329
6.318936877076412,8.090972742001133
6.338870431893688,7.936074811300297
6.3588039867109645,7.7735755728716
6.378737541528239,7.603653117317013
6.398671096345516,7.426495616319312
6.418604651162791,7.242301587708389
6.438538205980066,7.0512802472860745
6.458471760797343,6.8536519720648625
6.4784053156146175,6.6496489071107785
6.498338870431894,6.439515758391632
6.51827242524917,6.223510828006313
6.538205980066445,6.001907367496664
6.558139534883721,5.774995351966714
6.578073089700998,5.543083815960276
6.598006644518272,5.306503946789071
6.617940199335549,5.0656132104074585
6.6378737541528245,4.820800901670354
6.6578073089701,4.572495684865393
6.677740863787376,4.321175953685853
6.6976744186046515,4.06738424388918
6.717607973421927,3.8117475609917038
6.737541528239203,3.5550064778000867
6.7574750830564785,3.298057439002322
6.777408637873754,3.0420152469840644
6.797342192691031,2.7883067501946113
6.8172757475083055,2.5388130416580603
6.837209302325582,2.296086508963791
6.857142857142858,2.0636793213465814
6.877076411960133,1.8466213808234155
6.897009966777409,1.6520415161402073
6.9169435215946855,1.4897365957464443
6.93687707641196,1.372009123417095
6.956810631229236,1.3114939371585068
6.9767441860465125,1.3164121655468488
6.996677740863787,1.3861074194651457
7.016611295681064,1.5114534607916983
7.036544850498339,1.6796604184460184
7.056478405315615,1.8787319589335196
7.076411960132891,2.0992791003679105
7.096345514950166,2.3345156204421764
7.116279069767442,2.5796579011186713
7.136212624584719,2.831320466150463
7.156146179401993,3.087061512368983
7.17607973421927,3.3450731104065494
7.196013289036546,3.603976977844458
7.21594684385382,3.8626906392428086
7.235880398671097,4.120339109384269
7.2558139534883725,4.376195868625605
7.275747508305648,4.629642812566341
7.295681063122924,4.880142644402424
7.3156146179402,5.127219548291508
7.335548172757475,5.370445461010553
7.355481727574752,5.60943018803886
7.3754152823920265,5.843814200081305
7.395348837209303,6.073263325710699
7.415282392026579,6.297464803701385
7.435215946843854,6.516124322857788
7.45514950166113,6.728963787520272
7.475083056478406,6.935719622156511
7.495016611295681,7.136141480404875
7.514950166112956,7.329991260285255
7.5348837209302335,7.5170423530323385
7.554817275747508,7.697079071444149
7.574750830564784,7.869896216991252
7.5946843853820605,8.035298754703142
7.614617940199336,8.193101572068095
7.634551495016611,8.343129303569354
7.6544850498338874,8.4852162065333
7.674418604651163,8.619206077042449
7.694352159468439,8.744952197020787
7.714285714285715,8.862317305415315
7.73421926910299,8.971173587809846
7.754152823920266,9.07140267991332
7.774086378737542,9.1628956812381
7.794019933554818,9.245553175978214
7.813953488372093,9.31928525865479
7.83388704318937,9.384011562546217
7.853820598006645,9.439661289288642
7.8737541528239205,9.486173238335802
7.893687707641197,9.523495835220738
7.913621262458472,9.551587157776332
7.9335548172757475,9.570414959656684
7.953488372093024,9.579956690663247
7.9734219269103,9.580199513525674
7.9933554817275745,9.571140316921289
8.013289036544851,9.552785724644934
8.033222591362128,9.525152100965766
8.053156146179402,9.488265552333672
8.073089700996679,9.442161925730243
8.093023255813954,9.386886804100445
8.11295681063123,9.32249549945825
8.132890365448505,9.249053044436062
8.152823920265782,9.16663418325214
8.172757475083056,9.075323363310027
8.192691029900331,8.975214728929117
8.21262458471761,8.866412119049777
8.232558139534884,8.749029071175492
8.252491694352159,8.623188834330056
8.272425249169435,8.489024394447725
8.292358803986712,8.346678516414224
8.312292358803987,8.19630380798468
8.332225913621263,8.038062812085041
8.352159468438538,7.872128135641253
8.372093023255815,7.698682625191404
8.392026578073091,7.517919602277537
8.411960132890366,7.330043175203204
8.43189368770764,7.135268648479451
8.451827242524917,6.933823057587814
8.471760797342194,6.725945865157703
8.491694352159469,6.511889866137264
8.511627906976745,6.291922365256207
8.53156146179402,6.066326711824992
8.551495016611296,5.83540430732636
8.571428571428573,5.599477244275884
8.591362126245848,5.358891796422189
8.611295681063122,5.114023069659007
8.6312292358804,4.86528125420008
8.651162790697676,4.613120113880257
8.67109634551495,4.3580486432587255
8.691029900332227,4.100647274287456
8.710963455149502,3.8415907134359775
8.730897009966778,3.5816805858050245
8.750830564784053,3.3218927926411825
8.77076411960133,3.0634472207635794
8.790697674418604,2.807911697671761
8.81063122923588,2.5573584254759707
8.830564784053157,2.3145994855111542
8.850498338870432,2.083535165954204
8.870431893687707,1.869640571137632
8.890365448504983,1.6805473835476055
8.91029900332226,1.5264469834334629
8.930232558139535,1.4195529159214653
8.950166112956811,1.3714860111564091
8.970099667774086,1.3886397991509214
8.990033222591363,1.4687418074006016
9.00996677740864,1.602165300583174
9.029900332225914,1.7765448033259157
9.049833887043189,1.9805610465412906
9.069767441860467,2.205368047725027
9.089700996677742,2.444520352874839
9.109634551495017,2.693422898000268
9.129568106312293,2.9487855839792623
9.14950166112957,3.2082098102412693
9.169435215946844,3.4699029513851873
9.189368770764121,3.732487607379817
9.209302325581396,3.9948750371358166
9.22923588039867,4.256180709602291
9.249169435215949,4.515667308954869
9.269102990033224,4.772705727750341
9.289036544850498,5.026747974845564
9.308970099667773,5.277308083179044
9.328903654485051,5.52394846795372
9.348837209302326,5.766270053503041
9.368770764119601,6.003905043889641
9.388704318936878,6.236511573885529
9.408637873754152,6.4637697149728846
9.428571428571429,6.685378469798061
9.448504983388705,6.901053495915843
9.46843853820598,7.110525373278472
9.488372093023255,7.313538281034956
9.508305647840533,7.509848985130101
9.528239202657808,7.699226063739818
9.548172757475083,7.88144931595116
9.56810631229236,8.056309312448153
9.588039867109636,8.223607056767385
9.60797342192691,8.383153732953712
9.627906976744187,8.534770520881983
9.647840531561462,8.678288464612395
9.667774086378738,8.813548382267916
9.687707641196015,8.940400808316758
9.70764119601329,9.058705960993448
9.727574750830565,9.16833372903446
9.747508305647841,9.269163673035669
9.767441860465118,9.361085037634693
9.787375415282392,9.443996771434353
9.807308970099669,9.517807552157045
9.827242524916944,9.582435814984612
9.84717607973422,9.637809782418651
9.867109634551497,9.683867494310762
9.887043189368772,9.720556836975875
9.906976744186046,9.747835570525586
9.926910299003321,9.76567135375225
9.9468438538206,9.774041766065213
9.966777408637874,9.77293432613495
9.986710963455149,9.762346507044315
10.006644518272426,9.742285747882697
10.026578073089702,9.712769461854503
10.046511627906977,9.673825041110932
10.066445182724253,9.625489858658938
10.086378737541528,9.56781126785823
10.106312292358805,9.500846600191487
10.126245847176081,9.424663162190908
10.146179401993356,9.339338232633938
10.16611295681063,9.24495906139137
10.186046511627907,9.141622871633665
10.205980066445184,9.02943686749184
10.225913621262459,8.908518249745043
10.245847176079735,8.778994242694065
10.26578073089701,8.641002136108687
10.285714285714286,8.494689347049373
10.305647840531563,8.340213507515095
10.325581395348838,8.177742585331934
10.345514950166113,8.007455047569835
10.36544850498339,7.8295400781903695
10.385382059800666,7.6441978647668405
10.40531561461794,7.451639973229073
10.425249169435217,7.2520898350132015
10.445182724252492,7.045783378224454
10.465116279069768,6.832969844131263
10.485049833887045,6.613912843474821
10.50498338870432,6.388891725104303
10.524916943521594,6.15820335438104
10.544850498338871,5.922164433651346
10.564784053156147,5.681114546366181
10.584717607973422,5.435420176911573
10.604651162790697,5.185480060263684
10.624584717607974,4.931732365189433
10.64451827242525,4.674664436842206
10.664451827242525,4.414826158595863
10.684385382059801,4.152848501252103
10.704318936877076,3.8894696096266923
10.724252491694353,3.6255719887689573
10.74418604651163,3.362236236392273
10.764119601328904,3.100819674446809
10.784053156146179,2.843072589122337
10.803986710963457,2.591310840545348
10.823920265780732,2.348670368956464
10.843853820598007,2.11947101743869
10.863787375415283,1.9096947652534135
10.88372093023256,1.7274854995949482
10.903654485049834,1.583312370138456
10.923588039867111,1.489000702239495
