Frequency (Hz),Amplitude
0.0,2.9274600491669736
0.04,2.9269216793704316
0.08,2.925308012880945
0.12,2.922623378882962
0.16,2.9188749942790837
0.19999999999999998,2.914072966018053
0.24,2.9082302942227147
0.27999999999999997,2.901362875982327
0.32,2.8934895096292808
0.36,2.884631899270747
0.39999999999999997,2.874814659291265
0.44,2.864065318480836
0.48,2.852414323374226
0.52,2.8398950403095844
0.5599999999999999,2.826543755627332
0.6,2.812399673332858
0.64,2.797504909437775
0.6799999999999999,2.781904482074348
0.72,2.7656462963457535
0.76,2.748781122731213
0.7999999999999999,2.7313625677109967
0.84,2.7134470351128854
0.88,2.695093676511436
0.9199999999999999,2.6763643288381096
0.96,2.6573234371880963
1.0,2.638037960645616
1.04,2.6185772588007667
1.0799999999999998,2.599012956508143
1.1199999999999999,2.5794187843518377
1.1600000000000001,2.559870392247077
1.2,2.5404451336412444
1.24,2.5212218178933896
1.28,2.5022804286296125
1.3199999999999998,2.48370180620997
1.3599999999999999,2.4655672929174055
1.4,2.4479583401049454
1.44,2.430956077323326
1.48,2.4146408443999743
1.52,2.399091688545879
1.5599999999999998,2.384385829811675
1.5999999999999999,2.370598099568522
1.64,2.357800358108451
1.68,2.3460608988854097
1.72,2.335443848280691
1.76,2.3260085709950085
1.7999999999999998,2.317809092157482
1.8399999999999999,2.3108935479149446
1.88,2.3053036765456216
1.92,2.3010743619688188
1.9599999999999997,2.2982332408588606
2.0,2.296800383409256
2.0399999999999996,2.296788056157234
2.08,2.2982005732294652
2.12,2.3010342399984807
2.1599999999999997,2.30527739056331
2.2,2.310910517821524
2.2399999999999998,2.3179064923225647
2.28,2.3262308637181266
2.3200000000000003,2.3358422365713163
2.36,2.3466927106435866
2.4,2.358728374606324
2.44,2.371889841448031
2.48,2.386112813659688
2.5199999999999996,2.4013286665430837
2.56,2.41746503863875
2.6,2.4344464192354955
2.6399999999999997,2.452194724118114
2.68,2.470629852048744
2.7199999999999998,2.4896702158807025
2.76,2.5092332436017006
2.8,2.5292358459385547
2.84,2.5495948483844266
2.88,2.570227386602261
2.92,2.5910512650972812
2.96,2.611985279831004
2.9999999999999996,2.6329495060713883
3.04,2.65386555324809
3.08,2.674656788921451
3.1199999999999997,2.6952485341957995
3.16,2.7155682330289537
3.1999999999999997,2.735545597928581
3.2399999999999998,2.755112734498584
3.28,2.774204247220691
3.32,2.792757328741135
3.36,2.8107118347915585
3.4,2.8280103467167415
3.44,2.844598223417079
3.4799999999999995,2.860423644347631
3.52,2.875437645052163
3.5599999999999996,2.88959414655381
3.5999999999999996,2.9028499797761746
3.64,2.9151649060309297
3.6799999999999997,2.9265016344820127
3.7199999999999998,2.936825837381542
3.76,2.946106163769416
3.7999999999999994,2.954314252236255
3.84,2.9614247432673393
3.88,2.967415291612773
3.9199999999999995,2.9722665790652885
3.96,2.9759623279707554
4.0,2.978489315747018
4.04,2.9798373906422846
4.079999999999999,2.9799994889248396
4.12,2.9789716536594755
4.16,2.9767530551919004
4.199999999999999,2.973346013429682
4.24,2.9687560219751816
4.28,2.9629917741318246
4.319999999999999,2.9560651907684203
4.36,2.9479914499855684
4.4,2.9387890184823675
4.4399999999999995,2.9284796844688423
4.4799999999999995,2.9170885919079668
4.5200000000000005,2.904644275799635
4.56,2.8911786981344023
4.6,2.8767272840465297
4.640000000000001,2.8613289575802967
4.68,2.84502617634965
4.72,2.827864964215639
4.76,2.8098949409275664
4.8,2.7911693474695403
4.84,2.771745065623086
4.88,2.7516826299972834
4.92,2.731046230490542
4.96,2.7099037028337354
5.0,2.6883265045255094
5.039999999999999,2.666389673112427
5.08,2.6441717633966118
5.12,2.621754759782963
5.159999999999999,2.599223959622227
5.2,2.576667823084329
5.24,2.554177784834814
5.279999999999999,2.5318480226148963
5.319999999999999,2.5097751777802064
5.36,2.4880580229742892
5.3999999999999995,2.466797072445668
5.4399999999999995,2.446094131107222
5.48,2.426051779327538
5.52,2.4067727916740678
5.56,2.388359489422676
5.6,2.370913028616143
5.64,2.354532627778206
5.68,2.339314742022514
5.72,2.3253521931531123
5.76,2.3127332683124293
5.8,2.301540802634396
5.84,2.291851264012943
5.879999999999999,2.283733860288825
5.92,2.277249690676802
5.96,2.272450963905311
5.999999999999999,2.269380305168083
6.04,2.26807017250227
6.08,2.2685424006029464
6.119999999999999,2.2708078864447336
6.16,2.2748664265845986
6.2,2.2807067109239423
6.239999999999999,2.2883064723281112
6.279999999999999,2.29763278618136
6.32,2.308642509030676
6.359999999999999,2.3212828412389928
6.3999999999999995,2.335491995255464
6.44,2.351199948859176
6.4799999999999995,2.3683292615930966
6.52,2.3867959325377877
6.56,2.4065102784659125
6.6,2.4273778131006085
6.64,2.449300110473058
6.68,2.4721756380273585
6.72,2.4959005479539638
6.76,2.5203694180705862
6.8,2.545475936268563
6.84,2.571113524997915
6.88,2.5971759044066327
6.92,2.6235575945437373
6.959999999999999,2.650154358473659
7.0,2.6768635892452934
7.04,2.703584644441505
7.08,2.7302191325421252
7.119999999999999,2.75667115560837
7.16,2.7828475128820855
7.199999999999999,2.8086578698310856
7.239999999999999,2.8340148969988674
7.28,2.858834382766498
7.32,2.883035323833408
7.359999999999999,2.9065399968946948
7.3999999999999995,2.929274014653028
7.4399999999999995,2.9511663689664593
7.4799999999999995,2.9721494636093233
7.52,2.9921591388183177
7.5600000000000005,3.011134689514347
7.599999999999999,3.0290188788348367
7.64,3.0457579483820245
7.68,3.0613016263898474
7.719999999999999,3.075603134834725
7.76,3.0886191963619476
7.800000000000001,3.1003100417683465
7.839999999999999,3.1106394186706647
7.88,3.119574601896569
7.92,3.1270864060586248
7.959999999999999,3.1331492007094917
8.0,3.137740928427045
8.040000000000001,3.1408431261393495
8.08,3.14244094996975
8.12,3.1425232038603816
8.159999999999998,3.1410823722164873
8.2,3.138114656802658
8.24,3.1336200181140907
8.28,3.127602221439801
8.32,3.1200688878282596
8.36,3.111031550158672
8.399999999999999,3.1005057145096084
8.44,3.0885109270002866
8.48,3.0750708462550493
8.52,3.0602133216060103
8.56,3.043970477099051
8.6,3.026378801300593
8.639999999999999,3.007479242811763
8.68,2.987317311278032
8.72,2.965943183529285
8.76,2.943411814291016
8.8,2.9197830506630567
8.84,2.895121749259704
8.879999999999999,2.8694978945334992
8.92,2.8429867163540203
8.959999999999999,2.81566880437137
9.0,2.787630216051073
9.040000000000001,2.7589625745124358
9.079999999999998,2.729763151428907
9.12,2.7001349292526147
9.16,2.670186635908478
9.2,2.6400327438776343
9.24,2.60979342427928
9.280000000000001,2.579594445204579
9.32,2.549567002217673
9.36,2.5198474677040106
9.399999999999999,2.4905770447317384
9.44,2.4619013104464478
9.48,2.4339696339238364
9.52,2.4069344540673154
9.559999999999999,2.380950404782851
9.6,2.3561732775157784
9.639999999999999,2.3327588154888033
9.68,2.3108613397676376
9.72,2.290632214622592
9.76,2.2722181684199674
9.8,2.255759496139282
9.84,2.2413881800248134
9.879999999999999,2.229225975076357
9.92,2.2193825151184012
9.959999999999999,2.2119535020139893
10.0,2.207019044191519
10.04,2.204642210187475
10.079999999999998,2.204867857870304
10.12,2.2077217903558335
10.16,2.2132102758429495
10.2,2.2213199516958757
10.24,2.232018114495157
10.280000000000001,2.2452533791195735
10.319999999999999,2.260956672854016
10.36,2.27904251646464
10.4,2.2994105341571798
10.44,2.321947128839046
10.48,2.3465272581177943
10.52,2.373016249507291
10.559999999999999,2.4012715995688083
10.6,2.431144710199695
10.639999999999999,2.4624825249827835
10.68,2.495129038501577
10.72,2.528926661059278
10.76,2.5637174297733054
10.799999999999999,2.5993440642234087
10.84,2.635650870570111
10.879999999999999,2.672484502341052
10.92,2.7096945890197452
10.96,2.74713424534421
11.0,2.784660475039701
11.04,2.8221344827827597
11.08,2.8594219077198693
11.12,2.8963929910162145
11.16,2.932922688830465
11.2,2.968890740914288
11.24,3.0041817038042433
11.28,3.038684956371287
11.319999999999999,3.0722946843588237
11.36,3.1049098495003404
11.4,3.1364341478742457
11.44,3.166775961331631
11.48,3.1958483051195374
11.52,3.2235687742130428
11.559999999999999,3.249859490354908
11.6,3.274647051373028
11.64,3.297862483993297
11.68,3.3194412010793264
11.72,3.339322964001919
11.759999999999998,3.357451850661935
11.799999999999999,3.3737762295530778
11.84,3.3882487401497263
11.879999999999999,3.400826279833667
11.92,3.4114699975279508
11.96,3.420145294181954
11.999999999999998,3.426821830245923
12.04,3.431473540283077
12.08,3.4340786548906297
12.12,3.4346197301359456
12.16,3.4330836847592123
12.200000000000001,3.4294618454482797
12.239999999999998,3.4237500005536985
12.28,3.415948462681798
12.32,3.4060621406800937
12.36,3.394100621611492
12.4,3.3800782634011526
12.44,3.364014298930872
12.479999999999999,3.3459329524494374
12.52,3.3258635692613203
12.559999999999999,3.303840759747542
12.6,3.2799045588580884
12.64,3.2541006022894563
12.68,3.2264803206172568
12.719999999999999,3.197101152683127
12.76,3.1660267795256387
12.799999999999999,3.133327380081043
12.84,3.099079909741436
12.88,3.0633684026199384
12.92,3.0262842980022335
12.959999999999999,2.987926790921223
12.999999999999998,2.94840320602675
13.04,2.9078293928750174
13.08,2.8663301393608656
13.12,2.82403959817677
13.16,2.7811017188120912
13.2,2.7376706746034394
13.239999999999998,2.6939112706118
13.28,2.649999313544146
13.32,2.6061219194969043
13.36,2.5624777289718126
13.4,2.5192769914911546
13.44,2.476741474450858
13.479999999999999,2.4351041430283993
13.52,2.3946085507063253
13.559999999999999,2.355507874302297
13.6,2.318063524696161
13.64,2.2825432664410843
13.68,2.2492187881110626
13.719999999999999,2.218362682561033
13.76,2.190244823885182
13.799999999999999,2.1651281664904642
13.84,2.1432640405755263
13.88,2.1248870745409407
13.919999999999998,2.1102099331386093
13.959999999999999,2.0994181128996074
14.0,2.0926650745339903
14.04,2.0900680066946458
14.08,2.0917045000840178
14.120000000000001,2.0976103629781377
14.16,2.1077787320914
14.2,2.1221605352232826
14.239999999999998,2.140666257417715
14.28,2.1631688650149585
14.32,2.1895076649192267
14.36,2.219492828297875
14.399999999999999,2.2529102917784325
14.44,2.289526762528825
14.479999999999999,2.329094589798969
14.52,2.3713563159009237
14.56,2.4160487754760527
14.6,2.462906665935442
14.64,2.5116655590720924
14.68,2.562064361273497
14.719999999999999,2.613847256752481
14.76,2.666765185438812
14.799999999999999,2.720576916153665
14.84,2.7750497782858528
14.879999999999999,2.8299601132537844
14.919999999999998,2.8850935021958737
14.959999999999999,2.940244819890627
15.0,2.995218157837058
15.04,3.049826652394759
15.079999999999998,3.103892247311714
15.120000000000001,3.157245414088898
15.159999999999998,3.209724848540839
15.199999999999998,3.261177157619182
15.24,3.311456547024827
15.28,3.3604245172675276
15.319999999999999,3.407949573550838
15.36,3.4539069530757884
15.399999999999999,3.4981783719832262
15.439999999999998,3.5406517931171146
15.48,3.5812212150228966
15.52,3.619786482040941
15.559999999999999,3.656253114968777
15.600000000000001,3.6905321615097897
15.639999999999999,3.7225400655700827
15.679999999999998,3.7521985543852825
15.72,3.779434542436406
15.76,3.8041800511342614
15.799999999999999,3.8263721433034847
15.84,3.845952871572742
15.879999999999999,3.8628692398701414
15.919999999999998,3.877073177328254
15.96,3.888521524018732
16.0,3.897176028060091
16.04,3.9030033537731654
16.080000000000002,3.905975100696952
16.12,3.9060678334230756
16.16,3.903263122361638
16.200000000000003,3.8975475957155417
16.24,3.888913003117012
16.279999999999998,3.877356291570967
16.319999999999997,3.8628796945582384
16.36,3.845490835380533
16.4,3.82520284608206
16.439999999999998,3.802034503564504
16.48,3.77601038482681
16.52,3.747161043614364
16.56,3.715523211159327
16.6,3.6811400241405066
16.64,3.6440612834938446
16.68,3.6043437482685774
16.72,3.562051469354566
16.759999999999998,3.517256168606522
16.799999999999997,3.470037669661488
16.84,3.4204843875824475
16.88,3.3686938853517034
16.919999999999998,3.3147735061594212
16.96,3.258841091344927
17.0,3.2010257946854335
17.04,3.1414690043873255
17.080000000000002,3.080325384465102
17.12,3.01776404696891
17.16,2.9539698654190985
17.2,2.889144937371168
17.24,2.823510199638655
17.279999999999998,2.757307192498653
17.32,2.690799958084613
17.36,2.624277041729295
17.4,2.558053541564418
17.44,2.492473119319278
17.48,2.4279098421257057
17.52,2.364769669871709
17.56,2.303491335221878
17.6,2.2445462864347308
17.64,2.188437283570031
17.68,2.135695170143336
17.72,2.0868733066769143
17.759999999999998,2.0425391805466253
17.799999999999997,2.0032628342612275
17.84,1.969602014929962
17.88,1.9420843557201017
17.919999999999998,1.921187431688037
17.96,1.9073181085647974
18.0,1.9007930893884792
18.04,1.9018227978185245
18.080000000000002,1.9105005845716323
18.12,1.926798665281589
18.159999999999997,1.9505712894264944
18.2,1.9815646137952636
18.24,2.019431866342604
18.279999999999998,2.0637518394938072
18.32,2.114048626226433
18.36,2.1698107570577405
18.4,2.23050837481506
18.44,2.2956076393381486
18.48,2.364582060075845
18.52,2.4369208396140967
18.560000000000002,2.5121345560282933
18.6,2.589758632133459
18.64,2.669355066996276
18.679999999999996,2.7505128734130038
18.72,2.8328476028130987
18.759999999999998,2.916000266405479
18.799999999999997,2.999635890796607
18.84,3.083441884245767
18.88,3.167126338618737
18.919999999999998,3.2504163519936733
18.96,3.333056426578327
19.0,3.4148069744587684
19.04,3.4954429480169464
19.080000000000002,3.574752601100259
19.119999999999997,3.6525363799252912
19.159999999999997,3.728605938235678
19.2,3.80278326863494
19.24,3.874899940696812
19.279999999999998,3.944796435996158
19.32,4.012321570298494
19.36,4.077331993583249
19.4,4.139691759207772
19.44,4.199271954247335
19.48,4.255950383805219
19.52,4.3096113028360685
19.560000000000002,4.3601451897396375
19.6,4.407448556647522
19.639999999999997,4.451423791936593
19.68,4.491979031057991
19.72,4.529028052271656
19.759999999999998,4.56249019432736
19.8,4.592290293538177
19.84,4.618358638057098
19.88,4.64063093749683
19.919999999999998,4.659048306332397
19.96,4.673557259801115
20.0,4.684109721269836
20.04,4.690663040280125
20.08,4.693180020713132
20.119999999999997,4.6916289587422995
20.159999999999997,4.685983690468943
20.2,4.676223649368086
20.24,4.662333933916509
20.279999999999998,4.6443053860369
20.32,4.622134681280135
20.36,4.595824431989329
20.4,4.565383305055301
20.44,4.53082615629521
20.48,4.492174183978836
20.52,4.449455104608368
20.560000000000002,4.402703354749295
20.599999999999998,4.351960323539129
20.639999999999997,4.297274621501151
20.68,4.238702392503549
20.72,4.176307677183364
20.759999999999998,4.110162837964676
20.8,4.040349058024409
20.84,3.966956929299925
20.88,3.890087148020218
20.92,3.8098513404381023
20.96,3.7263730466451794
21.0,3.639788896811027
21.04,3.550250022201648
21.08,3.457923753253817
21.119999999999997,3.362995669215326
21.159999999999997,3.2656720788383056
21.2,3.1661830297399334
21.24,3.064785965587748
21.279999999999998,2.9617701751281027
21.32,2.8574622043851403
21.36,2.7522324307338946
21.4,2.6465030198421924
21.44,2.5407574936458555
21.48,2.4355521112912237
21.52,2.3315291737929766
21.56,2.2294321554072805
21.599999999999998,2.1301221614444827
21.639999999999997,2.0345945038649633
21.68,1.9439930449741578
21.72,1.8596182930849994
21.759999999999998,1.7829231146698692
21.8,1.7154878331015313
21.84,1.6589656010046374
21.88,1.6149912590714404
21.92,1.585054566886282
21.96,1.5703520192091116
22.0,1.5716463482010765
22.04,1.5891705128337377
22.08,1.6226052650722043
22.119999999999997,1.6711367453473414
22.16,1.7335745417892057
22.2,1.8084954310775552
22.24,1.8943792534058768
22.28,1.9897158454063009
22.32,2.0930763832227504
22.36,2.2031526299313913
22.4,2.318772077803114
22.44,2.4388973812323655
22.48,2.5626169026885317
22.519999999999996,2.689131143470387
22.56,2.817738040667546
22.599999999999998,2.9478188022932934
22.639999999999997,3.078825095125891
22.68,3.210267884484142
22.72,3.3417079402751737
22.759999999999998,3.472747882177424
22.8,3.603025579019519
22.84,3.732208705324277
22.88,3.8599902688164303
22.92,3.9860849434183065
22.96,4.110226065822476
23.0,4.2321631765714125
23.04,4.351660007098917
23.08,4.46849283186632
23.119999999999997,4.582449119567322
23.16,4.693326429635336
23.2,4.8009315103126
23.24,4.905079562687083
23.28,5.005593641699828
23.32,5.102304170457354
23.36,5.195048548492175
23.400000000000002,5.283670838098251
23.44,5.368021515688945
23.479999999999997,5.447957277413817
23.519999999999996,5.523340890132363
23.56,5.594041080361414
23.599999999999998,5.659932455056332
23.639999999999997,5.720895449107385
23.68,5.776816295275652
23.72,5.827587012991448
23.759999999999998,5.873105413020815
23.8,5.9132751154945895
23.84,5.948005579207799
23.88,5.977212140450317
23.92,6.000816059934296
23.96,6.018744576651378
23.999999999999996,6.0309309677305345
24.04,6.037314613584487
24.08,6.037841067835215
24.119999999999997,6.03246213170358
24.16,6.0211359327410605
24.2,6.003827007978871
24.24,5.980506391778692
24.28,5.951151708896588
24.32,5.915747273526781
24.36,5.874284195384689
24.400000000000002,5.826760494231562
24.439999999999998,5.773181224652521
24.479999999999997,5.713558613394687
24.52,5.647912212179341
24.56,5.576269069653404
24.599999999999998,5.4986639270863895
24.64,5.415139443604976
24.68,5.325746458267157
24.72,5.230544298213624
24.759999999999998,5.129601144636089
24.8,5.022994471561853
24.84,4.910811576734278
24.88,4.79315022953616
24.92,4.670119468470638
24.959999999999997,4.541840590908253
24.999999999999996,4.408448391666933
25.04,4.270092726011194
25.08,4.126940499018685
25.119999999999997,3.9791782201773773
25.16,3.8270153143187953
25.2,3.6706884547284244
25.24,3.5104672923611706
25.28,3.3466621131046126
25.32,3.1796341884231056
25.36,3.009809932599342
25.4,2.837700501951612
25.439999999999998,2.663929257480298
25.479999999999997,2.489270690712933
25.52,2.3147061473649306
25.56,2.1415041231455345
25.599999999999998,1.9713359696929726
25.64,1.8064405469982046
25.68,1.6498499250306142
25.72,1.5056717893146794
25.76,1.3793677744322543
25.8,1.2778330056691534
25.84,1.2088797746813453
25.880000000000003,1.1796957618756996
25.919999999999998,1.1945003909404
25.959999999999997,1.252832892848155
25.999999999999996,1.3499443276171297
26.04,1.4788922816252423
26.08,1.632645030020451
26.119999999999997,1.8052116866717667
26.16,1.991909257739721
26.2,2.189211247315953
26.24,2.3944857003658213
26.28,2.605753547942696
26.32,2.821501425506961
26.36,3.0405464813084624
26.4,3.261941447033603
26.439999999999998,3.48490852919201
26.479999999999997,3.7087932848616507
26.52,3.9330322113752683
26.56,4.157129751567692
26.599999999999998,4.380641803954504
26.64,4.603163768913113
26.68,4.824321792279987
26.72,5.04376628876564
26.76,5.2611671098592225
26.8,5.476209911548641
26.84,5.688593407143827
26.88,5.898027279985218
26.919999999999998,6.104230593100468
26.959999999999997,6.3069305766785675
27.0,6.505861705366981
27.04,6.700764999756545
27.08,6.891387502634577
27.119999999999997,7.077481892460118
27.16,7.258806205288624
27.2,7.4351236429141165
27.24,7.606202449913184
27.28,7.771815846001513
27.32,7.931742002958839
27.36,8.085764057567784
27.4,8.233670153708204
27.439999999999998,8.375253508072774
27.479999999999997,8.510312495009119
27.52,8.638650746816479
27.56,8.760077266479634
27.599999999999998,8.874406550347576
27.64,8.981458718688163
27.68,9.081059652394558
27.72,9.173041134401593
27.76,9.257240994604166
27.8,9.333503257264928
27.839999999999996,9.40167829006425
27.88,9.461622954087321
27.919999999999998,9.513200754167556
27.959999999999997,9.556281989116409
28.0,9.590743901470935
28.04,9.616470826485857
28.08,9.633354340189072
28.12,9.641293406412009
28.16,9.640194522801186
28.2,9.629971865919039
28.240000000000002,9.61054743565279
28.28,9.581851199274514
28.32,9.543821235638346
28.359999999999996,9.496403880166936
28.4,9.439553871476685
28.439999999999998,9.373234500727799
