Time (s),Filtered Signal
0.0,0.003226002823069166
0.0334075723830735,-0.49207685708565085
0.066815144766147,-0.8664755352502143
0.1002227171492205,-1.032232833611256
0.133630289532294,-0.958135634739064
0.1670378619153675,-0.673701134853416
0.200445434298441,-0.2545718410431946
0.23385300668151449,0.20430650339118522
0.267260579064588,0.6170283170856309
0.3006681514476615,0.9265240217079859
0.334075723830735,1.1106435013927503
0.3674832962138085,1.1758373123424701
0.400890868596882,1.1444517955384756
0.4342984409799555,1.0426283314255587
0.46770601336302897,0.8933587209388734
0.5011135857461025,0.7153586495980933
0.534521158129176,0.5252795652471764
0.5679287305122495,0.3397045606954211
0.601336302895323,0.17443104945078047
0.6347438752783965,0.04081806878982418
0.66815144766147,-0.058825075955998084
0.7015590200445435,-0.13378311143148416
0.734966592427617,-0.20296665342998985
0.7683741648106905,-0.2879815165257009
0.801781737193764,-0.40337251463230994
0.8351893095768375,-0.5481495649451549
0.868596881959911,-0.7028994061260653
0.9020044543429845,-0.834731127219638
0.9354120267260579,-0.9087117431529445
0.9688195991091315,-0.9010956035747919
1.002227171492205,-0.808450123634188
1.0356347438752784,-0.6485591174310216
1.069042316258352,-0.4528740692033415
1.1024498886414256,-0.25421496634033747
1.135857461024499,-0.07539406206825194
1.1692650334075725,0.07637362934907303
1.202672605790646,0.20736286237365592
1.2360801781737194,0.3291663005080749
1.269487750556793,0.4486193916173639
1.3028953229398665,0.5605485142098589
1.33630289532294,0.6466582619093001
1.3697104677060135,0.6812395338442839
1.403118040089087,0.64159291598829
1.4365256124721606,0.5190808283197028
1.469933184855234,0.3261796573890124
1.5033407572383075,0.0960531714370606
1.536748329621381,-0.12617728216548169
1.5701559020044544,-0.29787928168872296
1.603563474387528,-0.3936174548889913
1.6369710467706016,-0.4138122148578462
1.670378619153675,-0.3830613519917619
1.7037861915367485,-0.33824442373370867
1.737193763919822,-0.3113715859985745
1.7706013363028954,-0.31489790206527096
1.804008908685969,-0.33627549332441586
1.8374164810690425,-0.34419627109276196
1.8708240534521159,-0.30349172290411897
1.9042316258351895,-0.1918096670221689
1.937639198218263,-0.01077818781298758
1.9710467706013366,0.2127170742859456
2.00445434298441,0.43498783689537773
2.0378619153674835,0.6096378205816644
2.071269487750557,0.7014568551441624
2.1046770601336307,0.6951654514281751
2.138084632516704,0.5968845431422906
2.1714922048997773,0.42947013770262643
2.204899777282851,0.22494986991046306
2.2383073496659245,0.017317229795017545
2.271714922048998,-0.16276832082413528
2.3051224944320716,-0.2918082079681361
2.338530066815145,-0.3569271653594557
2.3719376391982183,-0.35895831910540893
2.405345211581292,-0.3133233136535455
2.4387527839643655,-0.24630971981404884
2.472160356347439,-0.1861828341022275
2.5055679287305126,-0.1519918211204199
2.538975501113586,-0.14548483234273152
2.5723830734966593,-0.15094925505614207
2.605790645879733,-0.1438335916092414
2.6391982182628064,-0.10396843460200371
2.67260579064588,-0.02635223037173867
2.7060133630289536,0.07624589056516304
2.739420935412027,0.17992310895678526
2.7728285077951007,0.2613870951976287
2.806236080178174,0.3081191774539215
2.8396436525612474,0.3217152466762334
2.873051224944321,0.31346999121868585
2.9064587973273945,0.29566795338999047
2.939866369710468,0.27397041357648333
2.9732739420935417,0.24492355484135103
3.006681514476615,0.19919808787921628
3.0400890868596884,0.12799552425653285
3.073496659242762,0.028915052276977094
3.1069042316258355,-0.09130525204257475
3.140311804008909,-0.21762752976581573
3.1737193763919826,-0.33005231905131976
3.207126948775056,-0.40814289311583263
3.2405345211581293,-0.43592976915262216
3.273942093541203,-0.4065839577404363
3.3073496659242765,-0.325757084049282
3.34075723830735,-0.212000996717235
3.3741648106904236,-0.09318577925137649
3.407572383073497,0.0005031126411472386
3.4409799554565703,0.04458879417708707
3.474387527839644,0.026344318237717428
3.5077951002227175,-0.052982869467501054
3.541202672605791,-0.17944192553444507
3.5746102449888646,-0.32923580164179334
3.608017817371938,-0.47135761963931005
3.6414253897550113,-0.5698133294222872
3.674832962138085,-0.5870080477580655
3.7082405345211584,-0.49026747476048915
3.7416481069042318,-0.2618962107722819
3.7750556792873056,0.08957452081706337
3.808463251670379,0.5216088270752485
3.8418708240534527,0.9584670050275141
3.875278396436526,1.3037720589962114
3.9086859688195994,1.4641621443438704
3.942093541202673,1.3786054496952564
3.9755011135857465,1.043922877440875
4.00890868596882,0.525757100679925
4.042316258351893,-0.05266200615191657
4.075723830734967,-0.5440493177198551
4.109131403118041,-0.8234797618221615
4.142538975501114,-0.8311225819531642
4.1759465478841875,-0.5939641568354747
4.209354120267261,-0.21626689730887677
4.242761692650334,0.1588831329087364
4.276169265033408,0.4019456204944011
4.309576837416482,0.4417657029406012
4.342984409799555,0.2848058061635476
4.3763919821826285,0.0025656869000724235
4.409799554565702,-0.3045429586032167
4.443207126948775,-0.5488536280605594
4.476614699331849,-0.6841945572301316
4.510022271714923,-0.7116191621935479
4.543429844097996,-0.664045149252595
4.5768374164810695,-0.5811217471757585
4.610244988864143,-0.48819439330496206
4.643652561247216,-0.38872582517800447
4.67706013363029,-0.27120787898641435
4.710467706013364,-0.12406705498536888
4.743875278396437,0.05108392909393798
4.77728285077951,0.23526689002049586
4.810690423162584,0.3986288118535067
4.844097995545657,0.513223023302001
4.877505567928731,0.5647382445315449
4.910913140311805,0.5571168844630937
4.944320712694878,0.5083519839701983
4.977728285077951,0.4404963455981834
5.011135857461025,0.3695531911443243
5.044543429844098,0.30038886889033517
5.077951002227172,0.22876967177596833
5.111358574610246,0.14879763146407385
5.144766146993319,0.0612402666629426
5.178173719376392,-0.022256410710148215
5.211581291759466,-0.08205713085257504
5.244988864142539,-0.09977582844612831
5.278396436525613,-0.0693828321829874
5.311804008908687,-0.003991142709989658
5.34521158129176,0.0663149026364664
5.378619153674833,0.10586678648981765
5.412026726057907,0.08922357142705596
5.445434298440981,0.013690820071904896
5.478841870824054,-0.09814700613699223
5.512249443207128,-0.20787841476544225
5.545657015590201,-0.278670688751258
5.579064587973274,-0.29240808485460656
5.612472160356348,-0.258237714886773
5.645879732739422,-0.2082714610515988
5.679287305122495,-0.18236424870161622
5.712694877505569,-0.20909629426838358
5.746102449888642,-0.29185147858840477
5.779510022271715,-0.4064222803453956
5.812917594654789,-0.5110634743523625
5.846325167037863,-0.5639828319270818
5.879732739420936,-0.5398312697937467
5.91314031180401,-0.43765873867798094
5.946547884187083,-0.2776243632708047
5.979955456570156,-0.08980375572418091
6.01336302895323,0.09783317841458333
6.046770601336304,0.2659867248153758
6.080178173719377,0.4034124724312128
6.1135857461024505,0.5024934873465389
6.146993318485524,0.556462056989528
6.180400890868597,0.5615368857977047
6.213808463251671,0.522521295412125
6.247216035634745,0.456700553656161
6.280623608017818,0.39102747839828134
6.3140311804008915,0.35179321314415946
6.347438752783965,0.3515677225084826
6.380846325167038,0.3812682679382229
6.414253897550112,0.4132423619020671
6.447661469933186,0.41495572964585703
6.481069042316259,0.3660768938931154
6.5144766146993325,0.26902541631821086
6.547884187082406,0.1465907493086618
6.581291759465479,0.028076723810481367
6.614699331848553,-0.06744519041064018
6.648106904231627,-0.140502155926542
6.6815144766147,-0.20778058219420478
6.7149220489977735,-0.28855239036916364
6.748329621380847,-0.389697381679914
6.78173719376392,-0.4984420094953124
6.815144766146994,-0.5869002461997503
6.848552338530068,-0.6255618469993557
6.881959910913141,-0.5981987215986517
6.915367483296214,-0.5104932789996025
6.948775055679288,-0.38843572687961786
6.982182628062361,-0.26770381513070496
7.015590200445435,-0.1792072676738582
7.048997772828509,-0.1372683806479149
7.082405345211582,-0.13541656867202928
7.115812917594655,-0.15133340738573825
7.149220489977729,-0.15841512547827294
7.182628062360802,-0.13829587264360835
7.216035634743876,-0.08801351970454484
7.24944320712695,-0.018051224495960368
7.282850779510023,0.057562841028561296
7.316258351893096,0.1330350618580054
7.34966592427617,0.21657341944122538
7.383073496659243,0.32510285682938017
7.416481069042317,0.4693689647126719
7.449888641425391,0.6374827399673152
7.4832962138084635,0.7876384197056908
7.516703786191537,0.8572784581755049
7.550111358574611,0.7875983984585961
7.583518930957685,0.5532597030980528
7.616926503340758,0.18263447060976615
7.650334075723832,-0.2431221029645365
7.683741648106905,-0.6143791033812027
7.717149220489978,-0.8316099587576725
7.750556792873052,-0.8418992347482209
7.783964365256126,-0.6576507516205139
7.817371937639199,-0.34985498776336454
7.850779510022273,-0.019618890101713173
7.884187082405346,0.23929129042118874
7.917594654788419,0.37138010979501695
7.951002227171493,0.37247851642678415
7.984409799554567,0.28210454266437834
8.01781737193764,0.16102014325923827
8.051224944320714,0.06503398523121628
8.084632516703786,0.02593070388936469
8.118040089086861,0.04561663558333209
8.151447661469934,0.10283611376210705
8.184855233853007,0.16647388664411605
8.218262806236082,0.2079264968338622
8.251670378619155,0.20758808265023312
8.285077951002227,0.15522752379908866
8.318485523385302,0.04792725233469993
8.351893095768375,-0.11001996745482392
8.385300668151448,-0.30359891038602105
8.418708240534523,-0.502586228818283
8.452115812917596,-0.6615851457419567
8.485523385300668,-0.7291433613529656
8.518930957683743,-0.6656534872790696
8.552338530066816,-0.4633855274055195
8.585746102449889,-0.15812048319513966
8.619153674832964,0.17633811107684183
8.652561247216036,0.4518058781605892
8.68596881959911,0.5986034982378794
8.719376391982184,0.5924160748247256
8.752783964365257,0.4615568676898206
8.78619153674833,0.27072919894555736
8.819599109131405,0.0897995991683169
8.853006681514477,-0.03605792800705296
8.88641425389755,-0.0999758000798105
8.919821826280625,-0.12573128353790775
8.953229398663698,-0.14583202988254276
8.98663697104677,-0.17939911713301834
9.020044543429846,-0.2221541420795619
9.053452115812918,-0.2521676704442432
9.086859688195991,-0.24534947672086913
9.120267260579066,-0.18988279481544626
9.153674832962139,-0.09124386526413741
9.187082405345212,0.033302827729063345
9.220489977728286,0.164972368967744
9.25389755011136,0.29062998915251465
9.287305122494432,0.40250430497069434
9.320712694877507,0.4922363756964046
9.35412026726058,0.5454162622753592
9.387527839643653,0.5424196311885344
9.420935412026727,0.4667498147571568
9.4543429844098,0.31646846556701513
9.487750556792873,0.11144462915352758
9.521158129175948,-0.10907197897409592
9.55456570155902,-0.2987465653564448
9.587973273942094,-0.4208931827339499
9.621380846325168,-0.46155752364900304
9.654788418708241,-0.4326617176490466
9.688195991091314,-0.36413297832274644
9.721603563474389,-0.2895933577890864
9.755011135857462,-0.23311974971360858
9.788418708240535,-0.2032452174144281
9.82182628062361,-0.19573846921941604
9.855233853006682,-0.2016307781345451
9.888641425389755,-0.21443865411758645
9.92204899777283,-0.2318770120746352
9.955456570155903,-0.25154727526043863
9.988864142538976,-0.26447771182956986
10.02227171492205,-0.2523121076122134
10.055679287305123,-0.192144456276256
10.089086859688196,-0.06832751724363498
10.12249443207127,0.11439957169727168
10.155902004454344,0.3244020911644923
10.189309576837417,0.5089893016893989
10.222717149220491,0.6123229198066785
10.256124721603564,0.5983859350078089
10.289532293986637,0.4684003754962507
10.322939866369712,0.2638951491534756
10.356347438752785,0.053107174769703586
10.389755011135858,-0.09383209570359992
10.423162583518932,-0.13041252233231643
10.456570155902005,-0.049447983223936266
10.489977728285078,0.1168496293619042
10.523385300668153,0.31133120575271583
10.556792873051226,0.47386674972760867
10.590200445434299,0.5612564243927213
10.623608017817373,0.5574343027371713
10.657015590200446,0.47159093741158514
10.69042316258352,0.3278667543418897
10.723830734966594,0.153766856166804
10.757238307349667,-0.026564564108067394
10.790645879732741,-0.19277700465490122
10.824053452115814,-0.3260547004074789
10.857461024498887,-0.40949559855710954
10.890868596881962,-0.4336817769363602
10.924276169265035,-0.4048792672815992
10.957683741648108,-0.34971570095035714
10.991091314031182,-0.3108149665354075
11.024498886414255,-0.33245489100639797
11.057906458797328,-0.44108952712381416
11.091314031180403,-0.6292500081224156
11.124721603563476,-0.8509765990606434
11.158129175946549,-1.032687286472048
11.191536748329623,-1.0970592102719692
11.224944320712696,-0.9916506226999842
11.25835189309577,-0.7110682065163849
11.291759465478844,-0.303021408283611
11.325167037861917,0.14549840871986952
11.35857461024499,0.5374864911812385
11.391982182628064,0.7992312678216869
11.425389755011137,0.9039344526324707
11.45879732739421,0.8758515860557
11.492204899777285,0.7738710123703526
11.525612472160358,0.6628312252311617
11.55902004454343,0.5862142521657008
11.592427616926505,0.5524357491812213
11.625835189309578,0.5396379697728814
11.659242761692651,0.5145960956733875
11.692650334075726,0.4548223162954991
11.726057906458799,0.3622554410002351
11.759465478841872,0.26201075164633003
11.792873051224946,0.1876572147443254
11.82628062360802,0.16129689967356028
11.859688195991092,0.17910973488678872
11.893095768374167,0.21010558361072199
11.92650334075724,0.20925876212115418
11.959910913140313,0.1391652864971053
11.993318485523387,-0.009991727389110366
12.02672605790646,-0.21214792642650257
12.060133630289533,-0.4137887038498704
12.093541202672608,-0.5563563158032774
12.12694877505568,-0.6025927961546659
12.160356347438753,-0.553839657575549
12.193763919821828,-0.44902812920067153
12.227171492204901,-0.34529551290925425
12.260579064587974,-0.29008339351786244
12.293986636971049,-0.29933594920916123
12.327394209354122,-0.35289828890099795
12.360801781737194,-0.4084139481442184
12.39420935412027,-0.424918004951665
12.427616926503342,-0.3828999356185863
12.461024498886415,-0.2909467569424363
12.49443207126949,-0.1773529206455969
12.527839643652563,-0.0729937174714541
12.561247216035635,0.004808467198271256
12.59465478841871,0.0595299959069469
12.628062360801783,0.1110051736065137
12.661469933184856,0.18206015225453653
12.69487750556793,0.28292356213679903
12.728285077951004,0.4012695710228465
12.761692650334076,0.5035637502874493
12.795100222717151,0.5482210431181815
12.828507795100224,0.5049235936394377
12.861915367483297,0.37058738582003253
12.895322939866372,0.17360887641592052
12.928730512249444,-0.03599409792620989
12.962138084632517,-0.20551695227998712
12.995545657015592,-0.2981830766145416
13.028953229398665,-0.30318365179790024
13.062360801781738,-0.23436946787044427
13.095768374164813,-0.12089371728979043
13.129175946547885,0.0038835317535127283
13.162583518930958,0.1101988299169318
13.195991091314033,0.1752802030507029
13.229398663697106,0.184640444203741
13.262806236080179,0.134123914392107
13.296213808463254,0.03314056181858502
13.329621380846326,-0.09368905648144
13.3630289532294,-0.21036099686090143
13.396436525612474,-0.2802040894538139
13.429844097995547,-0.2800829453014846
13.46325167037862,-0.21084741713667565
13.496659242761694,-0.09714844431122426
13.530066815144767,0.025030550646552435
13.56347438752784,0.12742262900457543
13.596881959910915,0.20456400735583632
13.630289532293988,0.2755677226852712
13.66369710467706,0.3703427066805432
13.697104677060135,0.5071117156903392
13.730512249443208,0.6737635886246404
13.763919821826281,0.8243389095907174
13.797327394209356,0.8943216600525501
13.830734966592429,0.8285358113599312
13.864142538975502,0.6085648257012949
13.897550111358576,0.26619280924240574
13.93095768374165,-0.12446738339142166
13.964365256124722,-0.47371090857009446
13.997772828507797,-0.7105040614849139
14.03118040089087,-0.8090246573754853
14.064587973273943,-0.7953029509881245
14.097995545657017,-0.7308173443299536
14.13140311804009,-0.6809422366884035
14.164810690423163,-0.6837754412595406
14.198218262806238,-0.7347861946772087
14.23162583518931,-0.794377409713224
14.265033407572384,-0.8130040133488897
14.298440979955458,-0.7589246973085302
14.331848552338531,-0.6327787553560535
14.365256124721604,-0.4617304767670012
14.398663697104679,-0.27872278266250894
14.432071269487752,-0.1013604105499286
14.465478841870825,0.07558898236258003
14.4988864142539,0.26961123615616944
14.532293986636972,0.48947112119541364
14.565701559020045,0.7184309852511644
14.59910913140312,0.9136312936624684
14.632516703786193,1.0234274154015126
14.665924276169266,1.0132948645259392
14.69933184855234,0.8855311235073056
14.732739420935413,0.6813558280110577
14.766146993318486,0.46383866357591647
14.79955456570156,0.29054338860768686
14.832962138084634,0.19005484105990067
14.866369710467707,0.15402823381639127
14.899777282850781,0.14779795309829155
14.933184855233854,0.1327643288898041
14.966592427616927,0.08797709463391991
15.0,0.019430974340564986
