Frequency (Hz),Amplitude
0.0,4.061631887620742
0.019823788546255508,4.060281728992009
0.039647577092511016,4.056233930186212
0.059471365638766524,4.049496527812473
0.07929515418502203,4.040082934173131
0.09911894273127755,4.0280119644078844
0.11894273127753305,4.013307874922341
0.13876651982378857,3.9960004135275082
0.15859030837004406,3.9761248818372086
0.17841409691629956,3.9537222105901804
0.1982378854625551,3.928839048679582
0.2180616740088106,3.9015278667836886
0.2378854625550661,3.87184707659585
0.25770925110132165,3.839861166741831
0.27753303964757714,3.8056408565466433
0.29735682819383263,3.7692632688602377
0.31718061674008813,3.730812123162982
0.3370044052863437,3.6903779501333585
0.3568281938325991,3.6480583287553805
0.37665198237885467,3.6039581468473645
0.3964757709251102,3.558189885580581
0.41629955947136565,3.51087392808746
0.4361233480176212,3.462138891592587
0.4559471365638767,3.412121981578828
0.4757709251101322,3.3609693652623807
0.49559471365638774,3.308836560016045
0.5154185022026433,3.255888830263643
0.5352422907488987,3.2023015836716087
0.5550660792951543,3.1482607540876852
0.5748898678414097,3.093963154522426
0.5947136563876653,3.0396167784598567
0.6145374449339208,2.9854410218779406
0.6343612334801763,2.9316667915877783
0.6541850220264318,2.8785364580019577
0.6740088105726874,2.8263036025207744
0.6938325991189428,2.775232501904347
0.7136563876651982,2.7255972850947074
0.7334801762114539,2.677680693119455
0.7533039647577093,2.6317723714699306
0.7731277533039648,2.588166628552565
0.7929515418502204,2.547159605507886
0.8127753303964759,2.5090458238482034
0.8325991189427313,2.4741141094540122
0.8524229074889869,2.442642934890554
0.8722466960352424,2.414895275452764
0.8920704845814978,2.3911131342431755
0.9118942731277534,2.3715119518420624
0.931718061674009,2.356275168429629
0.9515418502202644,2.345549241069449
0.9713656387665199,2.3394394273286263
0.9911894273127755,2.3380066223028906
1.0110132158590308,2.3412654780297046
1.0308370044052866,2.3491839467731475
1.0506607929515421,2.3616842830710993
1.0704845814977975,2.3786454280338463
1.090308370044053,2.399906598486203
1.1101321585903086,2.425271826236718
1.1299559471365639,2.4545151473081472
1.1497797356828194,2.487386129622523
1.1696035242290752,2.5236154469849463
1.1894273127753305,2.562920249767426
1.209251101321586,2.6050091390677275
1.2290748898678416,2.649586612093342
1.248898678414097,2.6963569045448033
1.2687224669603525,2.7450272057075047
1.288546255506608,2.7953102611396576
1.3083700440528636,2.8469264056791013
1.3281938325991192,2.8996050868619667
1.3480176211453747,2.953085947469854
1.36784140969163,3.0071195378411315
1.3876651982378856,3.0614677257883347
1.4074889867841411,3.1159038661951195
1.4273127753303965,3.1702127850047725
1.4471365638766522,3.224190624380022
1.4669603524229078,3.277644588007668
1.4867841409691631,3.330392618276246
1.5066079295154187,3.382263030604142
1.5264317180616742,3.4330941246315856
1.5462555066079295,3.4827337873133035
1.5660792951541853,3.53103909910014
1.5859030837004409,3.577875951291182
1.6057268722466962,3.623118680173137
1.6255506607929517,3.6666497216403178
1.6453744493392073,3.708359288513939
1.6651982378854626,3.7481450716691262
1.6850220264317182,3.7859119652606883
1.7048458149779737,3.8215718157522978
1.7246696035242293,3.8550431940486147
1.7444933920704848,3.8862511897645615
1.7643171806167404,3.9151272265075954
1.7841409691629957,3.9416088969710477
1.8039647577092512,3.965639816618662
1.8237885462555068,3.987169494767193
1.8436123348017623,4.006153221932032
1.863436123348018,4.022551972381404
1.8832599118942732,4.036332320941599
1.9030837004405288,4.047466373201882
1.9229074889867843,4.0559317083819035
1.9427312775330399,4.061711334241708
1.9625550660792954,4.06479365353513
1.982378854625551,4.065172441628108
2.002202643171806,4.062846835026256
2.0220264317180616,4.0578213306777835
2.041850220264317,4.050105796040403
2.061674008810573,4.039715490023608
2.0814977973568287,4.026671095040024
2.1013215859030843,4.010998760522152
2.1211453744493394,3.9927301583833334
2.140969162995595,3.9719025510228065
2.1607929515418505,3.9485588725944223
2.180616740088106,3.922747824374978
2.2004405286343616,3.8945239851778197
2.220264317180617,3.863947937859296
2.2400881057268722,3.8310864130522364
2.2599118942731278,3.7960124513280076
2.2797356828193833,3.758805585026439
2.299559471365639,3.719552040990275
2.319383259911895,3.6783449653825686
2.3392070484581504,3.635284671632772
2.3590308370044055,3.5904789123237295
2.378854625550661,3.544043175468329
2.3986784140969166,3.496101005089701
2.418502202643172,3.4467843452654425
2.4383259911894277,3.3962339057650053
2.4581497797356833,3.3445995460304494
2.4779735682819384,3.2920406724408067
2.497797356828194,3.2387266414693716
2.5176211453744495,3.1848371583874706
2.537444933920705,3.1305626574878476
2.5572687224669606,3.076104645299715
2.577092511013216,3.021675982875917
2.5969162995594717,2.9675010769305676
2.6167400881057272,2.9138159424551793
2.6365638766519828,2.8608680916352505
2.6563876651982383,2.8089161958064217
2.676211453744494,2.7582294594597183
2.6960352422907494,2.7090866388730603
2.715859030837005,2.6617746341196016
2.73568281938326,2.6165865836573294
2.7555066079295156,2.5738193974173385
2.775330396475771,2.53377067937594
2.7951541850220267,2.496735015902675
2.8149779735682823,2.4629996429044088
2.834801762114538,2.432839552790767
2.854625550660793,2.4065121594578125
2.874449339207049,2.3842517012560926
2.8942731277533045,2.366263621175477
2.91409691629956,2.352719211170544
2.9339207048458156,2.3437508339668924
2.953744493392071,2.3394480325036504
2.9735682819383262,2.3398547996810093
2.993392070484582,2.344968210061096
3.0132158590308373,2.354738517582998
3.033039647577093,2.369070711520852
3.0528634361233484,2.3878274121722227
3.072687224669604,2.4108328932113547
3.092511013215859,2.437877950968263
3.1123348017621146,2.46872530821828
3.1321585903083706,2.5031152413237954
3.151982378854626,2.5407711494335725
3.1718061674008817,2.5814048342676386
3.1916299559471373,2.6247213190821648
3.2114537444933924,2.6704230968639724
3.231277533039648,2.718213753884019
3.2511013215859035,2.7678009612339025
3.270925110132159,2.818898862076775
3.2907488986784146,2.871229906140277
3.31057268722467,2.92452619677643
3.3303964757709252,2.9785304216492987
3.350220264317181,3.032996437877365
3.3700440528634363,3.0876895781966494
3.389867841409692,3.1423867380481454
3.4096916299559474,3.1968762956819017
3.4295154185022034,3.2509579093097263
3.4493392070484585,3.3044422276173044
3.469162995594714,3.3571505429157518
3.4889867841409696,3.408914410042596
3.508810572687225,3.459575248862714
3.5286343612334807,3.508983943841423
3.5484581497797363,3.5570004505902504
3.5682819383259914,3.6034934164255974
3.588105726872247,3.6483398197278523
3.6079295154185025,3.6914246311446086
3.627753303964758,3.732640498355566
3.6475770925110136,3.7718874551272794
3.667400881057269,3.8090726546661493
3.6872246696035247,3.8441101267688693
3.7070484581497802,3.8769205579258292
3.726872246696036,3.9074310933146355
3.7466960352422913,3.9355751594995465
3.7665198237885464,3.9612923066025907
3.7863436123348024,3.984528068715628
3.8061674008810575,4.005233841364939
3.8259911894273135,4.023366774910158
3.8458149779735686,4.038889682848476
3.8656387665198246,4.051770964098342
3.8854625550660797,4.061984538447787
3.905286343612335,4.069509794470086
3.925110132158591,4.074331549329567
3.9449339207048464,4.0764400200225674
3.964757709251102,4.075830805721735
3.9845814977973575,4.072504881015634
4.004405286343612,4.066468599959009
4.024229074889869,4.057733710973683
4.044052863436123,4.046317382763536
4.06387665198238,4.032242241532071
4.083700440528634,4.015536419914954
4.103524229074891,3.99623361816458
4.123348017621146,3.9743731782466107
4.143171806167401,3.950000171629879
4.162995594713657,3.923165501668303
4.182819383259912,3.893926021584254
4.2026431718061685,3.862344669163235
4.222466960352423,3.8284906193547927
4.242290748898679,3.7924394560361074
4.262114537444934,3.754273364224681
4.28193832599119,3.714081344010429
4.301762114537445,3.6719594473998223
4.321585903083701,3.6280110391036877
4.3414096916299565,3.582347082028377
4.361233480176212,3.535086447812317
4.381057268722468,3.486356252144422
4.400881057268723,3.4362922137524667
4.420704845814979,3.3850390347963053
4.440528634361234,3.3327507988642386
4.46035242290749,3.2795913807642223
4.4801762114537445,3.2257348597253683
4.500000000000001,3.1713659243728287
4.5198237885462555,3.116680253806657
4.539647577092512,3.061884854208098
4.559471365638767,3.007198324556085
4.579295154185023,2.952851018261534
4.599118942731278,2.8990850599189892
4.618942731277533,2.846154168186455
4.63876651982379,2.7943232275025256
4.658590308370044,2.743867543685895
4.678414096916301,2.6950717125326857
4.6982378854625555,2.648228027816082
4.718061674008811,2.60363435745417
4.737885462555067,2.561591426167829
4.757709251101322,2.5223994618487064
4.777533039647578,2.4863541928704715
4.797356828193833,2.453742225536746
4.817180616740089,2.4248358839808857
4.837004405286344,2.399887656073547
4.856828193832599,2.3791244525651263
4.876651982378855,2.36274194458298
4.896475770925111,2.3508992868725453
4.9162995594713665,2.343714551008243
4.936123348017622,2.341261176688418
4.955947136563877,2.343565697230804
4.975770925110133,2.350606910705818
4.995594713656388,2.362316560313
5.015418502202644,2.3785814709533017
5.035242290748899,2.3992469797038276
5.055066079295155,2.424121410690905
5.07488986784141,2.4529812897150127
5.094713656387666,2.4855769746843968
5.114537444933921,2.521638392020629
5.134361233480177,2.560880609515315
5.154185022026432,2.603009032948772
5.174008810572688,2.6477240772179944
5.193832599118943,2.6947252243702184
5.213656387665199,2.7437144348813574
5.2334801762114544,2.794398921490032
5.25330396475771,2.846493325937724
5.2731277533039655,2.8997213587874207
5.292951541850221,2.9538169728066364
5.312775330396477,3.008525143336023
5.332599118942731,3.0636023267523695
5.352422907488988,3.11881666245551
5.372246696035242,3.1739479762783644
5.392070484581499,3.2287876349662272
5.4118942731277535,3.2831382931734874
5.43171806167401,3.3368135667733125
5.451541850220265,3.389637659436632
5.47136563876652,3.441444963524103
5.491189427312777,3.4920796513561347
5.511013215859031,3.5413952688258434
5.530837004405288,3.589254340007046
5.550660792951542,3.635527988780836
5.570484581497798,3.6800955814524383
5.5903083700440535,3.7228443927570547
5.610132158590309,3.7636692964689904
5.6299559471365646,3.802472480956077
5.64977973568282,3.8391631893954123
5.669603524229076,3.8736574839339477
5.689427312775331,3.905878032792945
5.709251101321586,3.9357539191450783
5.729074889867842,3.9632204705080327
5.748898678414098,3.9882191073773767
5.768722466960353,4.010697209846923
5.788546255506609,4.03060800102414
5.808370044052864,4.047910446131033
5.82819383259912,4.062569166280225
5.848017621145375,4.074554366026481
5.867841409691631,4.083841773910798
5.887665198237886,4.0904125953363195
5.907488986784142,4.094253477238837
5.927312775330397,4.095356484140584
5.9471365638766525,4.093719085301421
5.966960352422908,4.089344152808128
5.986784140969164,4.082239970568869
6.00660792951542,4.072420254306772
6.026431718061675,4.059904182773234
6.04625550660793,4.0447164405295
6.066079295154186,4.026887272772436
6.085903083700441,4.006452552807944
6.105726872246697,3.983453862902323
6.125550660792952,3.957938589366109
6.145374449339208,3.929960032845411
6.1651982378854635,3.899577534908326
6.185022026431718,3.8668566221161536
6.204845814977975,3.831869168852562
6.224669603524229,3.7946935802429484
6.244493392070486,3.7554149965183767
6.264317180616741,3.7141255201503993
6.284140969162996,3.6709244669860377
6.303964757709252,3.625918642422162
6.323788546255507,3.5792226433450924
6.3436123348017635,3.5309591860859153
6.363436123348018,3.481259459957192
6.3832599118942746,3.430263504982929
6.403083700440529,3.3781206111412296
6.422907488986785,3.3249897347223945
6.44273127753304,3.271039925170124
6.462555066079296,3.21645075291011
6.482378854625551,3.16141272506865
6.502202643171807,3.106127671531523
6.5220264317180625,3.0508090784002824
6.541850220264318,2.9956823395180074
6.561674008810574,2.940984889384315
6.581497797356829,2.8869661726050992
6.601321585903085,2.833887396350545
6.62114537444934,2.7820210036999087
6.640969162995596,2.731649798128897
6.6607929515418505,2.683065644027027
6.680616740088107,2.6365676667142197
6.700440528634362,2.5924598800254657
6.720264317180618,2.55104818243976
6.740088105726873,2.5126366861436455
6.759911894273129,2.477523378963475
6.779735682819384,2.445995167162096
6.799559471365639,2.4183224061008466
6.819383259911895,2.394753091554928
6.83920704845815,2.3755069500329578
6.859030837004407,2.3607697223384507
6.8788546255506615,2.350687970179212
6.898678414096917,2.3453647411053438
6.918502202643173,2.3448563960397113
6.938325991189428,2.349170835384186
6.958149779735684,2.3582672601768797
6.977973568281939,2.3720574863788597
6.997797356828195,2.3904087094575366
7.01762114537445,2.413147509920605
7.037444933920705,2.4400648121501476
7.0572687224669615,2.4709214667817894
7.077092511013216,2.5054541221154114
7.096916299559473,2.543381077668435
7.116740088105728,2.5844078639445125
7.136563876651983,2.6282323561693897
7.156387665198239,2.6745492961898547
7.176211453744494,2.723054158161757
7.19603524229075,2.773446345088969
7.215859030837005,2.8254317424492235
7.235682819383261,2.878724681943096
7.255506607929516,2.9330493841636494
7.275330396475772,2.9881409557877787
7.295154185022027,3.043746017034256
7.314977973568283,3.09962303076472
7.334801762114538,3.1555423975314674
7.354625550660794,3.2112863724964082
7.374449339207049,3.26664885146221
7.394273127753305,3.3214350649251076
7.4140969162995605,3.375461211473006
7.433920704845816,3.4285540551985516
7.453744493392072,3.480550506134713
7.473568281938327,3.531297198013434
7.493392070484583,3.5806500738180382
7.513215859030838,3.6284739865393205
7.533039647577093,3.674642320142011
7.552863436123348,3.7190366338932894
7.572687224669605,3.7615463317991376
7.59251101321586,3.802068357849466
7.612334801762115,3.840506917016363
7.6321585903083715,3.8767732214175195
7.651982378854627,3.9107852606999014
7.671806167400882,3.9424675954750517
7.691629955947137,3.971751172515277
7.711453744493394,3.998573160372301
7.731277533039649,4.022876804089352
7.751101321585904,4.044611297725535
7.7709251101321595,4.063731673489328
7.790748898678416,4.080198706374428
7.81057268722467,4.093978833301852
7.830396475770926,4.105044085891003
7.850220264317182,4.113372036106616
7.870044052863436,4.1189457541558046
7.889867841409693,4.121753778138297
7.909691629955948,4.121790095082603
7.929515418502204,4.1190541331305175
7.9493392070484585,4.113550764763096
7.969162995594715,4.105290321090691
7.9889867841409705,4.09428861736122
8.008810572687224,4.0805669899716746
8.02863436123348,4.0641523454001
8.048458149779737,4.04507722160757
8.068281938325994,4.0233798625925505
8.088105726872246,3.9991043069116854
8.107929515418503,3.972300491110867
8.12775330396476,3.943024369135513
8.147577092511014,3.911338048906522
8.167400881057269,3.8773099473529227
8.187224669603525,3.8410149652777417
8.207048458149782,3.8025346834909675
8.226872246696036,3.7619575816600914
8.246696035242293,3.719379281289421
8.266519823788547,3.6749028141227846
8.286343612334802,3.6286389170437507
8.306167400881058,3.5807063541890063
8.325991189427315,3.531232266450467
8.345814977973568,3.4803525477671675
8.365638766519824,3.428212246531956
8.38546255506608,3.3749659889827326
8.405286343612337,3.32077841951815
8.42511013215859,3.265824650368515
8.444933920704846,3.2102907098441738
8.464757709251103,3.154373974354668
8.484581497797357,3.098283564426103
8.504405286343614,3.042240678948727
8.524229074889869,2.986478834824484
8.544052863436125,2.9312439711065656
8.56387665198238,2.876794367831442
8.583700440528636,2.82340032045142
8.60352422907489,2.771343501790473
8.623348017621145,2.720915935846509
8.643171806167402,2.672418503063784
8.662995594713658,2.626158896860079
8.682819383259913,2.5824489585475363
8.702643171806168,2.541601334823428
8.722466960352424,2.5039254309734655
8.74229074889868,2.4697226752293755
8.762114537444935,2.4392811651536728
8.78193832599119,2.4128698328952205
8.801762114537446,2.3907323370992613
8.821585903083701,2.373080956559264
8.841409691629957,2.3600908134783207
8.861233480176212,2.351894781015927
8.881057268722468,2.3485794211393145
8.900881057268723,2.350182249875856
8.92070484581498,2.3566905398842497
8.940528634361234,2.3680417542675207
8.960352422907489,2.3841255762435383
8.980176211453745,2.4047873750932567
9.000000000000002,2.429832847005771
9.019823788546258,2.459033502491523
9.039647577092511,2.492132645329639
9.059471365638768,2.528851499635125
9.079295154185024,2.5688951838863856
9.099118942731279,2.611958292749217
9.118942731277533,2.6577299178847853
9.13876651982379,2.7058980078650094
9.158590308370046,2.7561530278800515
9.1784140969163,2.8081909282256454
9.198237885462555,2.8617154654150196
9.218061674008812,2.916439941943931
9.237885462555067,2.9720884421909988
9.257709251101323,3.028396645090608
9.27753303964758,3.0851122915033447
9.297356828193834,3.1419953777679916
9.317180616740089,3.198818138461482
9.337004405286345,3.2553648721865964
9.356828193832602,3.31143165511454
9.376651982378855,3.366825978567729
9.396475770925111,3.4213663394242273
9.416299559471367,3.4748818056723474
9.436123348017622,3.5272115740400163
9.455947136563877,3.578204532197177
9.475770925110133,3.6277188344743956
9.49559471365639,3.675621497236256
9.515418502202644,3.721788017873383
9.5352422907489,3.766102019721249
9.555066079295155,3.8084549239771466
9.57488986784141,3.8487456487840856
9.594713656387666,3.8868803350105554
9.614537444933923,3.922772097818838
9.634361233480178,3.956340802834971
9.654185022026432,3.987512865571838
9.674008810572689,4.016221072684372
9.693832599118945,4.04240442362798
9.713656387665198,4.066007991331059
9.733480176211454,4.086982800565671
9.75330396475771,4.105285722797273
9.773127753303967,4.12087938640627
9.792951541850222,4.133732101297315
9.812775330396477,4.1438177970401195
9.832599118942733,4.151115973818989
9.852422907488988,4.155611665601349
9.872246696035244,4.157295415071163
9.892070484581499,4.156163260007905
9.911894273127754,4.152216730926958
9.93171806167401,4.145462859932754
9.951541850220266,4.1359142008715235
9.971365638766521,4.123588861007068
9.991189427312776,4.1085105445801
10.011013215859032,4.090708608750349
10.030837004405289,4.070218132559785
10.050660792951543,4.047079999695461
10.070484581497798,4.021340995969848
10.090308370044054,3.993053922574217
10.11013215859031,3.962277726293407
10.129955947136565,3.929077647995292
10.14977973568282,3.893525390818744
10.169603524229077,3.855699309574197
10.189427312775331,3.815684622928899
10.209251101321588,3.773573649962687
10.229074889867842,3.729466072630514
10.248898678414099,3.6834692255317623
10.268722466960353,3.6356984141331234
10.28854625550661,3.5862772621827554
10.308370044052865,3.535338088439134
10.32819383259912,3.483022311957038
10.348017621145376,3.4294808839519444
10.367841409691632,3.3748747426097023
10.387665198237887,3.319375285018176
10.407488986784141,3.263164847546602
10.427312775330398,3.2064371823579134
10.447136563876654,3.149397913170414
10.466960352422909,3.092264947763783
10.486784140969164,3.0352688179572525
10.50660792951542,2.978652909849026
10.526431718061675,2.9226735380856583
10.546255506607931,2.867599808099163
10.566079295154186,2.8137132001386145
10.585903083700442,2.7613067994154865
10.605726872246697,2.710684089098846
10.625550660792953,2.6621572190563896
10.645374449339208,2.6160446654494502
10.665198237885463,2.572668207226874
10.685022026431719,2.5323491679579155
10.704845814977975,2.4954039075734884
10.724669603524232,2.4621385995121297
10.744493392070485,2.432843393459546
