Frequency (Hz),Amplitude
0.0,1.2495892927334613
0.04,1.2502522644298901
0.08,1.2522364794326482
0.12,1.2555279218043245
0.16,1.2601035090074246
0.19999999999999998,1.2659314952368526
0.24,1.2729720117211787
0.27999999999999997,1.2811777219343867
0.32,1.2904945663337888
0.36,1.3008625696496992
0.39999999999999997,1.312216683838309
0.44,1.324487641362217
0.48,1.33760279617206
0.52,1.3514869332633148
0.5599999999999999,1.3660630316069255
0.6,1.3812529692681663
0.64,1.3969781633627099
0.6799999999999999,1.4131601409534857
0.72,1.4297210399421447
0.76,1.446584041396864
0.7999999999999999,1.4636737365804082
0.84,1.4809164332348292
0.88,1.4982404065040762
0.9199999999999999,1.515576100307182
0.96,1.5328562850928544
1.0,1.5500161777846573
1.04,1.566993529434173
1.0799999999999998,1.5837286856940012
1.1199999999999999,1.6001646247514005
1.1600000000000001,1.6162469768628807
1.2,1.6319240291283448
1.24,1.6471467186593005
1.28,1.6618686168430228
1.3199999999999998,1.6760459069900773
1.3599999999999999,1.6896373572811907
1.4,1.7026042906012453
1.44,1.7149105525624728
1.48,1.726522478773272
1.52,1.7374088622001804
1.5599999999999998,1.7475409212949338
1.5999999999999999,1.7568922694124753
1.64,1.765438885925484
1.68,1.7731590893433034
1.72,1.7800335126644538
1.76,1.7860450811298367
1.7999999999999998,1.7911789924951473
1.8399999999999999,1.7954226999041427
1.88,1.798765897416781
1.92,1.8012005082265905
1.9599999999999997,1.802720675587848
2.0,1.8033227564644765
2.0399999999999996,1.803005317907237
2.08,1.8017691361632238
2.12,1.7996171985204417
2.1599999999999997,1.796554707889641
2.2,1.7925890901245725
2.2399999999999998,1.7877300040796125
2.28,1.7819893543988246
2.3200000000000003,1.7753813070226627
2.36,1.7679223073856507
2.4,1.7596311012598054
2.44,1.7505287581724274
2.48,1.740638697291461
2.5199999999999996,1.7299867156251214
2.56,1.718601018322373
2.6,1.7065122507847388
2.6399999999999997,1.693753532204797
2.68,1.6803604900294833
2.7199999999999998,1.6663712947034302
2.76,1.6518266938751873
2.8,1.636770045043867
2.84,1.621247345381099
2.88,1.6053072571806575
2.92,1.5890011270621074
2.96,1.5723829966845733
2.9999999999999996,1.5555096023121509
3.04,1.5384403601172099
3.08,1.5212373336183045
3.1199999999999997,1.5039651791382669
3.16,1.486691064653181
3.1999999999999997,1.469484556911304
3.2399999999999998,1.4524174712678248
3.28,1.4355636783532482
3.32,1.4189988615270765
3.36,1.4028002191320177
3.4,1.3870461059333725
3.44,1.3718156088839366
3.4799999999999995,1.3571880535752399
3.52,1.3432424394880322
3.5599999999999996,1.3300568044817478
3.5999999999999996,1.317707521869605
3.64,1.3062685368650064
3.6799999999999997,1.2958105530418882
3.7199999999999998,1.286400183536634
3.76,1.278099085766358
3.7999999999999994,1.2709631021159795
3.84,1.265041431981385
3.88,1.2603758623715022
3.9199999999999995,1.257000084636022
3.96,1.2549391235632406
4.0,1.254208901994515
4.04,1.254815959316983
4.079999999999999,1.2567573360005493
4.12,1.2600206291826428
4.16,1.2645842167386079
4.199999999999999,1.2704176399218319
4.24,1.2774821281031141
4.28,1.2857312438710526
4.319999999999999,1.2951116231054676
4.36,1.3055637827517506
4.4,1.31702296886896
4.4399999999999995,1.3294200189048135
4.4799999999999995,1.3426822147597945
4.5200000000000005,1.3567341066729823
4.56,1.3714982919159762
4.6,1.386896136371327
4.640000000000001,1.4028484310111886
4.68,1.4192759788665816
4.72,1.4361001111510963
4.76,1.4532431337078056
4.8,1.4706287068744546
4.84,1.488182163242424
4.88,1.5058307686799923
4.92,1.5235039324753135
4.96,1.5411333726098262
5.0,1.5586532420758363
5.039999999999999,1.576000221873346
5.08,1.5931135859206436
5.12,1.6099352426406939
5.159999999999999,1.6264097574791807
5.2,1.6424843600996657
5.24,1.6581089395072899
5.279999999999999,1.6732360298887128
5.319999999999999,1.6878207895309596
5.36,1.7018209747998971
5.3999999999999995,1.7151969108213305
5.4399999999999995,1.727911460213211
5.48,1.7399299909641652
5.52,1.7512203443377967
5.56,1.7617528035009635
5.6,1.7715000634230005
5.64,1.7804372024686892
5.68,1.788541656006498
5.72,1.7957931922722397
5.76,1.8021738906639129
5.8,1.807668122593324
5.84,1.8122625349816854
5.879999999999999,1.8159460364581073
5.92,1.8187097862992792
5.96,1.8205471861348634
5.999999999999999,1.8214538744340736
6.04,1.821427723783941
6.08,1.8204688409673446
6.119999999999999,1.8185795698483527
6.16,1.8157644970723934
6.2,1.8120304605887805
6.239999999999999,1.8073865610017783
6.279999999999999,1.8018441757529544
6.32,1.7954169761308993
6.359999999999999,1.788120947093271
6.3999999999999995,1.7799744098691286
6.44,1.7709980472853624
6.4799999999999995,1.7612149317276133
6.52,1.750650555601765
6.56,1.7393328641041306
6.6,1.7272922900347225
6.64,1.714561790295017
6.68,1.701176883596523
6.72,1.6871756887651417
6.76,1.672598962855327
6.8,1.6574901380829268
6.84,1.6418953563423506
6.88,1.6258634997886596
6.92,1.609446215634696
6.959999999999999,1.5926979329357875
7.0,1.5756758687090797
7.04,1.5584400202636113
7.08,1.5410531401071648
7.119999999999999,1.523580689256893
7.16,1.5060907642311274
7.199999999999999,1.488653992464685
7.239999999999999,1.47134339040431
7.28,1.4542341781518031
7.32,1.4374035442866178
7.359999999999999,1.4209303544879175
7.3999999999999995,1.404894797867385
7.4399999999999995,1.389377965604341
7.4799999999999995,1.3744613576299431
7.52,1.3602263148135059
7.5600000000000005,1.346753376415864
7.599999999999999,1.3341215655092662
7.64,1.322407608585054
7.68,1.3116850995738962
7.719999999999999,1.3020236228052153
7.76,1.293487853763758
7.800000000000001,1.2861366605209434
7.839999999999999,1.2800222320320573
7.88,1.2751892616902523
7.92,1.2716742152448035
7.959999999999999,1.2695047111468796
8.0,1.2686990384536152
8.040000000000001,1.2692658326585688
8.08,1.2712039234851946
8.12,1.274502361227921
8.159999999999998,1.2791406202402047
8.2,1.2850889703061579
8.24,1.2923089995315793
8.28,1.3007542665931608
8.32,1.310371056072287
8.36,1.321099208357673
8.399999999999999,1.3328729952138216
8.44,1.345622013391429
8.48,1.3592720712844883
8.52,1.3737460472283163
8.56,1.3889647021768996
8.6,1.4048474338219843
8.639999999999999,1.421312963404093
8.68,1.4382799502834092
8.72,1.4556675326316084
8.76,1.4733957952979526
8.8,1.4913861679793334
8.84,1.509561758316948
8.879999999999999,1.5278476255148934
8.92,1.546171000608848
8.959999999999999,1.5644614596910253
9.0,1.582651056304961
9.040000000000001,1.600674418934785
9.079999999999998,1.6184688190941958
9.12,1.6359742150226475
9.16,1.6531332754625416
9.2,1.6698913874523418
9.24,1.6861966515489966
9.280000000000001,1.7019998674034802
9.32,1.7172545121650642
9.36,1.7319167137871474
9.399999999999999,1.7459452209518067
9.44,1.7593013710203849
9.48,1.7719490571512546
9.52,1.7838546954993595
9.559999999999999,1.7949871932222194
9.6,1.8053179178587453
9.639999999999999,1.8148206685175396
9.68,1.8234716492056404
9.72,1.83124944454421
9.76,1.8381349980506845
9.8,1.8441115931152792
9.84,1.8491648367601785
9.879999999999999,1.8532826462409964
9.92,1.8564552385293924
9.959999999999999,1.8586751227021785
10.0,1.8599370952538246
10.04,1.860238238345083
10.079999999999998,1.859577920999254
10.12,1.8579578032581436
10.16,1.8553818433114966
10.2,1.8518563076151473
10.24,1.8473897840137747
10.280000000000001,1.8419931978827238
10.319999999999999,1.8356798312988016
10.36,1.8284653452411934
10.4,1.8203678048091587
10.44,1.8114077074214416
10.48,1.8016080139316284
10.52,1.7909941825519
10.559999999999999,1.7795942054221494
10.6,1.7674386475901223
10.639999999999999,1.754560688076923
10.68,1.7409961625886565
10.72,1.7267836072939502
10.76,1.7119643029153455
10.799999999999999,1.6965823181748243
10.84,1.6806845513858295
10.879999999999999,1.6643207686910346
10.92,1.6475436371033194
10.96,1.6304087501130482
11.0,1.6129746431770673
11.04,1.5953027959042851
11.08,1.5774576172043193
11.12,1.5595064090790616
11.16,1.5415193041284831
11.2,1.5235691712365753
11.24,1.5057314833356947
11.28,1.4880841406654395
11.319999999999999,1.4707072426053083
11.36,1.4536828010428262
11.4,1.43709438842704
11.44,1.4210267142457236
11.48,1.4055651247521173
11.52,1.3907950224440284
11.559999999999999,1.3768012041362823
11.6,1.3636671195012737
11.64,1.3514740556615599
11.68,1.3403002577090437
11.72,1.3302199997158528
11.759999999999998,1.3213026256154548
11.799999999999999,1.313611583903791
11.84,1.3072034840059896
11.879999999999999,1.3021272049148418
11.92,1.29842308789994
11.96,1.2961222443713647
11.999999999999998,1.2952460071746383
12.04,1.295805548716323
12.08,1.297801682622897
12.12,1.3012248575889351
12.16,1.3060553433136242
12.200000000000001,1.3122635996887815
12.239999999999998,1.3198108124146306
12.28,1.3286495716109783
12.32,1.3387246652162523
12.36,1.349973956260174
12.4,1.3623293124647664
12.44,1.375717557878566
12.479999999999999,1.3900614190346003
12.52,1.4052804420111549
12.559999999999999,1.4212918613100356
12.6,1.4380114062237364
12.64,1.455354034984116
12.68,1.4732345912020641
12.719999999999999,1.491568380745862
12.76,1.5102716701768355
12.799999999999999,1.5292621101476578
12.84,1.5484590888071683
12.88,1.567784021317337
12.92,1.5871605821627164
12.959999999999999,1.6065148871169475
12.999999999999998,1.62577563161748
13.04,1.6448741919726937
13.08,1.6637446953572403
13.12,1.6823240640000512
13.16,1.700552038380977
13.2,1.7183711836606506
13.239999999999998,1.7357268829976795
13.28,1.752567320874024
13.32,1.7688434590624644
13.36,1.7845090074341823
13.4,1.799520391420716
13.44,1.8138367176114631
13.479999999999999,1.8274197386823072
13.52,1.8402338186094105
13.559999999999999,1.8522458989195822
13.6,1.8634254665611953
13.64,1.873744523842336
13.68,1.8831775607720163
13.719999999999999,1.8917015300517634
13.76,1.8992958248956688
13.799999999999999,1.9059422598034228
13.84,1.911625054371006
13.88,1.9163308201946514
13.919999999999998,1.9200485509037615
13.959999999999999,1.9227696153457539
14.0,1.9244877539388965
14.04,1.9251990782066497
14.08,1.9249020735078055
14.120000000000001,1.9235976049794692
14.16,1.9212889267142366
14.2,1.9179816941967114
14.239999999999998,1.9136839800283856
14.28,1.9084062929710652
14.32,1.90216160033793
14.36,1.8949653537556286
14.399999999999999,1.8868355183097214
14.44,1.8777926050674087
14.479999999999999,1.8678597069441663
14.52,1.8570625378421384
14.56,1.8454294749357378
14.6,1.8329916039106358
14.64,1.819782766872974
14.68,1.8058396125321097
14.719999999999999,1.7912016481184923
14.76,1.7759112923229572
14.799999999999999,1.760013928330359
14.84,1.7435579557625136
14.879999999999999,1.7265948400382545
14.919999999999998,1.7091791572961037
14.959999999999999,1.6913686326031263
15.0,1.6732241686891551
15.04,1.6548098618978335
15.079999999999998,1.6361930014376351
15.120000000000001,1.617444047355678
15.159999999999998,1.5986365819590893
15.199999999999998,1.5798472286977374
15.24,1.5611555318330306
15.28,1.542643789599667
15.319999999999999,1.524396833084777
15.36,1.5065017427826917
15.399999999999999,1.4890474948299635
15.439999999999998,1.47212452939427
15.48,1.4558242346983568
15.52,1.4402383418205227
15.559999999999999,1.4254582278218562
15.600000000000001,1.4115741279679532
15.639999999999999,1.3986742618402705
15.679999999999998,1.3868438828907077
15.72,1.37616426630091
15.76,1.366711655572042
15.799999999999999,1.3585561936855046
15.84,1.351760869444874
15.879999999999999,1.3463805131905677
15.919999999999998,1.3424608779419116
15.96,1.3400378417301615
16.0,1.3391367641741465
16.04,1.3397720251892922
16.080000000000002,1.341946766355085
16.12,1.3456528464088862
16.16,1.3508710123157701
16.200000000000003,1.357571277242294
16.24,1.3657134874068677
16.279999999999998,1.3752480519565167
16.319999999999997,1.3861168042937964
16.36,1.3982539599534085
16.4,1.411587135235076
16.439999999999998,1.4260383921218729
16.48,1.4415252781501164
16.52,1.4579618343387724
16.56,1.4752595494935372
16.6,1.4933282446691287
16.64,1.512076876880781
16.68,1.5314142559865336
16.72,1.551249672813054
16.759999999999998,1.5714934399680818
16.799999999999997,1.5920573493568082
16.84,1.6128550522438083
16.88,1.6338023688629728
16.919999999999998,1.6548175351831742
16.96,1.6758213946010514
17.0,1.6967375421625903
17.04,1.7174924285103004
17.080000000000002,1.7380154301948367
17.12,1.7582388923457795
17.16,1.7780981490171623
17.2,1.7975315258475248
17.24,1.8164803290271796
17.279999999999998,1.8348888239650094
17.32,1.8527042065020154
17.36,1.8698765690342674
17.4,1.886358863483096
17.44,1.9021068626845004
17.48,1.9170791214570806
17.52,1.931236938345415
17.56,1.9445443188166733
17.6,1.9569679405085025
17.64,1.9684771209797345
17.68,1.9790437882981884
17.72,1.988642454707057
17.759999999999998,1.9972501935394853
17.799999999999997,2.0048466194964694
17.84,2.0114138723631267
17.88,2.016936604210503
17.919999999999998,2.0214019701116785
17.96,2.0247996223905598
18.0,2.0271217084177473
18.04,2.0283628719684836
18.080000000000002,2.02852025816229
18.12,2.0275935220106898
18.159999999999997,2.0255848406080488
18.2,2.022498929009488
18.24,2.0183430598484784
18.279999999999998,2.013127086753824
18.32,2.006863471630228
18.36,1.9995673158674296
18.4,1.9912563955382447
18.44,1.9819512006344842
18.48,1.9716749783691714
18.52,1.9604537805421802
18.560000000000002,1.9483165149205846
18.6,1.9352950005225902
18.64,1.9214240266100557
18.679999999999996,1.9067414150857187
18.72,1.8912880858517311
18.759999999999998,1.8751081245104504
18.799999999999997,1.8582488515702666
18.84,1.8407608920513663
18.88,1.822698244061445
18.919999999999998,1.8041183445220383
18.96,1.785082129764812
19.0,1.7656540881779401
19.04,1.7459023014614623
19.080000000000002,1.7258984703457954
19.119999999999997,1.7057179198443944
19.159999999999997,1.6854395782605112
19.2,1.6651459232706594
19.24,1.6449228874975796
19.279999999999998,1.6248597151133741
19.32,1.6050487602478678
19.36,1.5855852174088896
19.4,1.5665667738631983
19.44,1.5480931741130295
19.48,1.530265687384317
19.52,1.513186470574513
19.560000000000002,1.4969578215368171
19.6,1.4816813210181057
19.639999999999997,1.4674568660728347
19.68,1.454381603305953
19.72,1.4425487766922631
19.759999999999998,1.4320465116669272
19.8,1.4229565642173512
19.84,1.4153530702224915
19.88,1.409301335579625
19.919999999999998,1.4048567110063688
19.96,1.4020635961638492
20.0,1.4009546154629033
20.04,1.4015500024301846
20.08,1.4038572210264328
20.119999999999997,1.4078708414002217
20.159999999999997,1.4135726751252224
20.2,1.4209321621144173
20.24,1.4299069892952678
20.279999999999998,1.4404439108217306
20.32,1.4524797318975267
20.36,1.4659424136526018
20.4,1.480752255039353
20.44,1.4968231091440847
20.48,1.514063595129091
20.52,1.5323782725629593
20.560000000000002,1.5516687514472522
20.599999999999998,1.5718347181376384
20.639999999999997,1.5927748640299326
20.68,1.614387709923529
20.72,1.6365723241259778
20.759999999999998,1.6592289365003725
20.8,1.682259453770577
20.84,1.7055678835586476
20.88,1.7290606759537992
20.92,1.7526469920489296
20.96,1.7762389089780342
21.0,1.7997515706882143
21.04,1.8231032931060405
21.08,1.8462156316145473
21.119999999999997,1.8690134179248488
21.159999999999997,1.8914247725677171
21.2,1.9133810983895059
21.24,1.9348170596432956
21.279999999999998,1.955670550538323
21.32,1.9758826564577836
21.36,1.9953976104807478
21.4,2.0141627473458645
21.44,2.0321284565692816
21.48,2.049248136070643
21.52,2.0654781473621853
21.56,2.080777773109917
21.599999999999998,2.0951091776761084
21.639999999999997,2.1084373710917896
21.68,2.120730176781304
21.72,2.1319582032628372
21.759999999999998,2.1420948199742496
21.8,2.1511161373191743
21.84,2.159000990990013
21.88,2.16573093059985
21.92,2.171290212641512
21.96,2.1756657977872162
22.0,2.1788473525444765
22.04,2.18082725529188
22.08,2.1816006067304023
22.119999999999997,2.181165244801328
22.16,2.179521764139209
22.2,2.176673540146684
22.24,2.1726267577966425
22.28,2.167390445284665
22.32,2.1609765126701825
22.36,2.1533997956567936
22.4,2.1446781046689676
22.44,2.1348322793827457
22.48,2.123886248858709
22.519999999999996,2.111867097404961
22.56,2.098805136261671
22.599999999999998,2.084733981143919
22.639999999999997,2.069690635600624
22.68,2.053715580038995
22.72,2.0368528661192618
22.759999999999998,2.0191502160356687
22.8,2.000659125957601
22.84,1.981434972599161
22.88,1.9615371215048052
22.92,1.9410290351707038
22.96,1.9199783785531779
23.0,1.8984571188346167
23.04,1.876541615512246
23.08,1.8543126959381886
23.119999999999997,1.8318557103672821
23.16,1.8092605593681446
23.2,1.786621685140413
23.24,1.764038016892643
23.28,1.741612859027622
23.32,1.7194537095417746
23.36,1.6976719948923
23.400000000000002,1.676382706778063
23.44,1.655703926015398
23.479999999999997,1.6357562192010304
23.519999999999996,1.6166618953972973
23.56,1.5985441129091702
23.599999999999998,1.581525830575313
23.639999999999997,1.5657286040170886
23.68,1.5512712349983995
23.72,1.5382682912733086
23.759999999999998,1.5268285246239366
23.8,1.5170532255360742
23.84,1.5090345631835902
23.88,1.5028539679620763
23.92,1.4985806195225742
23.96,1.4962701050089122
23.999999999999996,1.4959633092006905
24.04,1.497685590205536
24.08,1.5014462815417355
24.119999999999997,1.5072385448644416
24.16,1.5150395787205
24.2,1.524811169414621
24.24,1.5365005522376025
24.28,1.5500415366176414
24.32,1.5653558384054087
24.36,1.5823545570765392
24.400000000000002,1.6009397350802606
24.439999999999998,1.6210059402876063
24.479999999999997,1.6424418195257622
24.52,1.665131580376566
24.56,1.6889563686186937
24.599999999999998,1.7137955189012686
24.64,1.7395276656781418
24.68,1.7660317095923468
24.72,1.7931876411123686
24.759999999999998,1.8208772282234496
24.8,1.8489845784575838
24.84,1.8773965876896976
24.88,1.9060032891691097
24.92,1.9346981164393504
24.959999999999997,1.9633780933572336
24.999999999999996,1.9919439635566125
25.04,2.020300270580059
25.08,2.0483553986539054
25.119999999999997,2.0760215828050343
25.16,2.1032148957794776
25.2,2.129855218067234
25.24,2.155866196290139
25.28,2.1811751942819417
25.32,2.205713240384674
25.36,2.229414973797575
25.4,2.252218592237565
25.439999999999998,2.2740658026916045
25.479999999999997,2.294901776651113
25.52,2.314675110905308
25.56,2.3333377947230005
25.599999999999998,2.3508451840618814
25.64,2.367155983301119
25.68,2.3822322348903735
25.72,2.3960393172388117
25.76,2.4085459511262126
25.8,2.419724214899955
25.84,2.429549568722357
25.880000000000003,2.4380008881496256
25.919999999999998,2.4450605073532676
25.959999999999997,2.4507142723350577
25.999999999999996,2.4549516045354007
26.04,2.4577655752900434
26.08,2.4591529916497095
26.119999999999997,2.4591144941392846
26.16,2.45765466709531
26.2,2.4547821622801465
26.24,2.450509836524668
26.28,2.444854904194973
26.32,2.4378391053067356
26.36,2.4294888901172857
26.4,2.4198356210016017
26.439999999999998,2.4089157923539224
26.479999999999997,2.3967712691387115
26.52,2.3834495445266897
26.56,2.369004016774473
26.599999999999998,2.3534942851158354
26.64,2.336986463900286
26.68,2.319553513507818
26.72,2.3012755856484604
26.76,2.282240379480565
26.8,2.2625435035056674
26.84,2.2422888363764795
26.88,2.221588877544235
26.919999999999998,2.200565076041427
26.959999999999997,2.179348122632026
27.0,2.158078187082356
27.04,2.136905078477447
27.08,2.115988302462853
27.119999999999997,2.095496985252955
27.16,2.075609630546673
27.2,2.056513672594911
27.24,2.0384047871709177
27.28,2.021485922833857
27.32,2.0059660184578574
27.36,1.9920583803384246
27.4,1.9799787039703576
27.439999999999998,1.9699427421986435
27.479999999999997,1.9621636427475833
27.52,1.956849003295366
27.56,1.9541977195918825
27.599999999999998,1.954396729062518
27.64,1.957617775655442
27.68,1.9640143378341135
27.72,1.9737188673387223
27.76,1.9868404793602465
27.8,2.003463214395928
27.839999999999996,2.023644959545117
27.88,2.047417075551928
27.919999999999998,2.074784730168149
27.959999999999997,2.1057278937220354
28.0,2.140202914164583
28.04,2.1781445601888123
28.08,2.2194684044153976
28.12,2.2640734143621652
