Frequency (Hz),Amplitude
0.0,0.37051601417391433
0.019867549668874173,0.3715280826497479
0.039735099337748346,0.37454391714734553
0.059602649006622516,0.37950403370284275
0.07947019867549669,0.3863144170061504
0.09933774834437085,0.39485323968231956
0.11920529801324503,0.4049786424613645
0.13907284768211922,0.41653652340531666
0.15894039735099338,0.42936752463202
0.17880794701986755,0.4433127382714822
0.1986754966887417,0.45821796885787014
0.2185430463576159,0.47393662253757357
0.23841059602649006,0.4903314281349366
0.2582781456953642,0.507275246432643
0.27814569536423844,0.5246512192275746
0.2980132450331126,0.5423524749307739
0.31788079470198677,0.560281561898331
0.33774834437086093,0.5783497359058968
0.3576158940397351,0.5964761898232512
0.3774834437086093,0.6145872833626815
0.3973509933774834,0.6326158084261896
0.4172185430463576,0.6505003098189268
0.4370860927152318,0.668184470465522
0.45695364238410596,0.6856165634123507
0.4768211920529801,0.7027489687154966
0.49668874172185434,0.7195377509499995
0.5165562913907285,0.7359422919141351
0.5364238410596026,0.7519249727019962
0.5562913907284769,0.7674508993814783
0.5761589403973509,0.7824876668431408
0.5960264900662252,0.7970051558464732
0.6158940397350993,0.8109753588053048
0.6357615894039735,0.8243722303716291
0.6556291390728477,0.8371715593702697
0.6754966887417219,0.8493508590893978
0.695364238410596,0.8608892733400769
0.7152317880794702,0.8717674960582388
0.7350993377483444,0.881967702538533
0.7549668874172186,0.8914734906644852
0.7748344370860927,0.900269830736986
0.7947019867549668,0.9083430227084106
0.8145695364238411,0.9156806598066046
0.8344370860927152,0.9222715976852727
0.8543046357615894,0.9281059283692688
0.8741721854304636,0.9331749583765452
0.8940397350993378,0.9374711904985037
0.9139072847682119,0.9409883088061808
0.9337748344370861,0.9437211665268271
0.9536423841059603,0.9456657765027294
0.9735099337748344,0.9468193040058251
0.9933774834437087,0.9471800617371869
1.0132450331125828,0.9467475068925524
1.033112582781457,0.9455222402243054
1.0529801324503312,0.9435060070777723
1.0728476821192052,0.9407017004270982
1.0927152317880795,0.9371133659833082
1.1125827814569538,0.9327462094967923
1.1324503311258278,0.9276066064286788
1.1523178807947019,0.921702114221753
1.1721854304635762,0.9150414874632712
1.1920529801324504,0.9076346963007914
1.2119205298013245,0.8994929485491246
1.2317880794701985,0.8906287160142992
1.2516556291390728,0.881055765660729
1.271523178807947,0.8707891963633814
1.2913907284768211,0.8598454821200626
1.3112582781456954,0.848242522754064
1.3311258278145695,0.8359997033167113
1.3509933774834437,0.8231379636084364
1.370860927152318,0.8096798794785541
1.390728476821192,0.7956497578438788
1.410596026490066,0.781073747688048
1.4304635761589404,0.7659799696711628
1.4503311258278146,0.7503986673948738
1.4701986754966887,0.7343623838302648
1.4900662251655628,0.7179061669195264
1.5099337748344372,0.7010678088905473
1.5298013245033113,0.683888124349858
1.5496688741721854,0.6664112726905712
1.5695364238410596,0.6486851306857618
1.5894039735099337,0.630761721199886
1.609271523178808,0.6126977035356609
1.6291390728476822,0.5945549297318057
1.6490066225165563,0.5764010686873219
1.6688741721854303,0.5583102956684194
1.6887417218543048,0.5403640376787363
1.7086092715231789,0.5226517541969338
1.728476821192053,0.5052717165170532
1.7483443708609272,0.48833172586351675
1.7682119205298013,0.4719496793353128
1.7880794701986755,0.4562538532694165
1.8079470198675496,0.4413827277232751
1.8278145695364238,0.4274841294391984
1.847682119205298,0.4147134361049607
1.8675496688741722,0.40323058207192325
1.8874172185430464,0.39319566199999145
1.9072847682119205,0.384763071857337
1.9271523178807946,0.3780743705923765
1.9470198675496688,0.37325037135388867
1.9668874172185429,0.37038330884943704
1.9867549668874174,0.36953016327848864
2.0066225165562916,0.37070822710797807
2.0264900662251657,0.3738937124477693
2.0463576158940397,0.37902366151614775
2.066225165562914,0.38600080142924426
2.086092715231788,0.39470048026198107
2.1059602649006623,0.4049785798956335
2.1258278145695364,0.41667935014351015
2.1456953642384105,0.4296423678612269
2.165562913907285,0.4437081673467449
2.185430463576159,0.4587224041092404
2.205298013245033,0.474538642042489
2.2251655629139075,0.49101998165102717
2.2450331125827816,0.5080397919188265
2.2649006622516556,0.525481799000593
2.2847682119205297,0.5432397473558006
2.3046357615894038,0.5612168020515885
2.324503311258278,0.5793248158281016
2.3443708609271523,0.5974835463365147
2.364238410596027,0.615619879185145
2.384105960264901,0.6336670905469562
2.403973509933775,0.6515641677583659
2.423841059602649,0.6692551960727571
2.443708609271523,0.686688813165655
2.463576158940397,0.7038177290211255
2.4834437086092715,0.7205983066238226
2.5033112582781456,0.7369901978305495
2.52317880794702,0.7529560284736447
2.543046357615894,0.7684611268653538
2.562913907284768,0.7834732902355275
2.5827814569536423,0.7979625841194105
2.6026490066225163,0.8119011702413339
2.622516556291391,0.8252631589661352
2.642384105960265,0.8380244828874549
2.662251655629139,0.8501627885771491
2.6821192052980134,0.8616573439279779
2.7019867549668874,0.8724889588816394
2.7218543046357615,0.882639917649166
2.741721854304636,0.8920939208040617
2.76158940397351,0.9008360358646545
2.781456953642384,0.9088526551860351
2.801324503311258,0.9161314601573425
2.821192052980132,0.9226613908510225
2.8410596026490067,0.9284326204015442
2.8609271523178808,0.9334365335034804
2.8807947019867552,0.9376657085172161
2.9006622516556293,0.94111390275627
2.9205298013245033,0.9437760406059115
2.9403973509933774,0.9456482041899243
2.9602649006622515,0.9467276263632751
2.9801324503311255,0.9470126858637855
3.0,0.9465029045075329
3.0198675496688745,0.9451989463617735
3.0397350993377485,0.9431026188766852
3.0596026490066226,0.940216876004109
3.0794701986754967,0.9365458233795144
3.0993377483443707,0.9320947256927556
3.119205298013245,0.9268700164258347
3.1390728476821192,0.920879310192614
3.1589403973509933,0.9141314179776571
3.1788079470198674,0.9066363656409617
3.198675496688742,0.8984054161334882
3.218543046357616,0.8894510959574611
3.23841059602649,0.8797872265076873
3.2582781456953644,0.8694289610477616
3.2781456953642385,0.8583928282115552
3.2980132450331126,0.8466967830787125
3.3178807947019866,0.8343602670573488
3.3377483443708607,0.8214042780213576
3.3576158940397347,0.8078514523991072
3.3774834437086096,0.7937261611990465
3.3973509933774837,0.7790546222911037
3.4172185430463577,0.7638650316445448
3.437086092715232,0.7481877166563081
3.456953642384106,0.7320553151880459
3.47682119205298,0.7155029844599291
3.4966887417218544,0.6985686445104299
3.5165562913907285,0.6812932614951696
3.5364238410596025,0.6637211766137006
3.556291390728477,0.6459004868361653
3.576158940397351,0.6278834837145506
3.596026490066225,0.6097271561955121
3.615894039735099,0.5914937621805624
3.6357615894039736,0.5732514711359518
3.6556291390728477,0.555075075663545
3.6754966887417218,0.5370467626793797
3.695364238410596,0.5192569234901676
3.7152317880794703,0.50180496511679
3.7350993377483444,0.48480006105996365
3.754966887417219,0.46836174694511884
3.774834437086093,0.45262022474247277
3.794701986754967,0.4377161905158066
3.814569536423841,0.4237999512690619
3.834437086092715,0.41102955958317416
3.854304635761589,0.39956769210535276
3.8741721854304636,0.3895770588840955
3.8940397350993377,0.3812142849060867
3.9139072847682117,0.3746224678259903
3.9337748344370858,0.36992296440349115
3.9536423841059607,0.3672073150441834
3.9735099337748347,0.36653045392068284
3.993377483443709,0.3679063388049918
4.013245033112583,0.37130680506359504
4.033112582781457,0.37666386387246853
4.052980132450331,0.3838750068985841
4.072847682119205,0.3928105664292516
4.0927152317880795,0.4033219578430238
4.112582781456953,0.4152497156838908
4.132450331125828,0.4284305289985469
4.152317880794702,0.44270284790724534
4.172185430463576,0.45791095842678514
4.19205298013245,0.4739076485565204
4.211920529801325,0.49055570840877805
4.231788079470199,0.5077285429421217
4.251655629139073,0.5253101586128787
4.271523178807947,0.543194742151317
4.291390728476821,0.5612859994242302
4.311258278145695,0.5794963755426275
4.33112582781457,0.5977462386197792
4.3509933774834435,0.6159630798684949
4.370860927152318,0.6340807612044748
4.390728476821192,0.6520388266606483
4.410596026490066,0.6697818841070973
4.43046357615894,0.6872590576043789
4.450331125827815,0.7044235070797435
4.470198675496689,0.7212320100677372
4.490066225165563,0.7376445994035705
4.509933774834438,0.7536242505819699
4.529801324503311,0.7691366127185417
4.549668874172186,0.7841497774905205
4.569536423841059,0.7986340809736361
4.589403973509934,0.8125619338585532
4.6092715231788075,0.825907676083566
4.629139072847682,0.8386474524348297
4.649006622516556,0.8507591061332739
4.66887417218543,0.8622220878421828
4.688741721854305,0.8730173778946831
4.708609271523179,0.8831274198579315
4.728476821192054,0.8925360638252341
4.748344370860927,0.9012285180644595
4.768211920529802,0.9091913078543321
4.788079470198675,0.9164122405154964
4.80794701986755,0.9228803757933023
4.827814569536423,0.9285860008791755
4.847682119205298,0.9335206094693999
4.867549668874172,0.9376768843573544
4.887417218543046,0.9410486831403567
4.9072847682119205,0.9436310266972192
4.927152317880794,0.9454200901592952
4.947019867549669,0.9464131961577756
4.966887417218543,0.9466088101853954
4.986754966887418,0.9460065379614522
5.006622516556291,0.9446071247381571
5.026490066225166,0.9424124565334048
5.04635761589404,0.9394255633220221
5.066225165562914,0.9356506242656368
5.086092715231788,0.931092975110545
5.105960264900662,0.9257591179363477
5.125827814569536,0.9196567334950678
5.14569536423841,0.9127946964435897
5.1655629139072845,0.9051830938428275
5.185430463576159,0.8968332473766679
5.205298013245033,0.8877577398346579
5.225165562913908,0.8779704465069887
5.245033112582782,0.8674865722611682
5.264900662251656,0.8563226952105676
5.28476821192053,0.8444968180482892
5.304635761589404,0.8320284283111293
5.324503311258278,0.8189385690614011
5.344370860927152,0.8052499217344837
5.364238410596027,0.7909869032030924
5.3841059602649,0.7761757794603815
5.403973509933775,0.7608447987287811
5.4238410596026485,0.7450243472636239
5.443708609271523,0.7287471316415934
5.463576158940397,0.7120483918992434
5.483443708609272,0.6949661505051562
5.503311258278146,0.6775415027826038
5.52317880794702,0.659818954999357
5.543046357615895,0.6418468168221487
5.562913907284768,0.6236776550574052
5.582781456953643,0.6053688153474572
5.602649006622516,0.5869830174292288
5.622516556291391,0.5685890271905072
5.642384105960264,0.5502624043573024
5.662251655629139,0.532086317209095
5.682119205298013,0.5141524039061467
5.701986754966887,0.4965616421559749
5.7218543046357615,0.479425163178344
5.741721854304636,0.4628649105827266
5.7615894039735105,0.44701399922479196
5.781456953642384,0.4320165752918604
5.801324503311259,0.4180269235828597
5.821192052980132,0.40520752570505525
5.841059602649007,0.3937257681395459
5.860927152317881,0.3837490652041746
5.880794701986755,0.37543833315717917
5.900662251655629,0.3689400450324864
5.920529801324503,0.36437748486885296
5.940397350993377,0.3618422141916411
5.960264900662251,0.36138701589485217
5.980132450331126,0.3630215415934475
6.0,0.3667114928261611
6.0198675496688745,0.3723814982421961
6.039735099337749,0.3799211249279863
6.059602649006623,0.38919292779197123
6.079470198675497,0.4000412463491278
6.099337748344371,0.4123005989539947
6.119205298013245,0.42580287681405604
6.139072847682119,0.4403829465181798
6.158940397350993,0.4558826116352398
6.178807947019867,0.47215310823913204
6.198675496688741,0.48905641740844585
6.218543046357616,0.5064656994341947
6.23841059602649,0.5242651249652314
6.258278145695365,0.5423493263955366
6.2781456953642385,0.5606226371250624
6.298013245033113,0.5789982367151496
6.317880794701987,0.5973972801385232
6.337748344370861,0.6157480595516653
6.357615894039735,0.633985225941947
6.377483443708609,0.6520490837765791
6.397350993377484,0.6698849626205655
6.417218543046357,0.6874426641079503
6.437086092715232,0.7046759794979067
6.456953642384105,0.7215422714859887
6.47682119205298,0.7380021133850273
6.496688741721854,0.754018978838526
6.516556291390729,0.7695589756196664
6.5364238410596025,0.7845906176290387
6.556291390728477,0.7990846298313723
6.5761589403973515,0.8130137814998518
6.596026490066225,0.8263527437330179
6.6158940397351,0.839077967754629
6.635761589403973,0.8511675809944415
6.655629139072848,0.8626012983772574
6.675496688741721,0.873360346621366
6.695364238410596,0.8834273996708035
6.715231788079469,0.8927865236637353
6.735099337748344,0.9014231300778556
6.754966887417219,0.9093239358979284
6.774834437086093,0.9164769298254085
6.794701986754967,0.922871343700241
6.814569536423841,0.9284976284334948
6.8344370860927155,0.9333474338610697
6.854304635761589,0.9374135920247357
6.874172185430464,0.9406901034711113
6.894039735099337,0.9431721262330459
6.913907284768212,0.9448559672239786
6.933774834437086,0.9457390758349318
6.95364238410596,0.9458200395784949
6.973509933774834,0.945098581674554
6.993377483443709,0.9435755605210393
7.013245033112583,0.9412529710397246
7.033112582781457,0.938133947934076
7.052980132450331,0.9342227709438625
7.072847682119205,0.9295248722310954
7.0927152317880795,0.9240468460852178
7.112582781456954,0.9177964611931965
7.132450331125828,0.9107826757842603
7.152317880794702,0.9030156560309492
7.172185430463576,0.8945067981693887
7.19205298013245,0.8852687548953134
7.211920529801324,0.8753154667000237
7.231788079470198,0.8646621989357544
7.251655629139073,0.8533255855458161
7.271523178807947,0.8413236805658997
7.291390728476822,0.8286760187032385
7.311258278145695,0.8154036865354504
7.33112582781457,0.8015294061467324
7.3509933774834435,0.7870776333422962
7.370860927152318,0.7720746729589666
7.390728476821192,0.7565488142281145
7.410596026490066,0.7405304896520367
7.430463576158941,0.7240524614300862
7.450331125827814,0.7071500401158616
7.470198675496689,0.6898613408917087
7.490066225165562,0.6722275835888728
7.509933774834438,0.6542934433143351
7.52980132450331,0.6361074591862751
7.549668874172186,0.6177225090887278
7.569536423841059,0.5991963583085806
7.589403973509934,0.5805922890596812
7.6092715231788075,0.5619798156964029
7.629139072847682,0.543435486081763
7.649006622516557,0.5250437619816404
7.66887417218543,0.5068979589785436
7.6887417218543055,0.4891012072823817
7.708609271523178,0.47176736670365776
7.728476821192054,0.4550217897944486
7.748344370860927,0.43900177565784465
7.768211920529802,0.4238564949033926
7.788079470198675,0.40974610103694326
7.80794701986755,0.3968396917827891
7.827814569536423,0.38531177423111707
7.847682119205298,0.37533696052230525
7.8675496688741715,0.36708281812519844
7.887417218543046,0.36070114190567937
7.907284768211921,0.35631837146838885
7.927152317880795,0.3540263340144383
7.9470198675496695,0.3538747690227962
7.966887417218543,0.3558670082946546
7.986754966887418,0.3599596786288913
8.006622516556291,0.366066488625702
8.026490066225167,0.3740653332910453
8.046357615894038,0.3838073894843847
8.066225165562914,0.39512673263990156
8.086092715231787,0.40784923996374517
8.105960264900663,0.42179998849754374
8.125827814569536,0.43680882156713025
8.14569536423841,0.45271411989341304
8.165562913907285,0.46936503115447864
8.185430463576159,0.4866224998172702
8.205298013245034,0.504359438458593
8.225165562913906,0.5224603339220055
8.245033112582782,0.5408205171029495
8.264900662251655,0.5593452620696823
8.28476821192053,0.5779488270406736
8.304635761589404,0.5965535087762994
8.324503311258278,0.6150887523771066
8.344370860927151,0.6334903382352953
8.364238410596027,0.6516996546850619
8.3841059602649,0.6696630567305686
8.403973509933774,0.6873313065101913
8.42384105960265,0.7046590887061361
8.443708609271523,0.7216045930982142
8.463576158940398,0.7381291563227894
8.483443708609272,0.754196955258792
8.503311258278146,0.7697747450803105
8.52317880794702,0.7848316357410241
8.543046357615895,0.7993389014001616
8.562913907284768,0.8132698180111424
8.582781456953642,0.8265995249486295
8.602649006622515,0.8393049071344693
8.62251655629139,0.8513644946379423
8.642384105960264,0.8627583771726124
8.66225165562914,0.8734681312976109
8.682119205298013,0.8834767584609549
8.701986754966887,0.8927686323050062
8.721854304635762,0.9013294538938887
8.741721854304636,0.9091462137280567
8.76158940397351,0.9162071595853409
8.781456953642383,0.9225017693769825
8.801324503311259,0.9280207283349041
8.821192052980132,0.9327559099561338
8.841059602649008,0.9367003602254668
8.86092715231788,0.9398482847199189
8.880794701986755,0.9421950382714618
8.90066225165563,0.9437371169291544
8.920529801324504,0.9444721520199857
8.940397350993377,0.9443989061611988
8.960264900662251,0.9435172711268436
8.980132450331126,0.9418282675186914
9.0,0.9393340462382502
9.019867549668875,0.9360378918031749
9.039735099337747,0.93194422759872
9.059602649006623,0.9270586232052281
9.079470198675496,0.9213878039961748
9.099337748344372,0.9149396632595542
9.119205298013245,0.9077232771611599
9.139072847682119,0.8997489229413382
9.158940397350994,0.8910281008205717
9.178807947019868,0.8815735601861269
9.198675496688743,0.8713993307436906
9.218543046357615,0.8605207594487131
9.23841059602649,0.8489545541857128
9.258278145695364,0.8367188353441679
9.27814569536424,0.8238331966525575
9.298013245033111,0.8103187768838364
9.317880794701987,0.7961983443426406
9.33774834437086,0.7814963963957314
9.357615894039736,0.7662392767202134
9.37748344370861,0.7504553134292705
9.397350993377483,0.7341749818004754
9.417218543046358,0.7174310959850854
9.437086092715232,0.7002590348215495
9.456953642384107,0.6826970077089378
9.47682119205298,0.6647863673983949
9.496688741721854,0.6465719774938616
9.516556291390728,0.6281026433375498
9.536423841059603,0.6094316156546198
9.556291390728477,0.5906171766116732
9.57615894039735,0.5717233174317287
9.596026490066224,0.5528205148189355
9.6158940397351,0.533986609294384
9.635761589403973,0.5153077808356734
9.655629139072847,0.496879604133941
9.675496688741722,0.4788081449338762
9.695364238410596,0.4612110274082438
9.715231788079471,0.4442183573669282
9.735099337748345,0.4279733253587319
9.754966887417218,0.41263223862702497
9.774834437086092,0.39836364948003733
9.794701986754967,0.38534617969755547
9.814569536423841,0.37376462210402944
9.834437086092716,0.3638039833647526
9.854304635761588,0.3556413721821845
9.874172185430464,0.34943606321993875
9.894039735099337,0.3453186353503477
9.913907284768213,0.3433806409084192
9.933774834437086,0.34366656936732526
9.95364238410596,0.34616969927201496
9.973509933774835,0.3508327308141952
9.993377483443709,0.3575530600152909
10.013245033112582,0.3661915768168627
10.033112582781456,0.3765832964041062
10.052980132450331,0.3885481011828466
10.072847682119205,0.4019002672985322
10.09271523178808,0.4164560309983829
10.112582781456952,0.4320389916904137
10.132450331125828,0.4484835271130119
10.152317880794701,0.46563659098402516
10.172185430463577,0.48335831466223234
10.192052980132452,0.5015217986583049
10.211920529801324,0.5200124056673093
10.2317880794702,0.5387267856830981
10.251655629139073,0.5575717919398564
10.271523178807948,0.576463389767321
10.29139072847682,0.5953256190702826
10.311258278145695,0.6140896426767483
10.331125827814569,0.6326928942185853
10.350993377483444,0.6510783277228739
10.370860927152318,0.669193764453796
10.390728476821192,0.6869913290835375
10.410596026490065,0.7044269658085344
10.43046357615894,0.7214600247667735
10.450331125827816,0.7380529095298658
10.470198675496688,0.7541707772083249
10.490066225165563,0.7697812836164117
10.509933774834437,0.7848543668734738
10.529801324503312,0.7993620637063331
10.549668874172186,0.8132783535279561
10.56953642384106,0.8265790260890219
10.589403973509933,0.8392415691289702
10.609271523178808,0.8512450729969855
10.629139072847682,0.8625701496789356
