Frequency (Hz),Amplitude
0.0,3.3966495786984936
0.019801980198019802,3.395659894208553
0.039603960396039604,3.3926929988925543
0.0594059405940594,3.387755370815204
0.07920792079207921,3.3808578187844476
0.09900990099009901,3.372015500479572
0.1188118811881188,3.361247947984638
0.13861386138613863,3.348579100875628
0.15841584158415842,3.334037347044093
0.1782178217821782,3.317655571467694
0.19801980198019803,3.2994712131562767
0.21782178217821782,3.2795263305083786
0.2376237623762376,3.2578676753041367
0.25742574257425743,3.2345467755314448
0.27722772277227725,3.2096200271879898
0.297029702970297,3.183148795116039
0.31683168316831684,3.1551995228015097
0.33663366336633666,3.1258438508941286
0.3564356435643564,3.0951587439711368
0.37623762376237624,3.0632266247581565
0.39603960396039606,3.0301355146237547
0.4158415841584158,2.9959791786599808
0.43564356435643564,2.9608572730311686
0.45544554455445546,2.924875491495569
0.4752475247524752,2.8881457070575602
0.495049504950495,2.850786103570072
0.5148514851485149,2.812921290758867
0.5346534653465347,2.7746823945686665
0.5544554455445545,2.736207112931523
0.5742574257425742,2.6976397250425466
0.594059405940594,2.6591310400296098
0.613861386138614,2.62083826858849
0.6336633663366337,2.582924798828082
0.6534653465346534,2.545559855391423
0.6732673267326733,2.508918019107305
0.6930693069306931,2.473178583274263
0.7128712871287128,2.438524722543508
0.7326732673267327,2.405142451670385
0.7524752475247525,2.3732193546022646
0.7722772277227723,2.3429430699115485
0.7920792079207921,2.314499526840438
0.8118811881188118,2.288070937405123
0.8316831683168316,2.2638335640495693
0.8514851485148516,2.2419552988025897
0.8712871287128713,2.222593107875347
0.891089108910891,2.2058904137465754
0.9108910891089109,2.191974503186971
0.9306930693069307,2.1809540622617622
0.9504950495049505,2.172916946006309
0.9702970297029703,2.167928289423493
0.99009900990099,2.1660290566600393
1.00990099009901,2.1672351066694064
1.0297029702970297,2.171536827540077
1.0495049504950495,2.178899360261571
1.0693069306930694,2.1892633991463595
1.0891089108910892,2.2025465238982727
1.108910891089109,2.2186449906781696
1.1287128712871286,2.2374358890001464
1.1485148514851484,2.258779559359254
1.1683168316831685,2.2825221634095287
1.188118811881188,2.3084983034590216
1.2079207920792079,2.3365335993972325
1.227722772277228,2.3664471468528876
1.2475247524752475,2.3980537982574623
1.2673267326732673,2.4311662266430303
1.2871287128712872,2.465596748927381
1.3069306930693068,2.501158900113657
1.3267326732673268,2.537668761714825
1.3465346534653466,2.5749460566583937
1.3663366336633662,2.6128150290895062
1.3861386138613863,2.651105131210587
1.405940594059406,2.6896515410117203
1.4257425742574257,2.7282955349165303
1.4455445544554455,2.7668847384257114
1.4653465346534653,2.8052732761594426
1.4851485148514851,2.843321840588678
1.504950495049505,2.880897696438693
1.5247524752475248,2.917874635420556
1.5445544554455446,2.954132893713679
1.5643564356435644,2.989559042560401
1.5841584158415842,3.0240458604815683
1.6039603960396038,3.0574921939963877
1.6237623762376237,3.0898028123298347
1.6435643564356437,3.1208882604044477
1.6633663366336633,3.150664713423027
1.683168316831683,3.179053835532663
1.7029702970297032,3.205982644397455
1.7227722772277227,3.2313833829745784
1.7425742574257426,3.2551933993674407
1.7623762376237624,3.2773550353012695
1.782178217821782,3.297815523515291
1.801980198019802,3.316526894177873
1.8217821782178218,3.3334458902946245
1.8415841584158414,3.348533891984833
1.8613861386138615,3.361756849440404
1.881188118811881,3.3730852243467533
1.900990099009901,3.3824939395315883
1.920792079207921,3.3899623366103575
1.9405940594059405,3.395474141412477
1.9603960396039604,3.399017436998229
1.98019801980198,3.4005846441083474
2.0,3.4001725089266284
2.01980198019802,3.397782098077183
2.0396039603960396,3.393418800821792
2.0594059405940595,3.387092338467289
2.0792079207920793,3.3788167810371665
2.099009900990099,3.3686105713040884
2.118811881188119,3.35649655631953
2.1386138613861387,3.3425020266117316
2.1584158415841586,3.3266587632516607
2.1782178217821784,3.309003093006516
2.1980198019801978,3.2895759518089127
2.217821782178218,3.2684229567635232
2.237623762376238,3.245594486887919
2.257425742574257,3.221145772735227
2.2772277227722775,3.1951369949670583
2.297029702970297,3.1676333918281383
2.3168316831683167,3.138705375310639
2.336633663366337,3.1084286555747576
2.3564356435643563,3.076884372900811
2.376237623762376,3.0441592360716316
2.3960396039603964,3.0103456656053718
2.4158415841584158,2.9755419396596765
2.4356435643564356,2.9398523396871825
2.455445544554456,2.903387292018481
2.4752475247524752,2.866263500460209
2.495049504950495,2.828604063703702
2.514851485148515,2.7905385698293017
2.5346534653465347,2.7522031584560755
2.5544554455445545,2.7137405391360083
2.5742574257425743,2.6752999524523577
2.594059405940594,2.637037058012716
2.6138613861386135,2.59911373122391
2.633663366336634,2.561697748543197
2.6534653465346536,2.5249623390231544
2.673267326732673,2.489085578676857
2.6930693069306932,2.454249603825639
2.712871287128713,2.42063962055684
2.7326732673267324,2.388442690157268
2.7524752475247527,2.3578462753462324
2.7722772277227725,2.3290365396978996
2.792079207920792,2.3021964030624398
2.811881188118812,2.277503369071581
2.8316831683168315,2.255127156601693
2.8514851485148514,2.235227184583486
2.8712871287128716,2.2179499775266045
2.891089108910891,2.2034265758556235
2.910891089108911,2.1917700485995826
2.9306930693069306,2.183073214035361
2.9504950495049505,2.1774066747096485
2.9702970297029703,2.1748172656363836
2.99009900990099,2.175326998120522
3.00990099009901,2.1789325574782175
3.0297029702970297,2.185605382926247
3.0495049504950495,2.1952923250184795
3.0693069306930694,2.2079168435932783
3.089108910891089,2.2233806805652803
3.108910891089109,2.241565919749921
3.128712871287129,2.2623373319633604
3.148514851485148,2.2855448984460387
3.1683168316831685,2.311026408654962
3.1881188118811883,2.3386100382279014
3.2079207920792077,2.3681168274869835
3.227722772277228,2.3993629981064024
3.2475247524752473,2.4321620635580015
3.267326732673267,2.4663267060734553
3.2871287128712874,2.501670407993691
3.3069306930693068,2.5380088378628396
3.3267326732673266,2.575161001227247
3.346534653465347,2.6129501729017988
3.366336633663366,2.651204631760576
3.386138613861386,2.6897582213078737
3.4059405940594063,2.7284507598394185
3.4257425742574257,2.7671283233471313
3.4455445544554455,2.8056434228399336
3.4653465346534653,2.8438550957688222
3.485148514851485,2.8816289290080515
3.504950495049505,2.9188370285427836
3.5247524752475248,2.955357948776928
3.5445544554455446,2.9910765922875715
3.564356435643564,3.025884088962719
3.5841584158415842,3.0596776617893524
3.603960396039604,3.092360485111878
3.6237623762376234,3.123841539949459
3.6435643564356437,3.1540354699265944
3.6633663366336635,3.1828624405163857
3.683168316831683,3.210248003596857
3.702970297029703,3.236122968757787
3.722772277227723,3.2604232823473316
3.7425742574257423,3.2830899148966304
3.762376237623762,3.3040687572901026
3.7821782178217824,3.323310525845085
3.801980198019802,3.340770676314578
3.8217821782178216,3.3564093267211845
3.841584158415842,3.3701911888597396
3.8613861386138613,3.3820855082640016
3.881188118811881,3.3920660124130877
3.9009900990099013,3.4001108669509055
3.9207920792079207,3.4062026397035297
3.9405940594059405,3.410328272301223
3.96039603960396,3.4124790592418215
3.98019801980198,3.4126506342677576
4.0,3.410842963968748
4.01980198019802,3.4070603485641815
4.03960396039604,3.4013114298627327
4.0594059405940595,3.393609206439725
4.079207920792079,3.3839710561145546
4.099009900990099,3.3724187658494835
4.118811881188119,3.358978569225651
4.138613861386139,3.343681191680757
4.158415841584159,3.3265619037130114
4.178217821782178,3.3076605822653997
4.198019801980198,3.2870217804993476
4.217821782178218,3.264694806144278
4.237623762376238,3.2407338085634336
4.257425742574258,3.2151978746019974
4.2772277227722775,3.1881511331727563
4.297029702970297,3.159662868379312
4.316831683168317,3.1298076407665825
4.336633663366336,3.0986654160112157
4.356435643564357,3.0663217000060485
4.376237623762377,3.0328676788371407
4.3960396039603955,2.998400361581049
4.415841584158416,2.963022723143851
4.435643564356436,2.926843843501894
4.455445544554455,2.8899790386658633
4.475247524752476,2.852549977456194
4.4950495049504955,2.8146847767340777
4.514851485148514,2.7765180660715627
4.534653465346535,2.7381910109722183
4.554455445544555,2.699851281695334
4.574257425742574,2.6616529525425
4.594059405940594,2.6237563142235385
4.613861386138614,2.58632757976076
4.633663366336633,2.5495384625056707
4.653465346534653,2.513565603481101
4.673267326732674,2.478589824742737
4.693069306930693,2.4447951861559827
4.712871287128713,2.4123678253312657
4.732673267326733,2.3814945648856236
4.752475247524752,2.352361278090524
4.772277227722772,2.325151013591692
4.792079207920793,2.300041892300051
4.811881188118812,2.2772048044893745
4.8316831683168315,2.256800951926927
4.851485148514852,2.2389792973792466
4.871287128712871,2.2238740005038666
4.891089108910891,2.2116019330472625
4.910891089108912,2.202260375383042
4.930693069306931,2.1959249988798297
4.9504950495049505,2.1926482330508414
4.97029702970297,2.1924581024259377
4.99009900990099,2.1953575961948655
5.00990099009901,2.201324605603448
5.02970297029703,2.2103124324822634
5.0495049504950495,2.2222508403446763
5.069306930693069,2.237047590457193
5.089108910891089,2.2545903819487303
5.108910891089109,2.274749099303915
5.128712871287129,2.297378263303623
5.148514851485149,2.3223195823591674
5.1683168316831685,2.3494045090515137
5.188118811881188,2.378456719752418
5.207920792079208,2.4092944514433685
5.227722772277227,2.4417326473062064
5.247524752475248,2.475584879682751
5.267326732673268,2.5106650343685724
5.2871287128712865,2.5467887531572195
5.306930693069307,2.583774641745994
5.326732673267327,2.621445257548261
5.346534653465346,2.6596278968611693
5.366336633663367,2.6981552035812393
5.3861386138613865,2.7368656226717234
5.405940594059405,2.7756037212932574
5.425742574257426,2.814220399302249
5.445544554455446,2.8525730090305954
5.465346534653465,2.8905254021500157
5.485148514851486,2.927947919194814
5.504950495049505,2.9647173351117524
5.524752475247524,3.0007167721199437
5.544554455445545,3.03583558925566
5.564356435643565,3.0699692562757637
5.584158415841584,3.103019218108673
5.603960396039604,3.134892754768248
5.623762376237624,3.1655028405710017
5.643564356435643,3.1947680056019814
5.663366336633663,3.2226122016391407
5.683168316831684,3.24896467414963
5.702970297029703,3.2737598414937374
5.7227722772277225,3.2969371820953555
5.742574257425743,3.3184411300448455
5.762376237623762,3.338220979377148
5.782178217821782,3.356230797101668
5.801980198019803,3.372429344941068
5.821782178217822,3.386780009654098
5.841584158415841,3.3992507417656856
5.861386138613861,3.4098140024997363
5.881188118811881,3.418446718701024
5.900990099009901,3.4251302455385537
5.920792079207921,3.4298503367998214
5.9405940594059405,3.4325971226114693
5.96039603960396,3.4333650944539684
5.98019801980198,3.432153097374885
6.0,3.428964329344783
6.01980198019802,3.4238063477410776
6.03960396039604,3.416691082986289
6.0594059405940595,3.4076348594071924
6.079207920792079,3.39665842341892
6.099009900990099,3.38378697917122
6.118811881188119,3.369050231821686
6.138613861386139,3.352482438620215
6.158415841584159,3.3341224679977857
6.178217821782178,3.314013866848062
6.198019801980198,3.2922049361680727
6.217821782178218,3.2687488151801545
6.237623762376237,3.243703573985264
6.257425742574258,3.2171323146914506
6.2772277227722775,3.1891032808120774
6.297029702970296,3.1596899745267013
6.316831683168317,3.1289712811320545
6.336633663366337,3.0970315996677447
6.356435643564356,3.0639609782659316
6.376237623762377,3.0298552522296176
6.396039603960396,2.9948161821712334
6.415841584158415,2.958951588722759
6.435643564356436,2.9223754793408565
6.455445544554456,2.8852081615576304
6.475247524752475,2.8475763356554875
6.495049504950495,2.809613158166172
6.514851485148515,2.771458265813997
6.534653465346534,2.7332577475637674
6.554455445544554,2.6951640503408356
6.574257425742575,2.657335801843911
6.594059405940594,2.61993753179141
6.6138613861386135,2.5831392711022945
6.633663366336634,2.547116007143412
6.653465346534653,2.5120469725709436
6.673267326732673,2.4781147458060317
6.693069306930694,2.445504143209945
6.712871287128713,2.414400886973422
6.732673267326732,2.384990038983743
6.752475247524753,2.3574541997566723
6.772277227722772,2.3319714830040326
6.792079207920792,2.3087132903558105
6.811881188118813,2.287841926603218
6.8316831683168315,2.2695081125850836
6.851485148514851,2.253848469088613
6.871287128712871,2.240983059118555
6.891089108910891,2.2310130856843093
6.910891089108911,2.2240188460452797
6.930693069306931,2.220058039749906
6.9504950495049505,2.219164516155121
6.97029702970297,2.22134752774813
6.99009900990099,2.2265915298909906
7.00990099009901,2.2348565378837573
7.02970297029703,2.2460790214260093
7.0495049504950495,2.2601732877522624
7.069306930693069,2.2770332807113913
7.089108910891089,2.2965347059095507
7.108910891089109,2.3185373828043847
7.128712871287128,2.3428877233431433
7.148514851485149,2.3694212424771517
7.1683168316831685,2.3979650171076234
7.188118811881187,2.42834002484482
7.207920792079208,2.46036331049915
7.227722772277228,2.493849944803125
7.247524752475247,2.5286147551958806
7.267326732673268,2.5644738217296315
7.287128712871287,2.601245741833971
7.306930693069306,2.6387526756978703
7.326732673267327,2.676821189552049
7.346534653465347,2.7152829174681465
7.366336633663366,2.753975063827421
7.3861386138613865,2.792740768759546
7.405940594059406,2.831429357995977
7.425742574257425,2.8698964970565135
7.445544554455446,2.908004267766496
7.465346534653466,2.945621182997923
7.485148514851485,2.9826221533963224
7.504950495049505,3.0188884178046678
7.524752475247524,3.0543074471934823
7.544554455445544,3.088772830191578
7.564356435643565,3.1221841468004583
7.584158415841584,3.1544468355678776
7.603960396039604,3.1854720583833944
7.623762376237624,3.215176566125338
7.643564356435643,3.243482567615883
7.663366336633663,3.2703176037094113
7.683168316831684,3.295614427829985
7.702970297029703,3.3193108938678115
7.7227722772277225,3.3413498520265867
7.742574257425743,3.3616790529680523
7.762376237623762,3.3802510604148366
7.782178217821782,3.3970231722366915
7.801980198019803,3.4119573499489713
7.821782178217822,3.4250201564886122
7.841584158415841,3.4361827020945306
7.861386138613862,3.445420598102052
7.881188118811881,3.452713918459257
7.900990099009901,3.4580471687842875
7.92079207920792,3.461409262803031
7.9405940594059405,3.46279350603446
7.96039603960396,3.4621975866234185
7.980198019801979,3.4596235732569305
8.0,3.4550779201379216
8.01980198019802,3.4485714790285913
8.03960396039604,3.4401195184130358
8.05940594059406,3.429741749863776
8.07920792079208,3.4174623617276745
8.099009900990099,3.4033100602724
8.118811881188119,3.3873181184517307
8.138613861386139,3.3695244324556866
8.158415841584159,3.3499715862052284
8.178217821782178,3.3287069239284897
8.198019801980198,3.305782630911255
8.217821782178218,3.28125582244344
8.237623762376238,3.255188640879137
8.257425742574258,3.2276483605827524
8.277227722772277,3.1987075003384438
8.297029702970297,3.1684439425440107
8.316831683168317,3.136941058180901
8.336633663366337,3.1042878361348487
8.356435643564357,3.0705790149212886
8.376237623762377,3.035915214228446
8.396039603960396,3.000403062911096
8.415841584158416,2.964155319131349
8.435643564356436,2.927290977232753
8.455445544554456,2.8899353546380517
8.475247524752476,2.852220150572403
8.495049504950495,2.8142834667376357
8.514851485148515,2.7762697782190315
8.534653465346535,2.7383298409373955
8.554455445544555,2.7006205199377424
8.574257425742575,2.6633045208430706
8.594059405940595,2.6265500050549004
8.613861386138613,2.5905300679619776
8.633663366336634,2.555422058793295
8.653465346534654,2.5214067211429567
8.673267326732672,2.4886671349666947
8.693069306930694,2.4573874443820802
8.712871287128714,2.427751361251236
8.732673267326732,2.399940442551967
8.752475247524753,2.3741321500559494
8.772277227722773,2.3504977136870444
8.792079207920791,2.329199834657424
8.811881188118813,2.310390280216904
8.831683168316832,2.294207437351209
8.85148514851485,2.280773906446056
8.871287128712872,2.270194226029471
8.891089108910892,2.2625528244956477
8.91089108910891,2.25791229281294
8.930693069306932,2.256312062866366
8.950495049504951,2.2577675593787228
8.97029702970297,2.2622698703558757
8.990099009900991,2.269785953667894
9.00990099009901,2.280259368314803
9.029702970297029,2.293611491005397
9.04950495049505,2.3097431545942526
9.06930693069307,2.3285366267904823
9.089108910891088,2.3498578366271454
9.10891089108911,2.3735587527549193
9.12871287128713,2.399479821097812
9.148514851485148,2.427452378504175
9.16831683168317,2.457300972069873
9.188118811881187,2.4888455290283296
9.207920792079207,2.521903337862991
9.227722772277229,2.556290816277697
9.247524752475247,2.591825054922577
9.267326732673267,2.6283251367703864
9.287128712871288,2.6656132405657287
9.306930693069306,2.7035155428870836
9.326732673267326,2.7418629373071313
9.346534653465348,2.7804915912511468
9.366336633663366,2.819243361811394
9.386138613861386,2.857966091347337
9.405940594059407,2.8965138025166217
9.425742574257425,2.9347468107194876
9.445544554455445,2.972531770021111
9.465346534653467,3.0097416666098575
9.485148514851485,3.046255771874375
9.504950495049505,3.081959565318268
9.524752475247526,3.1167446358260635
9.544554455445544,3.150508568272883
9.564356435643564,3.183154821139987
9.584158415841586,3.2145925996548206
9.603960396039604,3.2447367280060226
9.623762376237623,3.2735075233751165
9.643564356435645,3.3008306738596236
9.663366336633663,3.3266371218191697
9.683168316831683,3.350862953739488
9.702970297029704,3.3734492973625914
9.722772277227723,3.394342226560975
9.742574257425742,3.413492674226181
9.762376237623764,3.4308563532864484
9.782178217821782,3.4463936858554547
9.801980198019802,3.460069740435443
9.821782178217823,3.471854177047769
9.841584158415841,3.481721200135103
9.861386138613861,3.489649519069159
9.881188118811881,3.495622316100454
9.900990099009901,3.4996272216003073
9.92079207920792,3.5016562964669307
9.94059405940594,3.5017060215946527
9.96039603960396,3.499777294336808
9.98019801980198,3.4958754319261613
10.0,3.490010181851212
10.01980198019802,3.48219573922025
10.03960396039604,3.472450771176505
10.05940594059406,3.4607984484552246
10.07920792079208,3.4472664841958562
10.099009900990099,3.43188718013666
10.118811881188119,3.4146974803237327
10.138613861386139,3.3957390324577204
10.158415841584159,3.3750582569763874
10.178217821782178,3.3527064239255218
10.198019801980198,3.3287397375988195
10.217821782178218,3.3032194288238874
10.237623762376238,3.2762118546285017
10.257425742574258,3.247788604830537
10.277227722772277,3.218026614846362
10.297029702970297,3.1870082836944
10.316831683168317,3.1548215957700325
10.336633663366337,3.1215602444703503
10.356435643564357,3.0873237551370307
10.376237623762377,3.052217604046107
10.396039603960396,3.0163533292889007
10.415841584158416,2.979848628344053
10.435643564356436,2.9428274359254067
10.455445544554454,2.9054199742998517
10.475247524752476,2.8677627667079038
10.495049504950495,2.829998602807419
10.514851485148514,2.7922764432376073
10.534653465346535,2.754751248532725
10.554455445544555,2.7175837158042846
10.574257425742573,2.6809399050001192
10.594059405940595,2.644990735328553
10.613861386138614,2.609911331847959
10.633663366336632,2.575880202555694
10.653465346534654,2.5430782278927215
10.673267326732674,2.511687447754259
10.693069306930692,2.4818896361833778
10.712871287128714,2.453864661172117
10.732673267326733,2.4277886365120995
10.752475247524751,2.403831884318588
