Frequency (Hz),Amplitude
0.0,2.5236987788128484
0.019823788546255508,2.5225135930478277
0.039647577092511016,2.5189593730887756
0.059471365638766524,2.5130401313502513
0.07929515418502203,2.5047625565783056
0.09911894273127755,2.4941360160532
0.11894273127753305,2.4811725589161164
0.13876651982378857,2.4658869208728893
0.15859030837004406,2.4482965306128817
0.17841409691629956,2.4284215183783218
0.1982378854625551,2.4062847272312275
0.2180616740088106,2.3819117276953397
0.2378854625550661,2.3553308366056567
0.25770925110132165,2.3265731411834283
0.27753303964757714,2.295672529579187
0.29735682819383263,2.2626657293999988
0.31718061674008813,2.227592356074387
0.3370044052863437,2.190494973324104
0.3568281938325991,2.151419168531453
0.37665198237885467,2.1104136464402616
0.3964757709251102,2.067530345447863
0.41629955947136565,2.022824581783282
0.4361233480176212,1.9763552281905228
0.4559471365638767,1.9281849354326888
0.4757709251101322,1.8783804071209775
0.49559471365638774,1.8270127412112012
0.5154185022026433,1.774157855213017
0.5352422907488987,1.7198970170142243
0.5550660792951543,1.6643175096286718
0.5748898678414097,1.6075134666681616
0.5947136563876653,1.5495869266474325
0.6145374449339208,1.490649169347067
0.6343612334801763,1.4308224177139535
0.6541850220264318,1.3702420159353241
0.6740088105726874,1.3090592306474822
0.6938325991189428,1.2474448704914454
0.7136563876651982,1.1855939824047301
0.7334801762114539,1.123731963527026
0.7533039647577093,1.062122524962197
0.7731277533039648,1.0010780494714655
0.7929515418502204,0.9409729719427745
0.8127753303964759,0.8822608098447411
0.8325991189427313,0.8254952271004935
0.8524229074889869,0.7713547207222733
0.8722466960352424,0.7206686271415698
0.8920704845814978,0.6744383581818356
0.9118942731277534,0.6338414231361291
0.931718061674009,0.6001977129336875
0.9515418502202644,0.5748729320174868
0.9713656387665199,0.5591047427512751
0.9911894273127755,0.5537747865399623
1.0110132158590308,0.5592034590707771
1.0308370044052866,0.5750663355553451
1.0506607929515421,0.6004789048512676
1.0704845814977975,0.634202313444766
1.090308370044053,0.6748711370133754
1.1101321585903086,0.721166668282217
1.1299559471365639,0.7719129358973567
1.1497797356828194,0.8261100567051297
1.1696035242290752,0.8829300341994467
1.1894273127753305,0.9416954652022359
1.209251101321586,1.0018535396686536
1.2290748898678416,1.0629513858393604
1.248898678414097,1.1246150439842786
1.2687224669603525,1.1865324707280038
1.288546255506608,1.2484401876536497
1.3083700440528636,1.3101129467330226
1.3281938325991192,1.371355784491038
1.3480176211453747,1.4319979238261527
1.36784140969163,1.4918880881829124
1.3876651982378856,1.550890889980011
1.4074889867841411,1.6088840355191145
1.4273127753303965,1.665756151630485
1.4471365638766522,1.7214050874463946
1.4669603524229078,1.7757365809278973
1.4867841409691631,1.8286632068599755
1.5066079295154187,1.8801035432345143
1.5264317180616742,1.9299815080195453
1.5462555066079295,1.9782258295943496
1.5660792951541853,2.024769622602064
1.5859030837004409,2.069550047362642
1.6057268722466962,2.1125080358349337
1.6255506607929517,2.1535880708113337
1.6453744493392073,2.1927380078604335
1.6651982378854626,2.229908931716972
1.6850220264317182,2.2650550405118373
1.7048458149779737,2.298133552555391
1.7246696035242293,2.329104631423609
1.7444933920704848,2.3579313259136576
1.7643171806167404,2.3845795220843646
1.7841409691629957,2.4090179051146827
1.8039647577092512,2.4312179291288736
1.8237885462555068,2.4511537934733396
1.8436123348017623,2.4688024242033495
1.863436123348018,2.4841434597617793
1.8832599118942732,2.4971592400173597
1.9030837004405288,2.5078347979843083
1.9229074889867843,2.5161578536753306
1.9427312775330399,2.5221188096516203
1.9625550660792954,2.525710747929846
1.982378854625551,2.5269294279918455
2.002202643171806,2.5257732857199096
2.0220264317180616,2.5222434331523655
2.041850220264317,2.5163436590226245
2.061674008810573,2.50808043011209
2.0814977973568287,2.497462893515805
2.1013215859030843,2.4845028799912305
2.1211453744493394,2.4692149086372637
2.140969162995595,2.4516161932361835
2.1607929515418505,2.4317266506867052
2.180616740088106,2.4095689120673187
2.2004405286343616,2.3851683369983077
2.220264317180617,2.3585530321242314
2.2400881057268722,2.3297538747224937
2.2599118942731278,2.298804542666216
2.2797356828193833,2.265741552241018
2.299559471365639,2.230604305649652
2.319383259911895,2.193435150451312
2.3392070484581504,2.1542794536980616
2.3590308370044055,2.113185694176287
2.378854625550661,2.070205576975462
2.3986784140969166,2.0253941756395846
2.418502202643172,1.9788101084745475
2.4383259911894277,1.9305157572766025
2.4581497797356833,1.8805775389305042
2.4779735682819384,1.829066243162093
2.497797356828194,1.7760574534337317
2.5176211453744495,1.7216320728371015
2.537444933920705,1.665876983265815
2.5572687224669606,1.6088858746874304
2.577092511013216,1.5507602927270872
2.5969162995594717,1.4916109680409402
2.6167400881057272,1.431559511471773
2.6365638766519828,1.3707405865790727
2.6563876651982383,1.309304708205713
2.676211453744494,1.247421865240911
2.6960352422907494,1.1852862309804073
2.715859030837005,1.1231223083683295
2.73568281938326,1.0611929602791457
2.7555066079295156,0.9998098895943355
2.775330396475771,0.9393472340493397
2.7951541850220267,0.8802589585426324
2.8149779735682823,0.8231005081978142
2.834801762114538,0.7685544127076441
2.854625550660793,0.717457631746609
2.874449339207049,0.670824541883548
2.8942731277533045,0.6298528001804948
2.91409691629956,0.5958906075766616
2.9339207048458156,0.5703385057993725
2.953744493392071,0.5544694293653366
2.9735682819383262,0.5491904246418297
2.993392070484582,0.5548273728231384
3.0132158590308373,0.5710383281946154
3.033039647577093,0.5969047631810205
3.0528634361233484,0.6311488677470558
3.072687224669604,0.6723709756429205
3.092511013215859,0.7192272660747484
3.1123348017621146,0.7705258274218495
3.1321585903083706,0.8252579981782153
3.151982378854626,0.882591825585825
3.1718061674008817,0.9418488684765555
3.1916299559471373,1.002476880271289
3.2114537444933924,1.0640243271718017
3.231277533039648,1.1261188774314126
3.2511013215859035,1.1884501393644678
3.270925110132159,1.2507561746954434
3.2907488986784146,1.312813104077374
3.31057268722467,1.374427142868676
3.3303964757709252,1.4354285062720882
3.350220264317181,1.495666737241263
3.3700440528634363,1.555007112808323
3.389867841409692,1.6133278677253953
3.4096916299559474,1.6705180390012204
3.4295154185022034,1.7264757839720963
3.4493392070484585,1.7811070612811466
3.469162995594714,1.8343245914888664
3.4889867841409696,1.8860470343668034
3.508810572687225,1.9361983350559653
3.5286343612334807,1.9847072025635264
3.5484581497797363,2.0315066925351313
3.5682819383259914,2.0765338726132345
3.588105726872247,2.11972955351773
3.6079295154185025,2.161038072658673
3.627753303964758,2.2004071199044097
3.6475770925110136,2.2377875972947554
3.667400881057269,2.2731335061683424
3.6872246696035247,2.3064018564804827
3.7070484581497802,2.3375525941142565
3.726872246696036,2.366548542795213
3.7466960352422913,2.3933553578617306
3.7665198237885464,2.4179414896543596
3.7863436123348024,2.4402781546979577
3.8061674008810575,2.4603393131821063
3.8259911894273135,2.478101651514927
3.8458149779735686,2.4935445689463167
3.8656387665198246,2.506650167439025
3.8854625550660797,2.5174032441182255
3.905286343612335,2.525791285758304
3.925110132158591,2.531804464875561
3.9449339207048464,2.535435637089773
3.964757709251102,2.536680339502551
3.9845814977973575,2.5355367899154957
4.004405286343612,2.532005886782105
4.024229074889869,2.5260912098541723
4.044052863436123,2.5177990215494432
4.06387665198238,2.5071382691342814
4.083700440528634,2.4941205878849915
4.103524229074891,2.4787603054666345
4.123348017621146,2.4610744478516473
4.143171806167401,2.441082747194079
4.162995594713657,2.418807652183769
4.182819383259912,2.394274341531248
4.2026431718061685,2.3675107413841423
4.222466960352423,2.3385475476561144
4.242290748898679,2.3074182544673105
4.262114537444934,2.274159190161823
4.28193832599119,2.238809562695414
4.301762114537445,2.2014115165931636
4.321585903083701,2.162010204183683
4.3414096916299565,2.120653874452507
4.361233480176212,2.077393983660834
4.381057268722468,2.032285332896787
4.400881057268723,1.9853862390303654
4.420704845814979,1.9367587472213526
4.440528634361234,1.8864688952990356
4.46035242290749,1.834587043157035
4.4801762114537445,1.7811882840048976
4.500000000000001,1.7263529591903306
4.5198237885462555,1.6701673047635992
4.539647577092512,1.6127242665627934
4.559471365638767,1.5541245321337844
4.579295154185023,1.494477843329319
4.599118942731278,1.4339046744217727
4.618942731277533,1.372538388991948
4.63876651982379,1.3105280273511304
4.658590308370044,1.2480419281711697
4.678414096916301,1.1852724573170126
4.6982378854625555,1.1224422075683724
4.718061674008811,1.0598121470272488
4.737885462555067,0.9976923267986748
4.757709251101322,0.9364558872965603
4.777533039647578,0.8765571625108664
4.797356828193833,0.8185545179561012
4.817180616740089,0.7631378403106901
4.837004405286344,0.7111586972382391
4.856828193832599,0.6636571068956583
4.876651982378855,0.6218715488488136
4.896475770925111,0.5872087529916051
4.9162995594713665,0.5611425398506853
4.936123348017622,0.5450211138079338
4.955947136563877,0.5398063595409649
4.975770925110133,0.5458362356678413
4.995594713656388,0.5627311196539199
5.015418502202644,0.5894994526169226
5.035242290748899,0.6247804377083386
5.055066079295155,0.6671022631827928
5.07488986784141,0.7150688796455824
5.094713656387666,0.7674557163579925
5.114537444933921,0.8232364646923704
5.134361233480177,0.8815714757256558
5.154185022026432,0.9417805453723929
5.174008810572688,1.0033128689960555
5.193832599118943,1.0657198725761325
5.213656387665199,1.1286327279273993
5.2334801762114544,1.1917445635017991
5.25330396475771,1.25479671526039
5.2731277533039655,1.3175682198967376
5.292951541850221,1.3798678199251329
5.312775330396477,1.4415278800390108
5.332599118942731,1.5023997457944023
5.352422907488988,1.562350188057794
5.372246696035242,1.6212586656997063
5.392070484581499,1.6790152069667197
5.4118942731277535,1.7355187608177562
5.43171806167401,1.7906759072049097
5.451541850220265,1.8443998431155233
5.47136563876652,1.8966095817480517
5.491189427312777,1.947229317408441
5.511013215859031,1.996187920016953
5.530837004405288,2.043418531553193
5.550660792951542,2.0888582430998652
5.570484581497798,2.1324478359259813
5.5903083700440535,2.1741315736801647
5.610132158590309,2.213857035538097
5.6299559471365646,2.2515749822793367
5.64977973568282,2.287239248917637
5.669603524229076,2.320806658790938
5.689427312775331,2.3522369550214046
5.709251101321586,2.3814927460457738
5.729074889867842,2.4085394625427394
5.748898678414098,2.433345323582573
5.768722466960353,2.455881310224379
5.788546255506609,2.4761211451091305
5.808370044052864,2.4940412768588316
5.82819383259912,2.509620868306701
5.848017621145375,2.522841787760743
5.867841409691631,2.5336886026502135
5.887665198237886,2.5421485750292936
5.907488986784142,2.5482116585178898
5.927312775330397,2.5518704963520253
5.9471365638766525,2.5531204202969033
5.966960352422908,2.5519594502496785
5.986784140969164,2.5483882944264695
6.00660792951542,2.5424103500930735
6.026431718061675,2.5340317048624943
6.04625550660793,2.5232611386465624
6.066079295154186,2.5101101264166714
6.085903083700441,2.494592842000953
6.105726872246697,2.4767261632252806
6.125550660792952,2.4565296787962203
6.145374449339208,2.434025697427939
6.1651982378854635,2.4092392598377494
6.185022026431718,2.382198154379184
6.204845814977975,2.3529329372562584
6.224669603524229,2.321476958473024
6.244493392070486,2.2878663949311133
6.264317180616741,2.2521402924057514
6.284140969162996,2.214340618526084
6.303964757709252,2.1745123293786053
6.323788546255507,2.13270345297379
6.3436123348017635,2.08896519360075
6.363436123348018,2.0433520620953822
6.3832599118942746,1.9959220383287195
6.403083700440529,1.9467367738746468
6.422907488986785,1.8958618449600608
6.44273127753304,1.8433670686009058
6.462555066079296,1.7893268985079505
6.482378854625551,1.7338209222158463
6.502202643171807,1.6769344873737688
6.5220264317180625,1.6187594938268848
6.541850220264318,1.5593953998365584
6.561674008810574,1.4989505066789341
6.581497797356829,1.4375436075167467
6.601321585903085,1.3753061160582585
6.62114537444934,1.3123848310959525
6.640969162995596,1.248945548540342
6.6607929515418505,1.1851778080571422
6.680616740088107,1.1213011625907758
6.700440528634362,1.0575734907730643
6.720264317180618,0.9943020341040089
6.740088105726873,0.9318580163305032
6.759911894273129,0.8706958339644124
6.779735682819384,0.8113777424319241
6.799559471365639,0.7546043535913007
6.819383259911895,0.701249398555328
6.83920704845815,0.6523928681817764
6.859030837004407,0.6093382970799069
6.8788546255506615,0.573587444387314
6.898678414096917,0.5467348197488358
6.918502202643173,0.5302533284255462
6.938325991189428,0.5251942755184069
6.958149779735684,0.5319106068283309
6.977973568281939,0.5499524765706516
6.997797356828195,0.5782006799034772
7.01762114537445,0.6151548682394439
7.037444933920705,0.6592264901183763
7.0572687224669615,0.7089385489628449
7.077092511013216,0.7630184903714007
7.096916299559473,0.8204160833399272
7.116740088105728,0.8802829776888358
7.136563876651983,0.9419388909371474
7.156387665198239,1.0048372919236577
7.176211453744494,1.0685357054867004
7.19603524229075,1.132671836376746
7.215859030837005,1.1969450708391325
7.235682819383261,1.2611024065106022
7.255506607929516,1.3249278356016945
7.275330396475772,1.388234348548429
7.295154185022027,1.45085790040076
7.314977973568283,1.5126528400860648
7.334801762114538,1.5734884299029444
7.354625550660794,1.6332461798600868
7.374449339207049,1.6918177938786658
7.394273127753305,1.749103578071225
7.4140969162995605,1.8050112001778624
7.433920704845816,1.8594547176149165
7.453744493392072,1.9123538123477184
7.473568281938327,1.9636331860402971
7.493392070484583,2.013222080182973
7.513215859030838,2.0610538942480314
7.533039647577093,2.107065881158362
7.552863436123348,2.15119890404042
7.572687224669605,2.193397241777791
7.59251101321586,2.233608433581177
7.612334801762115,2.271783154859425
7.6321585903083715,2.3078751182714803
7.651982378854627,2.3418409950779475
7.671806167400882,2.3736403528779295
7.691629955947137,2.4032356065770655
7.711453744493394,2.430591980033681
7.731277533039649,2.4556774763080456
7.751101321585904,2.4784628548227756
7.7709251101321595,2.498921614050785
7.790748898678416,2.5170299785977157
7.81057268722467,2.5327668897501825
7.830396475770926,2.5461139987305073
7.850220264317182,2.557055662038304
7.870044052863436,2.565578938378169
7.889867841409693,2.571673586773093
7.909691629955948,2.5753320655507563
7.929515418502204,2.5765495319666165
7.9493392070484585,2.5753238422975246
7.969162995594715,2.5716555523037408
7.9889867841409705,2.5655479180183796
8.008810572687224,2.5570068968835886
8.02863436123348,2.5460411493136768
8.048458149779737,2.5326620408289604
8.068281938325994,2.516883644972833
8.088105726872246,2.49872274730009
8.107929515418503,2.4781988508104664
8.12775330396476,2.455334183299735
8.147577092511014,2.4301537072169603
8.167400881057269,2.4026851327535366
8.187224669603525,2.372958935055729
8.207048458149782,2.3410083766527947
8.226872246696036,2.3068695364396574
8.246696035242293,2.2705813468567513
8.266519823788547,2.232185641288293
8.286343612334802,2.191727214174141
8.306167400881058,2.1492538969277457
8.325991189427315,2.1048166535113753
8.345814977973568,2.058469700487963
8.365638766519824,2.010270657614744
8.38546255506608,1.960280736655146
8.405286343612337,1.9085649781856584
8.42511013215859,1.8551925489291854
8.444933920704846,1.8002371157860144
8.464757709251103,1.743777317576031
8.484581497797357,1.6858973619954778
8.504405286343614,1.6266877840509135
8.524229074889869,1.5662464141410135
8.544052863436125,1.5046796202551678
8.56387665198238,1.4421039112088199
8.583700440528636,1.3786480189311021
8.60352422907489,1.3144556210672358
8.623348017621145,1.2496889254143235
8.643171806167402,1.1845334215087078
8.662995594713658,1.1192042203032093
8.682819383259913,1.0539545594755566
8.702643171806168,0.9890872561027305
8.722466960352424,0.9249701342963772
8.74229074889868,0.8620566991487308
8.762114537444935,0.8009134294447553
8.78193832599119,0.7422546576130062
8.801762114537446,0.6869842811204385
8.821585903083701,0.6362389274772143
8.841409691629957,0.5914173284136746
8.861233480176212,0.554164148863632
8.881057268722468,0.5262591794676054
8.900881057268723,0.5093681867901361
8.92070484581498,0.5046768274469364
8.940528634361234,0.5125483766653932
8.960352422907489,0.5324056986218664
8.980176211453745,0.5629181002367555
9.000000000000002,0.6023676167179502
9.019823788546258,0.6489946777336225
9.039647577092511,0.7012119683174447
9.059471365638768,0.7576875305088115
9.079295154185024,0.8173461526424558
9.099118942731279,0.8793346794719907
9.118942731277533,0.9429784564142802
9.13876651982379,1.0077411503250784
9.158590308370046,1.0731918274479268
9.1784140969163,1.1389794452416206
9.198237885462555,1.2048136199802755
9.218061674008812,1.2704503010308137
9.237885462555067,1.3356811384718765
9.257709251101323,1.4003255814005644
9.27753303964758,1.4642249810236705
9.297356828193834,1.5272381644541058
9.317180616740089,1.5892380905765053
9.337004405286345,1.6501093061351941
9.356828193832602,1.70974599740675
9.376651982378855,1.768050488296327
9.396475770925111,1.8249320755261529
9.416299559471367,1.8803061202501707
9.436123348017622,1.9340933361526755
9.455947136563877,1.9862192291568717
9.475770925110133,2.036613654897417
9.49559471365639,2.0852104682373307
9.515418502202644,2.1319472451411188
9.5352422907489,2.176765061724775
9.555066079295155,2.2196083186978393
9.57488986784141,2.26042460198674
9.594713656387666,2.299164572294025
9.614537444933923,2.3357818778586275
9.634361233480178,2.3702330858517695
9.654185022026432,2.4024776287536445
9.674008810572689,2.4324777627699286
9.693832599118945,2.4601985359108287
9.713656387665198,2.4856077638022347
9.733480176211454,2.5086760116564824
9.75330396475771,2.529376581117563
9.773127753303967,2.5476855009289716
9.792951541850222,2.563581520562406
9.812775330396477,2.577046106102556
9.832599118942733,2.588063437813181
9.852422907488988,2.596620408919451
9.872246696035244,2.6027066252347306
9.892070484581499,2.6063144053406364
9.911894273127754,2.6074387811004236
9.93171806167401,2.60607749835016
9.951541850220266,2.602231017671043
9.971365638766521,2.5959025152031243
9.991189427312776,2.587097883515868
10.011013215859032,2.575825732607342
10.030837004405289,2.562097391162342
10.050660792951543,2.5459269082633575
10.070484581497798,2.5273310558176654
10.090308370044054,2.50632933204367
10.11013215859031,2.4829439664504362
10.129955947136565,2.4571999268518754
10.14977973568282,2.429124929084821
10.169603524229077,2.398749450254057
10.189427312775331,2.3661067465145598
10.209251101321588,2.331232876631563
10.229074889867842,2.294166732843464
10.248898678414099,2.2549500809083303
10.268722466960353,2.213627611660735
10.28854625550661,2.1702470069705533
10.308370044052865,2.124859023714312
10.32819383259912,2.077517600291924
10.348017621145376,2.0282799914121723
10.367841409691632,1.977206938418542
10.387665198237887,1.9243628844544294
10.407488986784141,1.8698162464417998
10.427312775330398,1.8136397594038665
10.447136563876654,1.7559109134273485
10.466960352422909,1.6967125099959273
10.486784140969164,1.636133373191268
10.50660792951542,1.574269263291735
10.526431718061675,1.5112240569595368
10.546255506607931,1.4471112814594291
10.566079295154186,1.3820561230530761
10.585903083700442,1.3161980760161889
10.605726872246697,1.2496944646403496
10.625550660792953,1.1827251646829233
10.645374449339208,1.1154989849066763
10.665198237885463,1.0482623590824385
