Frequency (Hz),Amplitude
0.0,3.7915368789145942
0.019867549668874173,3.790325288247552
0.039735099337748346,3.7866929774333995
0.059602649006622516,3.7806473347728686
0.07947019867549669,3.7722006899471325
0.09933774834437085,3.7613703379521524
0.11920529801324503,3.7481785729351516
0.13907284768211922,3.7326527322587117
0.15894039735099338,3.7148252512080235
0.17880794701986755,3.694733728842007
0.1986754966887417,3.6724210055697313
0.2185430463576159,3.6479352531058997
0.23841059602649006,3.6213300775206707
0.2582781456953642,3.5926646361453183
0.27814569536423844,3.5620037691200555
0.2980132450331126,3.5294181463664716
0.31788079470198677,3.494984430725354
0.33774834437086093,3.4587854579078816
0.3576158940397351,3.4209104337495155
0.3774834437086093,3.3814551490118347
0.3973509933774834,3.3405222116237003
0.4172185430463576,3.298221295760427
0.4370860927152318,3.2546694064928445
0.45695364238410596,3.2099911578545988
0.4768211920529801,3.1643190610280354
0.49668874172185434,3.117793817880492
0.5165562913907285,3.0705646132340707
0.5364238410596026,3.0227893969604183
0.5562913907284769,2.974635144197091
0.5761589403973509,2.9262780786350637
0.5960264900662252,2.877903839899567
0.6158940397350993,2.8297075715502618
0.6357615894039735,2.781893901234979
0.6556291390728477,2.734676779205372
0.6754966887417219,2.688279136030509
0.695364238410596,2.642932315371075
0.7152317880794702,2.5988752337451997
0.7350993377483444,2.556353217182446
0.7549668874172186,2.515616465595462
0.7748344370860927,2.476918100829137
0.7947019867549668,2.44051176495628
0.8145695364238411,2.406648752611647
0.8344370860927152,2.3755746857009568
0.8543046357615894,2.3475257706224717
0.8741721854304636,2.32272471599121
0.8940397350993378,2.301376430133196
0.9139072847682119,2.2836636581931375
0.9337748344370861,2.2697427531957834
0.9536423841059603,2.2597397978571916
0.9735099337748344,2.2537472988558154
0.9933774834437087,2.251821658865856
1.0132450331125828,2.2539815930306917
1.033112582781457,2.260207598389087
1.0529801324503312,2.2704425132302823
1.0728476821192052,2.284593127153381
1.0927152317880795,2.302532731363529
1.1125827814569538,2.3241044411024445
1.1324503311258278,2.3491250841508746
1.1523178807947019,2.377389433617675
1.1721854304635762,2.408674568743239
1.1920529801324504,2.442744170343652
1.2119205298013245,2.479352592273761
1.2317880794701985,2.518248590936243
1.2516556291390728,2.559178636067121
1.271523178807947,2.601889763705155
1.2913907284768211,2.646131963825632
1.3112582781456954,2.6916601194241716
1.3311258278145695,2.738235530836694
1.3509933774834437,2.7856270695034633
1.370860927152318,2.833612010370576
1.390728476821192,2.881976592951614
1.410596026490066,2.9305163589724246
1.4304635761589404,2.9790363105537945
1.4503311258278146,3.0273509279014283
1.4701986754966887,3.0752840801025734
1.4900662251655628,3.1226688573166115
1.5099337748344372,3.169347347673761
1.5298013245033113,3.2151703777213507
1.5496688741721854,3.2599972313515044
1.5695364238410596,3.3036953588172113
1.5894039735099337,3.3461400846675433
1.609271523178808,3.3872143211571575
1.6291390728476822,3.4268082918503207
1.6490066225165563,3.464819268682614
1.6688741721854303,3.5011513246046584
1.6887417218543048,3.5357151030565155
1.7086092715231789,3.5684276048604815
1.728476821192053,3.5992119926319806
1.7483443708609272,3.627997412458154
1.7682119205298013,3.6547188323524833
1.7880794701986755,3.679316896837141
1.8079470198675496,3.7017377969137706
1.8278145695364238,3.72193315464277
1.847682119205298,3.7398599215481805
1.8675496688741722,3.7554802900908473
1.8874172185430464,3.7687616174992575
1.9072847682119205,3.7796763613090842
1.9271523178807946,3.788202026035604
1.9470198675496688,3.7943211204835356
1.9668874172185429,3.7980211252849823
1.9867549668874174,3.799294470345711
2.0066225165562916,3.7981385219720853
2.0264900662251657,3.794555579544318
2.0463576158940397,3.7885528816961704
2.066225165562914,3.7801426220556302
2.086092715231788,3.7693419746958226
2.1059602649006623,3.7561731295387024
2.1258278145695364,3.7406633380468337
2.1456953642384105,3.7228449696281913
2.165562913907285,3.702755579265693
2.185430463576159,3.680437986963969
2.205298013245033,3.6559403696794037
2.2251655629139075,3.629316366461565
2.2450331125827816,3.6006251975808827
2.2649006622516556,3.5699317984428367
2.2847682119205297,3.537306969085508
2.3046357615894038,3.5028275400150433
2.324503311258278,3.4665765550406955
2.3443708609271523,3.4286434716107363
2.364238410596027,3.389124378904124
2.384105960264901,3.3481222335753538
2.403973509933775,3.3057471125515496
2.423841059602649,3.262116481606353
2.443708609271523,3.217355477540804
2.463576158940397,3.171597200639086
2.4834437086092715,3.1249830125792535
2.5033112582781456,3.077662833106128
2.52317880794702,3.0297954264504288
2.543046357615894,2.9815486656452794
2.562913907284768,2.9330997594970722
2.5827814569536423,2.8846354229851126
2.6026490066225163,2.8363519673049216
2.622516556291391,2.7884552807083027
2.642384105960265,2.7411606658943204
2.662251655629139,2.6946924942625263
2.6821192052980134,2.6492836323074473
2.7019867549668874,2.605174591465875
2.7218543046357615,2.562612350698587
2.741721854304636,2.5218488020835936
2.76158940397351,2.483138774970504
2.781456953642384,2.4467376050945098
2.801324503311258,2.4128982326206376
2.821192052980132,2.3818678380916003
2.8410596026490067,2.353884057599022
2.8609271523178808,2.3291708569354816
2.8807947019867552,2.3079341863154705
2.9006622516556293,2.290357578252533
2.9205298013245033,2.2765978858686187
2.9403973509933774,2.266781381237773
2.9602649006622515,2.2610004377805604
2.9801324503311255,2.259311003463967
3.0,2.2617310318168364
3.0198675496688745,2.268239978374084
3.0397350993377485,2.27877939747173
3.0596026490066226,2.2932545972206757
3.0794701986754967,2.3115372387436843
3.0993377483443707,2.333468708070638
3.119205298013245,2.358864051485978
3.1390728476821192,2.3875162500652287
3.1589403973509933,2.419200615483243
3.1788079470198674,2.45367911292797
3.198675496688742,2.490704452462362
3.218543046357616,2.5300238314119152
3.23841059602649,2.571382251946332
3.2582781456953644,2.614525375897763
3.2781456953642385,2.6592019104718947
3.2980132450331126,2.7051655427399757
3.3178807947019866,2.752176457658384
3.3377483443708607,2.800002484609241
3.3576158940397347,2.8484199222623516
3.3774834437086096,2.897214092222743
3.3973509933774837,2.946179669686569
3.4172185430463577,2.995120835245635
3.437086092715232,3.043851286907082
3.456953642384106,3.0921941459612543
3.47682119205298,3.1399817849738887
3.4966887417218544,3.1870556011776623
3.5165562913907285,3.233265754046527
3.5364238410596025,3.278470881922857
3.556291390728477,3.3225378092385736
3.576158940397351,3.3653412530970015
3.596026490066225,3.406763535710996
3.615894039735099,3.446694307363416
3.6357615894039736,3.4850302831051105
3.6556291390728477,3.5216749952728197
3.6754966887417218,3.5565385630395645
3.695364238410596,3.589537479554569
3.7152317880794703,3.6205944167465702
3.7350993377483444,3.6496380475187036
3.754966887417219,3.6766028848255465
3.774834437086093,3.701429136969654
3.794701986754967,3.724062578366935
3.814569536423841,3.7444544349918853
3.834437086092715,3.762561283713051
3.854304635761589,3.778344964756692
3.8741721854304636,3.791772506584755
3.8940397350993377,3.802816062536928
3.9139072847682117,3.811452858660493
3.9337748344370858,3.817665152234046
3.9536423841059607,3.8214402005780412
3.9735099337748347,3.8227702398361596
3.993377483443709,3.82165247350472
4.013245033112583,3.8180890705820163
4.033112582781457,3.8120871733050765
4.052980132450331,3.803658914537194
4.072847682119205,3.792821444965535
4.0927152317880795,3.7795969703631282
4.112582781456953,3.7640127992634804
4.132450331125828,3.746101401487793
4.152317880794702,3.725900478052621
4.172185430463576,3.70345304306909
4.19205298013245,3.67880751831946
4.211920529801325,3.6520178412611166
4.231788079470199,3.6231435872563953
4.251655629139073,3.592250106853546
4.271523178807947,3.5594086789419888
4.291390728476821,3.5246966805637596
4.311258278145695,3.4881977740695618
4.33112582781457,3.450002112147206
4.3509933774834435,3.4102065610007513
4.370860927152318,3.3689149415970077
4.390728476821192,3.326238288390385
4.410596026490066,3.2822951242515446
4.43046357615894,3.2372117494158688
4.450331125827815,3.1911225410833497
4.470198675496689,3.1441702587852807
4.490066225165563,3.096506348721154
4.509933774834438,3.0482912378969838
4.529801324503311,2.999694605999945
4.549668874172186,2.9508956194723033
4.569536423841059,2.902083108170466
4.589403973509934,2.853455660324294
4.6092715231788075,2.8052216063235256
4.629139072847682,2.7575988563216094
4.649006622516556,2.7108145510634634
4.66887417218543,2.6651044801804287
4.688741721854305,2.6207122181265308
4.708609271523179,2.577887925854552
4.728476821192054,2.5368867673687183
4.748344370860927,2.497966895734093
4.768211920529802,2.461386974306111
4.788079470198675,2.42740321704706
4.80794701986755,2.3962659575368024
4.827814569536423,2.3682157895578224
4.847682119205298,2.343479361625368
4.867549668874172,2.3222649507311193
4.887417218543046,2.304757982492829
4.9072847682119205,2.291116700188089
4.927152317880794,2.281468207569563
4.947019867549669,2.2759051142368087
4.966887417218543,2.2744829938857545
4.986754966887418,2.2772188242605114
5.006622516556291,2.284090516146822
5.026490066225166,2.2950375639361424
5.04635761589404,2.309962771372727
5.066225165562914,2.328734933098116
5.086092715231788,2.3511922943856063
5.105960264900662,2.3771465740568667
5.125827814569536,2.4063873213292504
5.14569536423841,2.438686384905742
5.1655629139072845,2.473802297755808
5.185430463576159,2.511484417881593
5.205298013245033,2.551476707734243
5.225165562913908,2.5935210773835267
5.245033112582782,2.6373602549597965
5.264900662251656,2.682740179765079
5.28476821192053,2.7294119377257657
5.304635761589404,2.7771332756060243
5.324503311258278,2.825669740443309
5.344370860927152,2.8747954952266483
5.364238410596027,2.9242938622489536
5.3841059602649,2.97395764308782
5.403973509933775,3.0235892598823404
5.4238410596026485,3.073000757331203
5.443708609271523,3.122013699270278
5.463576158940397,3.170458988230757
5.483443708609272,3.218176631303637
5.503311258278146,3.2650154710937795
5.52317880794702,3.3108328965993366
5.543046357615895,3.3554945455024234
5.562913907284768,3.3988740065716128
5.582781456953643,3.4408525286005647
5.602649006622516,3.481318740478032
5.622516556291391,3.5201683855361625
5.642384105960264,3.557304072196427
5.662251655629139,3.592635042067866
5.682119205298013,3.6260769560030375
5.701986754966887,3.6575516981400855
5.7218543046357615,3.686987197619078
5.741721854304636,3.71431726742891
5.7615894039735105,3.739481459692672
5.781456953642384,3.762424936616052
5.801324503311259,3.7830983562890563
5.821192052980132,3.8014577725345573
5.841059602649007,3.8174645480279303
5.860927152317881,3.8310852799636788
5.880794701986755,3.8422917376109416
5.900662251655629,3.8510608111766857
5.920529801324503,3.857374471480086
5.940397350993377,3.8612197400307267
5.960264900662251,3.862588669196692
5.980132450331126,3.861478332243887
6.0,3.857890823124919
6.0198675496688745,3.851833265993481
6.039735099337749,3.8433178345186887
6.059602649006623,3.832361781171497
6.079470198675497,3.8189874767534495
6.099337748344371,3.803222460533818
6.119205298013245,3.7850995014560493
6.139072847682119,3.7646566709647935
6.158940397350993,3.741937428090904
6.178807947019867,3.71699071750948
6.198675496688741,3.6898710813530617
6.218543046357616,3.6606387856132767
6.23841059602649,3.629359961993679
6.258278145695365,3.5961067660765322
6.2781456953642385,3.560957552626354
6.298013245033113,3.5239970687603637
6.317880794701987,3.485316665553706
6.337748344370861,3.445014528395294
6.357615894039735,3.403195926041888
6.377483443708609,3.3599734778023884
6.397350993377484,3.3154674375836883
6.417218543046357,3.269805992597244
6.437086092715232,3.2231255733105146
6.456953642384105,3.1755711696683586
6.47682119205298,3.1272966466416414
6.496688741721854,3.078465049714488
6.516556291390729,3.029248887932348
6.5364238410596025,2.9798303785445377
6.556291390728477,2.930401633056491
6.5761589403973515,2.8811647596685037
6.596026490066225,2.8323318516976426
6.6158940397351,2.7841248258323144
6.635761589403973,2.7367750682673364
6.655629139072848,2.690522841398452
6.675496688741721,2.6456163995210735
6.695364238410596,2.602310759817996
6.715231788079469,2.560866076006424
6.735099337748344,2.521545567693772
6.754966887417219,2.48461297016124
6.774834437086093,2.4503294881803788
6.794701986754967,2.41895026431267
6.814569536423841,2.3907204068145194
6.8344370860927155,2.3658706633670135
6.854304635761589,2.3446128713938093
6.874172185430464,2.3271353591029182
6.894039735099337,2.313598507642165
6.913907284768212,2.304130707388779
6.933774834437086,2.29882494452827
6.95364238410596,2.2977362338713267
6.973509933774834,2.3008800697378162
6.993377483443709,2.308232002085643
7.013245033112583,2.3197283670076807
7.033112582781457,2.3352681189813143
7.052980132450331,2.3547156372772493
7.072847682119205,2.377904319821963
7.0927152317880795,2.4046407406342496
7.112582781456954,2.434709133883938
7.132450331125828,2.467875976989752
7.152317880794702,2.503894472391921
7.172185430463576,2.542508766513479
7.19205298013245,2.5834577885356356
7.211920529801324,2.6264786353683167
7.231788079470198,2.6713094684707044
7.251655629139073,2.717691920492388
7.271523178807947,2.7653730340812297
7.291390728476822,2.8141067718098376
7.311258278145695,2.863655145925931
7.33112582781457,2.913789020830417
7.3509933774834435,2.964288641223116
7.370860927152318,3.0149439360258334
7.390728476821192,3.065554643596254
7.410596026490066,3.1159302982454053
7.430463576158941,3.1658901122988787
7.450331125827814,3.2152627823266813
7.470198675496689,3.2638862429745084
7.490066225165562,3.311607387204168
7.509933774834438,3.3582817677467256
7.52980132450331,3.4037732911866394
7.549668874172186,3.4479539132886843
7.569536423841059,3.4907033418935973
7.589403973509934,3.5319087518763563
7.6092715231788075,3.5714645152155735
7.629139072847682,3.6092719480998974
7.649006622516557,3.645239076140468
7.66887417218543,3.6792804181171115
7.6887417218543055,3.7113167882172937
7.708609271523178,3.7412751163950975
7.728476821192054,3.769088286253247
7.748344370860927,3.7946949897103974
7.768211920529802,3.8180395976389416
7.788079470198675,3.8390720456308385
7.80794701986755,3.8577477340575412
7.827814569536423,3.8740274416261835
7.847682119205298,3.887877251690115
7.8675496688741715,3.899268490642427
7.887417218543046,3.9081776778020627
7.907284768211921,3.914586486289947
7.927152317880795,3.918481714485802
7.9470198675496695,3.9198552677528093
7.966887417218543,3.9187041502157465
7.986754966887418,3.915030466478607
8.006622516556291,3.9088414332685373
8.026490066225167,3.9001494010945277
8.046357615894038,3.8889718861107068
8.066225165562914,3.875331612475244
8.086092715231787,3.8592565655956728
8.105960264900663,3.8407800567498027
8.125827814569536,3.8199407996658175
8.14569536423841,3.796782999735059
8.165562913907285,3.7713564566129962
8.185430463576159,3.743716681034783
8.205298013245034,3.7139250267269026
8.225165562913906,3.6820488383296053
8.245033112582782,3.6481616162475
8.264900662251655,3.6123431993081083
8.28476821192053,3.574679966015653
8.304635761589404,3.5352650550238796
8.324503311258278,3.494198605194853
8.344370860927151,3.4515880152335194
8.364238410596027,3.407548222358336
8.3841059602649,3.3622019987450766
8.403973509933774,3.3156802635175704
8.42384105960265,3.26812240679972
8.443708609271523,3.219676620723728
8.463576158940398,3.1705002302419554
8.483443708609272,3.1207600140397527
8.503311258278146,3.070632502725082
8.52317880794702,3.020304237717156
8.543046357615895,2.9699719698370455
8.562913907284768,2.9198427715275947
8.582781456953642,2.8701340309775896
8.602649006622515,2.8210732903812175
8.62251655629139,2.7728978844548844
8.642384105960264,2.7258543296774005
8.66225165562914,2.6801974102574317
8.682119205298013,2.636188904563171
8.701986754966887,2.594095896915962
8.721854304635762,2.5541886256843487
8.741721854304636,2.516737830999117
8.76158940397351,2.4820115854380185
8.781456953642383,2.450271619471798
8.801324503311259,2.421769190149479
8.821192052980132,2.396740584892996
8.841059602649008,2.3754023991454183
8.86092715231788,2.3579467720079816
8.880794701986755,2.344536801552924
8.90066225165563,2.335302384317375
8.920529801324504,2.3303367254220375
8.940397350993377,2.329693742916168
8.960264900662251,2.3333865419798525
8.980132450331126,2.3413870653909035
9.0,2.35362694399839
9.019867549668875,2.3699994852728348
9.039735099337747,2.3903626603568107
9.059602649006623,2.414542889847814
9.079470198675496,2.442339391886184
9.099337748344372,2.4735288448794757
9.119205298013245,2.5078701292464576
9.139072847682119,2.5451089427984344
9.158940397350994,2.584982126141331
9.178807947019868,2.627221581023553
9.198675496688743,2.6715577101095307
9.218543046357615,2.7177223470694956
9.23841059602649,2.7654511787336964
9.258278145695364,2.8144856855089175
9.27814569536424,2.8645746426076855
9.298013245033111,2.9154752339472334
9.317880794701987,2.966953834240312
9.33774834437086,3.01878651429267
9.357615894039736,3.070759321189306
9.37748344370861,3.1226683800189488
9.397350993377483,3.174319857925975
9.417218543046358,3.2255298252225417
9.437086092715232,3.2761240424624987
9.456953642384107,3.325937697029098
9.47682119205298,3.374815108052716
9.496688741721854,3.422609414397094
9.516556291390728,3.4691822570212656
9.536423841059603,3.5144034641926223
9.556291390728477,3.5581507457293506
9.57615894039735,3.600309400617732
9.596026490066224,3.6407720409090856
9.6158940397351,3.6794383336883594
9.635761589403973,3.7162147620602757
9.655629139072847,3.7510144054703725
9.675496688741722,3.7837567392216336
9.695364238410596,3.8143674527279146
9.715231788079471,3.842778285832298
9.735099337748345,3.868926882388265
9.754966887417218,3.892756660234169
9.774834437086092,3.914216696672453
9.794701986754967,3.9332616285815636
9.814569536423841,3.9498515663316853
9.834437086092716,3.963952020737867
9.854304635761588,3.9755338423606448
9.874172185430464,3.9845731725506353
9.894039735099337,3.9910514057264095
9.913907284768213,3.9949551624733197
9.933774834437086,3.9962762731516905
9.95364238410596,3.9950117718058613
9.973509933774835,3.99116390027053
9.993377483443709,3.984740122475779
10.013245033112582,3.9757531490585265
10.033112582781456,3.964220972493867
10.052980132450331,3.9501669130658974
10.072847682119205,3.9336196761021984
10.09271523178808,3.914613420999439
10.112582781456952,3.893187842667498
10.132450331125828,3.8693882661145738
10.152317880794701,3.8432657549832916
10.172185430463577,3.814877234924021
10.192052980132452,3.7842856327520207
10.211920529801324,3.7515600323726828
10.2317880794702,3.716775848465874
10.251655629139073,3.6800150188848337
10.271523178807948,3.641366216633276
10.29139072847682,3.6009250821178793
10.311258278145695,3.5587944761095254
10.331125827814569,3.5150847534568834
10.350993377483444,3.4699140570453078
10.370860927152318,3.4234086307399543
10.390728476821192,3.3757031490435514
10.410596026490065,3.3269410598769653
10.43046357615894,3.2772749351871373
10.450331125827816,3.226866821926271
10.470198675496688,3.1758885832508525
10.490066225165563,3.1245222164821027
10.509933774834437,3.07296013038564
10.529801324503312,3.0214053596296955
10.549668874172186,2.970071688876602
10.56953642384106,2.919183652934919
10.589403973509933,2.8689763729481927
10.609271523178808,2.8196951820719103
10.629139072847682,2.7715949880500097
10.649006622516556,2.724939315350089
10.66887417218543,2.67999896713091
10.688741721854305,2.6370502486439733
10.70860927152318,2.5963727002615373
10.728476821192054,2.5582463017734147
10.748344370860927,2.522948131288882
10.7682119205298,2.490748492817711
