Frequency (Hz),Amplitude
0.0,0.8765176209872072
0.019823788546255508,0.8761983133008387
0.039647577092511016,0.8752409910880821
0.059471365638766524,0.8736474581910756
0.07929515418502203,0.8714207253751467
0.09911894273127755,0.8685650169385851
0.11894273127753305,0.8650857801001757
0.13876651982378857,0.8609896973006018
0.15859030837004406,0.8562847015930586
0.17841409691629956,0.8509799953415179
0.1982378854625551,0.8450860724866948
0.2180616740088106,0.8386147446855334
0.2378854625550661,0.8315791716739923
0.25770925110132165,0.8239938962502381
0.27753303964757714,0.815874884320239
0.29735682819383263,0.8072395704927593
0.31718061674008813,0.79810690975144
0.3370044052863437,0.7884974357667529
0.3568281938325991,0.7784333264355764
0.37665198237885467,0.7679384772455579
0.3964757709251102,0.7570385830483221
0.41629955947136565,0.7457612287803368
0.4361233480176212,0.7341359895786568
0.4559471365638767,0.7221945405861371
0.4757709251101322,0.7099707765022844
0.49559471365638774,0.6975009405874869
0.5154185022026433,0.6848237623315268
0.5352422907488987,0.6719806023142381
0.5550660792951543,0.6590156018634699
0.5748898678414097,0.6459758338998052
0.5947136563876653,0.6329114497865567
0.6145374449339208,0.6198758150189063
0.6343612334801763,0.6069256241405677
0.6541850220264318,0.5941209823481225
0.6740088105726874,0.581525437863403
0.6938325991189428,0.5692059454346374
0.7136563876651982,0.5572327375056834
0.7334801762114539,0.5456790760773005
0.7533039647577093,0.5346208557015498
0.7731277533039648,0.5241360272620177
0.7929515418502204,0.5143038142918909
0.8127753303964759,0.505203699779016
0.8325991189427313,0.496914172840885
0.8524229074889869,0.48951124204246155
0.8722466960352424,0.48306674534402483
0.8920704845814978,0.47764651425961946
0.9118942731277534,0.4733084787189532
0.931718061674009,0.47010082473993564
0.9515418502202644,0.46806033379169065
0.9713656387665199,0.4672110354011402
0.9911894273127755,0.4675632897379198
1.0110132158590308,0.46911338450599727
1.0308370044052866,0.4718436843297455
1.0506607929515421,0.4757233182108089
1.0704845814977975,0.4807093404945813
1.090308370044053,0.48674826141757455
1.1101321585903086,0.4937778202562689
1.1299559471365639,0.5017288690482024
1.1497797356828194,0.5105272457674798
1.1696035242290752,0.5200955381041197
1.1894273127753305,0.5303546670261007
1.209251101321586,0.541225247948225
1.2290748898678416,0.5526287127870361
1.248898678414097,0.5644881962923327
1.2687224669603525,0.5767292041328376
1.288546255506608,0.589280088669799
1.3083700440528636,0.6020723621690757
1.3281938325991192,0.6150408775918329
1.3480176211453747,0.6281239052265277
1.36784140969163,0.6412631302530694
1.3876651982378856,0.6544035925953935
1.4074889867841411,0.6674935866229494
1.4273127753303965,0.6804845347144355
1.4471365638766522,0.6933308455607852
1.4669603524229078,0.7059897654242221
1.4867841409691631,0.7184212283835552
1.5066079295154187,0.7305877098457084
1.5264317180616742,0.7424540862351843
1.5462555066079295,0.75398750272518
1.5660792951541853,0.7651572500888731
1.5859030837004409,0.7759346511736767
1.6057268722466962,0.7862929570897537
1.6255506607929517,0.7962072529192199
1.6453744493392073,0.8056543725634459
1.6651982378854626,0.8146128222285235
1.6850220264317182,0.8230627119841704
1.7048458149779737,0.8309856948043935
1.7246696035242293,0.8383649124984871
1.7444933920704848,0.8451849479588399
1.7643171806167404,0.8514317831832169
1.7841409691629957,0.8570927625674012
1.8039647577092512,0.862156561006838
1.8237885462555068,0.8666131563917235
1.8436123348017623,0.8704538061252092
1.863436123348018,0.8736710273408714
1.8832599118942732,0.876258580539777
1.9030837004405288,0.8782114564115733
1.9229074889867843,0.8795258656461558
1.9427312775330399,0.8801992315837591
1.9625550660792954,0.8802301855914074
1.982378854625551,0.879618565092781
2.002202643171806,0.8783654142174735
2.0220264317180616,0.8764729870740348
2.041850220264317,0.8739447536895962
2.061674008810573,0.8707854086983612
2.0814977973568287,0.8670008829004311
2.1013215859030843,0.8625983578537624
2.1211453744493394,0.857586283703928
2.140969162995595,0.8519744004999044
2.1607929515418505,0.8457737632894143
2.180616740088106,0.838996771333814
2.2004405286343616,0.8316572018302467
2.220264317180617,0.8237702485773416
2.2400881057268722,0.8153525660681876
2.2599118942731278,0.8064223195411477
2.2797356828193833,0.796999241559882
2.299559471365639,0.7871046957290182
2.319383259911895,0.7767617481736082
2.3392070484581504,0.7659952474146079
2.3590308370044055,0.7548319132490368
2.378854625550661,0.7433004351817586
2.3986784140969166,0.7314315808406159
2.418502202643172,0.7192583146167015
2.4383259911894277,0.7068159264846241
2.4581497797356833,0.6941421705373685
2.4779735682819384,0.6812774121809404
2.497797356828194,0.6682647821252432
2.5176211453744495,0.6551503342227873
2.537444933920705,0.6419832027867403
2.5572687224669606,0.6288157531942529
2.577092511013216,0.6157037172944884
2.5969162995594717,0.6027063023476954
2.6167400881057272,0.5898862589191011
2.6365638766519828,0.5773098894030461
2.6563876651982383,0.5650469748278967
2.676211453744494,0.5531705936161504
2.6960352422907494,0.5417568025801831
2.715859030837005,0.530884148400157
2.73568281938326,0.5206329781983866
2.7555066079295156,0.5110845218386459
2.775330396475771,0.5023197275388862
2.7951541850220267,0.4944178473558026
2.8149779735682823,0.4874547904872796
2.834801762114538,0.48150128939114856
2.854625550660793,0.4766209540783556
2.874449339207049,0.47286831947372754
2.8942731277533045,0.47028701389209515
2.91409691629956,0.4689081874744544
2.9339207048458156,0.4687493330423308
2.953744493392071,0.4698136062874164
2.9735682819383262,0.47208970960476254
2.993392070484582,0.4755523504030438
3.0132158590308373,0.48016322940363415
3.033039647577093,0.485872466772492
3.0528634361233484,0.49262034140511796
3.072687224669604,0.5003392050112374
3.092511013215859,0.5089554372984898
3.1123348017621146,0.5183913276075685
3.1321585903083706,0.5285667960694972
3.151982378854626,0.5394008978844039
3.1718061674008817,0.5508130829240677
3.1916299559471373,0.5627242065116532
3.2114537444933924,0.5750573046134464
3.231277533039648,0.5877381578158043
3.2511013215859035,0.6006956742192328
3.270925110132159,0.6138621230073907
3.2907488986784146,0.627173249225245
3.31057268722467,0.6405682973525011
3.3303964757709252,0.6539899674611068
3.350220264317181,0.6673843237208809
3.3700440528634363,0.6807006711608705
3.389867841409692,0.6938914131290458
3.4096916299559474,0.7069118989196984
3.4295154185022034,0.719720268571845
3.4493392070484585,0.732277299856587
3.469162995594714,0.7445462609085373
3.4889867841409696,0.7564927707553073
3.508810572687225,0.7680846690937768
3.5286343612334807,0.7792918959951066
3.5484581497797363,0.7900863817413247
3.5682819383259914,0.8004419466616314
3.588105726872247,0.8103342106121485
3.6079295154185025,0.8197405116009714
3.627753303964758,0.8286398329785878
3.6475770925110136,0.8370127385767254
3.667400881057269,0.8448413151715656
3.6872246696035247,0.852109121663067
3.7070484581497802,0.8588011443907024
3.726872246696036,0.8649037580455508
3.7466960352422913,0.8704046916818284
3.7665198237885464,0.8752929993784448
3.7863436123348024,0.8795590351491279
3.8061674008810575,0.8831944317469923
3.8259911894273135,0.8861920830570138
3.8458149779735686,0.8885461298150751
3.8656387665198246,0.89025194843692
3.8854625550660797,0.8913061427829821
3.905286343612335,0.8917065387269385
3.925110132158591,0.8914521814366595
3.9449339207048464,0.8905433353159823
3.964757709251102,0.8889814865958172
3.9845814977973575,0.8867693486024388
4.004405286343612,0.883910869771228
4.024229074889869,0.8804112445148118
4.044052863436123,0.8762769270965153
4.06387665198238,0.8715156487034392
4.083700440528634,0.8661364379586391
4.103524229074891,0.8601496451585865
4.123348017621146,0.8535669705714154
4.143171806167401,0.8464014971816244
4.162995594713657,0.8386677283199258
4.182819383259912,0.8303816306692874
4.2026431718061685,0.821560683191659
4.222466960352423,0.8122239325701694
4.242290748898679,0.8023920558078168
4.262114537444934,0.7920874306610561
4.28193832599119,0.7813342146099383
4.301762114537445,0.7701584330691735
4.321585903083701,0.7585880775145744
4.3414096916299565,0.746653214125516
4.361233480176212,0.7343861034064643
4.381057268722468,0.7218213310272495
4.400881057268723,0.7089959497817592
4.420704845814979,0.6959496320694694
4.440528634361234,0.682724831608972
4.46035242290749,0.6693669521369726
4.4801762114537445,0.6559245195683945
4.500000000000001,0.6424493524166397
4.5198237885462555,0.6289967231259322
4.539647577092512,0.6156255002830201
4.559471365638767,0.6023982584122886
4.579295154185023,0.5893813382295429
4.599118942731278,0.5766448359332362
4.618942731277533,0.5642624955892974
4.63876651982379,0.5523114743502986
4.658590308370044,0.5408719468351765
4.678414096916301,0.5300265134699025
4.6982378854625555,0.5198593792319769
4.718061674008811,0.5104552755236019
4.737885462555067,0.5018981102530382
4.757709251101322,0.4942693506295633
4.777533039647578,0.4876461696934643
4.797356828193833,0.4820994196656153
4.817180616740089,0.4776915292770748
4.837004405286344,0.47447445283113254
4.856828193832599,0.472487819124116
4.876651982378855,0.47175743204008985
4.896475770925111,0.4722942574233622
4.9162995594713665,0.4740939925800097
4.936123348017622,0.4771372602284816
4.955947136563877,0.4813904068653039
4.975770925110133,0.48680682726206176
4.995594713656388,0.49332869210258273
5.015418502202644,0.5008889309734756
5.035242290748899,0.5094133195592204
5.055066079295155,0.5188225349944777
5.07488986784141,0.5290340709849034
5.094713656387666,0.5399639377046599
5.114537444933921,0.5515281045880124
5.134361233480177,0.5636436727247993
5.154185022026432,0.5762297854509912
5.174008810572688,0.589208300434822
5.193832599118943,0.6025042548142988
5.213656387665199,0.6160461580663659
5.2334801762114544,0.6297661467626317
5.25330396475771,0.643600032543787
5.2731277533039655,0.6574872706117666
5.292951541850221,0.6713708715822652
5.312775330396477,0.6851972751764649
5.332599118942731,0.6989162002604223
5.352422907488988,0.7124804823043133
5.372246696035242,0.7258459064728718
5.392070484581499,0.7389710422449074
5.4118942731277535,0.7518170836386235
5.43171806167401,0.764347697716613
5.451541850220265,0.7765288829881705
5.47136563876652,0.7883288385484029
5.491189427312777,0.7997178442339933
5.511013215859031,0.8106681516855809
5.530837004405288,0.821153885943716
5.550660792951542,0.8311509570399522
5.570484581497798,0.840636980947778
5.5903083700440535,0.8495912092130008
5.610132158590309,0.8579944665737819
5.6299559471365646,0.8658290958957675
5.64977973568282,0.8730789097791196
5.669603524229076,0.8797291482366797
5.689427312775331,0.8857664418906516
5.709251101321586,0.8911787801862623
5.729074889867842,0.8959554841738255
5.748898678414098,0.9000871834620047
5.768722466960353,0.9035657969968468
5.788546255506609,0.9063845173700107
5.808370044052864,0.9085377984076265
5.82819383259912,0.9100213458371994
5.848017621145375,0.9108321108744933
5.867841409691631,0.9109682866153324
5.887665198237886,0.9104293071600115
5.907488986784142,0.9092158494393364
5.927312775330397,0.9073298377530877
5.9471365638766525,0.904774451073621
5.966960352422908,0.9015541332099578
5.986784140969164,0.897674605971309
6.00660792951542,0.8931428855144633
6.026431718061675,0.8879673021065845
6.04625550660793,0.8821575235846858
6.066079295154186,0.8757245828447104
6.085903083700441,0.8686809097482352
6.105726872246697,0.8610403678914634
6.125550660792952,0.8528182967411493
6.145374449339208,0.8440315597024357
6.1651982378854635,0.8346985987448815
6.185022026431718,0.8248394962724876
6.204845814977975,0.814476044977676
6.224669603524229,0.8036318264650669
6.244493392070486,0.7923322994609132
6.264317180616741,0.7806048984300727
6.284140969162996,0.7684791433933841
6.303964757709252,0.7559867616566089
6.323788546255507,0.7431618220080117
6.3436123348017635,0.7300408816863295
6.363436123348018,0.7166631460283295
6.3832599118942746,0.7030706401295964
6.403083700440529,0.6893083910358733
6.422907488986785,0.6754246178576817
6.44273127753304,0.6614709256854505
6.462555066079296,0.64750249718958
6.482378854625551,0.633578273227725
6.502202643171807,0.6197611105726359
6.5220264317180625,0.60611790097356
6.541850220264318,0.5927196311970181
6.561674008810574,0.5796413585991772
6.581497797356829,0.566962071487082
6.601321585903085,0.5547643986072802
6.62114537444934,0.5431341284671115
6.640969162995596,0.5321594981225324
6.6607929515418505,0.52193021417954
6.680616740088107,0.5125361778547136
6.700440528634362,0.5040659026721731
6.720264317180618,0.4966046386696903
6.740088105726873,0.49023225035344264
6.759911894273129,0.48502093445023203
6.779735682819384,0.4810329026195436
6.799559471365639,0.47831818635815787
6.819383259911895,0.4769127380917996
6.83920704845815,0.47683699689257963
6.859030837004407,0.4780950561556194
6.8788546255506615,0.48067451632586244
6.898678414096917,0.48454703667797316
6.918502202643173,0.48966952857312807
6.938325991189428,0.49598587158867186
6.958149779735684,0.5034289935350156
6.977973568281939,0.5119231402934309
6.997797356828195,0.5213861703370755
7.01762114537445,0.531731735864998
7.037444933920705,0.5428712496299515
7.0572687224669615,0.5547155759304446
7.077092511013216,0.5671764198517963
7.096916299559473,0.5801674171593482
7.116740088105728,0.5936049470551017
7.136563876651983,0.6074087017875143
7.156387665198239,0.6215020522904297
7.176211453744494,0.6358122493972566
7.19603524229075,0.6502704974278831
7.215859030837005,0.664811932480866
7.235682819383261,0.679375532615752
7.255506607929516,0.6939039819695201
7.275330396475772,0.708343506126214
7.295154185022027,0.7226436919501426
7.314977973568283,0.736757301664103
7.334801762114538,0.7506400881840628
7.354625550660794,0.7642506165425974
7.374449339207049,0.7775500945608668
7.394273127753305,0.7905022146730261
7.4140969162995605,0.8030730078864167
7.433920704845816,0.8152307102015751
7.453744493392072,0.8269456413598546
7.473568281938327,0.8381900954808039
7.493392070484583,0.8489382429606105
7.513215859030838,0.8591660428929613
7.533039647577093,0.8688511652240147
7.552863436123348,0.8779729218442225
7.572687224669605,0.886512205839115
7.59251101321586,0.8944514381594516
7.612334801762115,0.9017745210201613
7.6321585903083715,0.9084667973938291
7.651982378854627,0.9145150160234049
7.671806167400882,0.9199073014387759
7.691629955947137,0.9246331285207939
7.711453744493394,0.9286833012134842
7.731277533039649,0.932049935041035
7.751101321585904,0.9347264431381868
7.7709251101321595,0.9367075255542001
7.790748898678416,0.9379891616383742
7.81057268722467,0.9385686053625887
7.830396475770926,0.9384443834816362
7.850220264317182,0.9376162964768163
7.870044052863436,0.9360854222725251
7.889867841409693,0.9338541227601285
7.909691629955948,0.9309260532081424
7.929515418502204,0.9273061746841764
7.9493392070484585,0.9230007696613802
7.969162995594715,0.9180174610326679
7.9889867841409705,0.9123652348080241
8.008810572687224,0.9060544668261074
8.02863436123348,0.8990969538701181
8.048458149779737,0.8915059496405923
8.068281938325994,0.8832962061039497
8.088105726872246,0.8744840208050121
8.107929515418503,0.8650872908038812
8.12775330396476,0.8551255739710075
8.147577092511014,0.8446201584468703
8.167400881057269,0.8335941411413497
8.187224669603525,0.8220725162072015
8.207048458149782,0.8100822744660807
8.226872246696036,0.7976525147826765
8.246696035242293,0.7848145683609404
8.266519823788547,0.771602136855409
8.286343612334802,0.7580514450261437
8.306167400881058,0.7442014083835484
8.325991189427315,0.7300938158254736
8.345814977973568,0.7157735266073243
8.365638766519824,0.7012886800350263
8.38546255506608,0.6866909149461838
8.405286343612337,0.6720355942425331
8.42511013215859,0.657382027347472
8.444933920704846,0.6427936803676734
8.464757709251103,0.6283383598382861
8.484581497797357,0.6140883511696321
8.504405286343614,0.6001204873210523
8.524229074889869,0.5865161169936215
8.544052863436125,0.5733609351856684
8.56387665198238,0.5607446330650916
8.583700440528636,0.5487603199842024
8.60352422907489,0.537503669787277
8.623348017621145,0.5270717484524691
8.643171806167402,0.5175614928651857
8.662995594713658,0.5090678331107119
8.682819383259913,0.501681483956501
8.702643171806168,0.49548647393838124
8.722466960352424,0.490557528484919
8.74229074889868,0.48695746936518225
8.762114537444935,0.48473482650115823
8.78193832599119,0.48392186955700217
8.801762114537446,0.4845332482063115
8.821585903083701,0.48656538006496486
8.841409691629957,0.4899966501736693
8.861233480176212,0.4947883987685469
8.881057268722468,0.5008865915260861
8.900881057268723,0.5082240037760952
8.92070484581498,0.5167227169459284
8.940528634361234,0.5262967236260804
8.960352422907489,0.5368544620213566
8.980176211453745,0.5483011417793348
9.000000000000002,0.56054077090088
9.019823788546258,0.573477838947997
9.039647577092511,0.5870186494271175
9.059471365638768,0.6010723215620434
9.079295154185024,0.615551498698434
9.099118942731279,0.630372808850906
9.118942731277533,0.6454571246112394
9.13876651982379,0.6607296669950617
9.158590308370046,0.6761199926940933
9.1784140969163,0.6915618980282427
9.198237885462555,0.7069932666106397
9.218061674008812,0.722355881914923
9.237885462555067,0.7375952208574511
9.257709251101323,0.7526602402710086
9.27753303964758,0.7675031647339347
9.297356828193834,0.7820792815449508
9.317180616740089,0.7963467465933003
9.337004405286345,0.8102664033512258
9.356828193832602,0.8238016161081493
9.376651982378855,0.8369181177802129
9.396475770925111,0.8495838720900355
9.416299559471367,0.861768949556488
9.436123348017622,0.8734454165155873
9.455947136563877,0.8845872362724373
9.475770925110133,0.8951701814331787
9.49559471365639,0.9051717564616901
9.515418502202644,0.9145711295352711
9.5352422907489,0.923349072822249
9.555066079295155,0.9314879103662383
9.57488986784141,0.9389714728302185
9.594713656387666,0.9457850584243063
9.614537444933923,0.9519153994119315
9.634361233480178,0.9573506336584886
9.654185022026432,0.9620802807528643
9.674008810572689,0.9660952222957834
9.693832599118945,0.969387686009224
9.713656387665198,0.9719512333779867
9.733480176211454,0.9737807505890834
9.75330396475771,0.9748724425864201
9.773127753303967,0.9752238301081609
9.792951541850222,0.9748337496229283
9.812775330396477,0.973702356128743
9.832599118942733,0.9718311288260943
9.852422907488988,0.9692228797247651
9.872246696035244,0.9658817652928099
9.892070484581499,0.9618133013069011
9.911894273127754,0.9570243811161702
9.93171806167401,0.9515232975874999
9.951541850220266,0.945319769059733
9.971365638766521,0.9384249696975245
9.991189427312776,0.9308515647039819
10.011013215859032,0.9226137509237652
10.030837004405289,0.9137273034467988
10.050660792951543,0.9042096289055434
10.070484581497798,0.8940798262464248
10.090308370044054,0.883358755846201
10.11013215859031,0.8720691179358361
10.129955947136565,0.8602355413833316
10.14977973568282,0.8478846839674581
10.169603524229077,0.83504534534024
10.189427312775331,0.8217485939132821
10.209251101321588,0.808027908898157
10.229074889867842,0.7939193386603963
10.248898678414099,0.7794616763799256
10.268722466960353,0.764696653708173
10.28854625550661,0.7496691526183322
10.308370044052865,0.7344274348916855
10.32819383259912,0.7190233875793223
10.348017621145376,0.7035127812165838
10.367841409691632,0.6879555354150938
10.387665198237887,0.6724159835674387
10.407488986784141,0.6569631246186001
10.427312775330398,0.6416708450474128
10.447136563876654,0.626618088278354
10.466960352422909,0.6118889417418187
10.486784140969164,0.5975726039593823
10.50660792951542,0.5837631859158571
10.526431718061675,0.5705592936227702
10.546255506607931,0.5580633338039537
10.566079295154186,0.5463804843258101
10.585903083700442,0.5356172781936764
10.605726872246697,0.5258797676678109
