Time (s),Filtered Signal
0.0,-0.05048725436509952
0.033370165745856356,0.015949052189655085
0.06674033149171271,0.0767030541616912
0.10011049723756907,0.12676065625694255
0.13348066298342542,0.16320269573346566
0.16685082872928178,0.18515139224785745
0.20022099447513814,0.1931658695588656
0.2335911602209945,0.18863481307821564
0.26696132596685085,0.17358801723177272
0.30033149171270723,0.15092314180579183
0.33370165745856356,0.12462844152185444
0.3670718232044199,0.09947842311974146
0.4004419889502763,0.07997840646337681
0.43381215469613266,0.06885702639021227
0.467182320441989,0.06582215061762395
0.5005524861878453,0.06733068068955814
0.5339226519337017,0.06771941224537077
0.5672928176795581,0.06139296450986816
0.6006629834254145,0.04519970641645296
0.6340331491712707,0.019951166951954025
0.6674033149171271,-0.009631349373870718
0.7007734806629835,-0.03656962672254789
0.7341436464088398,-0.054190401517755615
0.7675138121546962,-0.05851560667815604
0.8008839779005525,-0.04952366146666336
0.8342541436464089,-0.03087798653419824
0.8676243093922653,-0.008399862648832655
0.9009944751381216,0.011973858024465881
0.934364640883978,0.025951986479381448
0.9677348066298344,0.03186931688646788
1.0011049723756906,0.03080068896199106
1.0344751381215471,0.0260115999462054
1.0678453038674034,0.022002993288865902
1.1012154696132597,0.02330088974164741
1.1345856353591162,0.033049526254183746
1.1679558011049724,0.051540301879773744
1.201325966850829,0.07505806118148156
1.2346961325966852,0.09568483165784408
1.2680662983425415,0.10270291582972689
1.301436464088398,0.08578738390609794
1.3348066298342542,0.03932347039403214
1.3681767955801105,-0.03370878684696396
1.401546961325967,-0.12022917860405688
1.4349171270718233,-0.1993431707638886
1.4682872928176796,-0.2483854577423404
1.501657458563536,-0.25088277088611644
1.5350276243093923,-0.20332080433567984
1.5683977900552488,-0.11763331070961305
1.601767955801105,-0.017886395076019662
1.6351381215469614,0.06787266842279416
1.6685082872928179,0.11737240332741093
1.7018784530386741,0.1214139998243763
1.7352486187845306,0.08574324485570761
1.768618784530387,0.0270537944636405
1.8019889502762432,-0.034676492233121255
1.8353591160220997,-0.0838860490113901
1.868729281767956,-0.11395791104852074
1.9020994475138122,-0.12724882600895843
1.9354696132596687,-0.13151852112983253
1.968839779005525,-0.13507072475592125
2.0022099447513813,-0.1429605159572442
2.0355801104972375,-0.15556327526966382
2.0689502762430942,-0.16942891697079643
2.1023204419889505,-0.1794149223767638
2.135690607734807,-0.1809047828513103
2.169060773480663,-0.1712916450874348
2.2024309392265193,-0.15044513293056222
2.235801104972376,-0.12028450809411076
2.2691712707182323,-0.08378055747990451
2.3025414364640886,-0.04377820641187694
2.335911602209945,-0.0020464182456977503
2.369281767955801,0.04108988041647488
2.402651933701658,0.08636096809171183
2.436022099447514,0.13454914298931908
2.4693922651933704,0.1853570088856974
2.5027624309392267,0.2368012821075949
2.536132596685083,0.2856127096692771
2.5695027624309392,0.3286111020488071
2.602872928176796,0.3644001584055131
2.636243093922652,0.39435105803565434
2.6696132596685085,0.4220186417912375
2.7029834254143648,0.4508969402293523
2.736353591160221,0.4814537451614436
2.7697237569060777,0.5091176936522767
2.803093922651934,0.524790633653594
2.8364640883977903,0.5183578921536635
2.8698342541436466,0.4839691391124939
2.903204419889503,0.42442731287438173
2.936574585635359,0.3517824600880294
2.969944751381216,0.28264815571662794
3.003314917127072,0.2294593341142804
3.0366850828729284,0.19164528324727237
3.0700552486187846,0.15190615618319778
3.103425414364641,0.0813071124054399
3.1367955801104976,-0.04717444290202725
3.170165745856354,-0.24207279573858384
3.20353591160221,-0.48262950966482604
3.2369060773480665,-0.7217978930301163
3.2702762430939227,-0.90543170150436
3.3036464088397794,-1.0013321104304496
3.3370165745856357,-1.024227530286344
3.370386740331492,-1.0409417863042532
3.4037569060773483,-1.1466400163465946
3.4371270718232045,-1.4166913635143779
3.4704972375690613,-1.853500483260417
3.5038674033149175,-2.355573075763552
3.537237569060774,-2.730946731271227
3.57060773480663,-2.7587889311690668
3.6039779005524863,-2.2788128414115305
3.6373480662983426,-1.2704250796785583
3.6707182320441993,0.11695263090824838
3.7040883977900556,1.6014354258819328
3.737458563535912,2.8620232851997764
3.770828729281768,3.648781302756595
3.8041988950276244,3.8627206161100447
3.837569060773481,3.573192162196246
3.8709392265193374,2.970345722615774
3.9043093922651937,2.2789662131092467
3.93767955801105,1.6738401443442743
3.9710497237569062,1.2308337211168192
4.0044198895027625,0.9274814039749971
4.037790055248619,0.6835094069283778
4.071160220994475,0.41632897247492096
4.104530386740332,0.08465060809235653
4.1379005524861885,-0.29647168641963134
4.171270718232044,-0.6702101801756137
4.204640883977901,-0.9699047491317025
4.238011049723757,-1.1506681932312786
4.271381215469614,-1.2063585980068234
4.30475138121547,-1.1668169369075734
4.338121546961326,-1.0800858391264383
4.371491712707183,-0.9902175996319086
4.404861878453039,-0.9212843165892343
4.438232044198895,-0.8734024129174357
4.471602209944752,-0.8300689857337324
4.504972375690608,-0.7711822916316768
4.538342541436465,-0.6847231979288064
4.5717127071823205,-0.5721410937325911
4.605082872928177,-0.4463643665606537
4.638453038674034,-0.3248908403289819
4.67182320441989,-0.2220649947650384
4.7051933701657465,-0.1440826049466081
4.738563535911602,-0.08825410868286
4.771933701657459,-0.04586889543531211
4.805303867403316,-0.006663035500770157
4.8386740331491715,0.03723345605844227
4.872044198895028,0.08919475863049398
4.905414364640884,0.14805753545446593
4.938784530386741,0.20949964844841082
4.972154696132597,0.2678897113977587
5.005524861878453,0.3178586916114437
5.03889502762431,0.35529547377967774
5.072265193370166,0.3778533374991542
5.105635359116023,0.3851769562184797
5.1390055248618784,0.37893379670482674
5.172375690607735,0.3625431093193601
5.205745856353592,0.3404477068624135
5.239116022099448,0.3169502573604136
5.272486187845304,0.29493606300263264
5.30585635359116,0.27501241561968426
5.339226519337017,0.25552450683177175
5.372596685082874,0.2335358753082206
5.4059668508287295,0.2063648985451951
5.439337016574586,0.1729379073805885
5.472707182320442,0.13428114540109048
5.506077348066299,0.09293250860714428
5.5394475138121555,0.05166063560815551
5.572817679558011,0.012269211600817141
5.606187845303868,-0.02480998046916526
5.639558011049724,-0.059934413816217946
5.672928176795581,-0.09310316775973447
5.706298342541437,-0.12303394099735927
5.739668508287293,-0.14713650886277335
5.77303867403315,-0.16252175275940142
5.806408839779006,-0.1675483711165297
5.839779005524862,-0.16303631364609825
5.873149171270718,-0.1523856692621803
5.906519337016575,-0.14038393436144725
5.939889502762432,-0.13117896632437975
5.9732596685082875,-0.12637510676530844
6.006629834254144,-0.12422169601449773
6.04,-0.12038620326034555
6.073370165745857,-0.1100578800063077
6.1067403314917135,-0.0904680921277029
6.140110497237569,-0.06266617139560265
6.173480662983426,-0.03168828529973382
6.206850828729282,-0.004966155151199244
6.240220994475139,0.01039629130354331
6.273591160220995,0.010359591471991805
6.306961325966851,-0.004416879417705224
6.340331491712708,-0.028694339124835985
6.373701657458564,-0.05447081612349682
6.40707182320442,-0.07376947098826757
6.440441988950277,-0.08129914275876408
6.473812154696133,-0.07595397116565064
6.50718232044199,-0.060620469910944205
6.5405524861878455,-0.040500153776709
6.573922651933702,-0.02079414662274409
6.607292817679559,-0.0048102725889002836
6.640662983425415,0.0067651555187421735
6.674033149171271,0.01534618947339536
6.707403314917127,0.023204915133363525
6.740773480662984,0.032269877082536515
6.774143646408841,0.04350228021601277
6.8075138121546965,0.05691093228949968
6.840883977900553,0.07187776150288837
6.874254143646409,0.08739854293903561
6.907624309392266,0.10208318448950857
6.9409944751381225,0.11407894703126839
6.974364640883978,0.12121965655757029
7.007734806629835,0.12156031740573976
7.041104972375691,0.11414272872044325
7.074475138121548,0.09959310196301618
7.107845303867403,0.0801684716658777
7.14121546961326,0.05914960060184571
7.174585635359117,0.039838037947113936
7.207955801104973,0.02461395352905757
7.241325966850829,0.014430847325362279
7.274696132596685,0.008843924916828136
7.308066298342542,0.006395847917634529
7.341436464088399,0.005088148811616643
7.3748066298342545,0.002771095498264771
7.408176795580111,-0.0025332842456870248
7.441546961325967,-0.01226213315867205
7.474917127071824,-0.02684805297928012
7.5082872928176805,-0.045284442051988005
7.541657458563536,-0.06498322121151655
7.575027624309393,-0.08217120625290668
7.608397790055249,-0.09287357651331384
7.641767955801106,-0.09424250685626355
7.675138121546962,-0.0857512326706354
7.708508287292818,-0.0697152325615894
7.741878453038675,-0.05077851771520525
7.775248618784531,-0.034379731918335266
7.808618784530387,-0.024668086609922073
7.841988950276244,-0.02268665345367667
7.8753591160221,-0.025686135097898372
7.908729281767957,-0.02806997780543891
7.9420994475138125,-0.023780834875781896
7.975469613259669,-0.009205986799445795
8.008839779005525,0.014709892174931885
8.042209944751383,0.04223283672141971
8.075580110497238,0.06477523714624801
8.108950276243094,0.07426859668121
8.14232044198895,0.06652234348477756
8.175690607734808,0.04307429903878663
8.209060773480664,0.010708813949159625
8.24243093922652,-0.021125909443108402
8.275801104972377,-0.043845491715840186
8.309171270718233,-0.05268777056364046
8.342541436464089,-0.04793502356862899
8.375911602209946,-0.03407988720226193
8.409281767955802,-0.017529549957428666
8.442651933701658,-0.003992481044032132
8.476022099447514,0.0033451618299857534
8.509392265193371,0.004283103267241461
8.542762430939227,0.0008480871018433395
8.576132596685083,-0.004046072955752374
8.60950276243094,-0.007793391038949627
8.642872928176796,-0.008710488249955479
8.676243093922652,-0.006063638941019538
8.709613259668508,0.00020326991836168345
8.742983425414366,0.009719741219515611
8.776353591160222,0.021775024365719445
8.809723756906077,0.035306524945869625
8.843093922651935,0.04894645238876632
8.87646408839779,0.061215037944820375
8.909834254143647,0.07080496955734566
8.943204419889504,0.07680370765635372
8.97657458563536,0.07872205799222261
9.009944751381216,0.07632363354143437
9.043314917127072,0.06939388811489622
9.07668508287293,0.05764834265811791
9.110055248618785,0.040906808842885126
9.143425414364641,0.01948897163054611
9.176795580110499,-0.00538047136924896
9.210165745856354,-0.03142521438363307
9.24353591160221,-0.055600677200303136
9.276906077348068,-0.0747765849249451
9.310276243093924,-0.08658662066424087
9.34364640883978,-0.09011417597828032
9.377016574585635,-0.08613405439434552
9.410386740331493,-0.07680629640183756
9.443756906077349,-0.0649415895780875
9.477127071823205,-0.05312869335653101
9.510497237569062,-0.04305276640083494
9.543867403314918,-0.035218788182889926
9.577237569060774,-0.02908844816187516
9.610607734806631,-0.023463906656985976
9.643977900552487,-0.016913791463292457
9.677348066298343,-0.008141485316626328
9.710718232044199,0.0036684380354034788
9.744088397790057,0.0184656126773966
9.777458563535912,0.034981069320287835
9.810828729281768,0.050645151395918374
9.844198895027626,0.06203584853503687
9.877569060773482,0.06589678345615096
9.910939226519337,0.06040541957839889
9.944309392265193,0.046116980644096556
9.97767955801105,0.02606418111011383
10.011049723756907,0.004870152380472363
10.044419889502763,-0.012772111244232068
10.07779005524862,-0.0235796294447958
10.111160220994476,-0.026490388292769364
10.144530386740332,-0.022554396106296646
10.17790055248619,-0.014127444481674719
10.211270718232045,-0.0038816966567024815
10.244640883977901,0.00589026604708328
10.278011049723757,0.013502987551239751
10.311381215469615,0.017806814015556206
10.34475138121547,0.01814482715854295
10.378121546961326,0.014544905139034512
10.411491712707184,0.008057890417264494
10.44486187845304,0.0009043663939643991
10.478232044198895,-0.003913965411326191
10.511602209944753,-0.0036094663204521613
10.544972375690609,0.0031217379508286765
10.578342541436465,0.015170645451455292
10.61171270718232,0.02900261217790353
10.645082872928178,0.03974952265371611
10.678453038674034,0.043041870931246125
10.71182320441989,0.03679151316537633
10.745193370165747,0.022088030214476386
10.778563535911603,0.002756739810545334
10.811933701657459,-0.016232059862815555
10.845303867403315,-0.030743680871147355
10.878674033149172,-0.03890415656068002
10.912044198895028,-0.041336757394590466
10.945414364640884,-0.04022442375740707
10.978784530386742,-0.03783057790016899
11.012154696132598,-0.03534357583116242
11.045524861878453,-0.03263350323275543
11.078895027624311,-0.028912946731220378
11.112265193370167,-0.023754983738634043
11.145635359116023,-0.01776296972507577
11.179005524861878,-0.012468840789878947
11.212375690607736,-0.009544238292720334
11.245745856353592,-0.009816347036718217
11.279116022099448,-0.01266651309423731
11.312486187845305,-0.016149599026173626
11.345856353591161,-0.017778278243071162
11.379226519337017,-0.015589861104650882
11.412596685082875,-0.00900068063697421
11.44596685082873,0.0009256376917292082
11.479337016574586,0.011900437020904042
11.512707182320442,0.021338342579278705
11.5460773480663,0.027408055896168362
11.579447513812156,0.0297727833420933
11.612817679558011,0.029697924070459108
11.646187845303869,0.02944198975380009
11.679558011049725,0.031142412964275876
11.71292817679558,0.035656759542552326
11.746298342541436,0.041907664734059144
11.779668508287294,0.047129162423775836
11.81303867403315,0.048036326657453776
11.846408839779006,0.04247256768442939
11.879779005524863,0.030754065646397207
11.91314917127072,0.0159458947110905
11.946519337016575,0.0027439753516286065
11.979889502762433,-0.004658023480384782
12.013259668508288,-0.00472313004116232
12.046629834254144,0.0003981895680742961
12.08,0.005636031143009147
12.113370165745858,0.005341956135071263
12.146740331491714,-0.0038863606766356786
12.18011049723757,-0.021321122153066488
12.213480662983427,-0.04217210084673068
12.246850828729283,-0.0596482029343772
12.280220994475139,-0.06803662111804035
12.313591160220996,-0.06529277883024162
12.346961325966852,-0.05386878309006844
12.380331491712708,-0.03938418502897924
12.413701657458564,-0.02781136571765641
12.447071823204421,-0.022571372794586354
12.480441988950277,-0.022960488271462562
12.513812154696133,-0.024652985256210028
12.54718232044199,-0.021996609859540762
12.580552486187846,-0.010949078341405358
12.613922651933702,0.008776295820336543
12.64729281767956,0.03335556148163044
12.680662983425416,0.056387298019010185
12.714033149171271,0.07151630663450252
12.747403314917127,0.07490884413393262
12.780773480662985,0.06652864309356503
12.81414364640884,0.04981198725967711
12.847513812154697,0.03007179941837092
12.880883977900554,0.012425975154999722
12.91425414364641,0.00010004700440185667
12.947624309392266,-0.0063259656008070935
12.980994475138122,-0.008588193714904787
13.01436464088398,-0.009597532859269994
13.047734806629835,-0.012024209082409193
13.081104972375691,-0.017200947972882092
13.114475138121549,-0.024757568611350457
13.147845303867404,-0.0330460848468792
13.18121546961326,-0.04004319151681248
13.214585635359118,-0.044216960422948724
13.247955801104974,-0.04492892733173665
13.28132596685083,-0.04226187968990354
13.314696132596685,-0.03652436729099254
13.348066298342543,-0.027863588986138284
13.381436464088399,-0.016306005093708945
13.414806629834255,-0.002209426923665346
13.448176795580112,0.01323166083268567
13.481546961325968,0.027898460941275446
13.514917127071824,0.03932907203787634
13.548287292817681,0.04577835053248377
13.581657458563537,0.04717705968414313
13.615027624309393,0.045345632554310594
13.648397790055249,0.04316586749476173
13.681767955801106,0.04300674333745471
13.715138121546962,0.045198248412904665
13.748508287292818,0.04743796810300658
13.781878453038676,0.04560633424404671
13.815248618784532,0.03574863397831078
13.848618784530387,0.01633071611759497
13.881988950276245,-0.010353199541159215
13.9153591160221,-0.0384075050891407
13.948729281767957,-0.06023940207599573
13.982099447513813,-0.06939416698884696
14.01546961325967,-0.06312597395867477
14.048839779005526,-0.0436048518938635
14.082209944751382,-0.017242250724305776
14.11558011049724,0.007590273765178452
14.148950276243095,0.02352241497867411
14.182320441988951,0.02665530465546872
14.215690607734807,0.017614009425034837
14.249060773480664,0.0008633530526036421
14.28243093922652,-0.017327566240663245
14.315801104972376,-0.03137315074552726
14.349171270718234,-0.03828598254254538
14.38254143646409,-0.03829354101520932
14.415911602209945,-0.03403026280377155
14.449281767955803,-0.028814689951931496
14.482651933701659,-0.02490140381356401
14.516022099447515,-0.022531632489136852
14.54939226519337,-0.02013334961073151
14.582762430939228,-0.01541115259060264
14.616132596685084,-0.006663548983715948
14.64950276243094,0.006331284819942732
14.682872928176797,0.022179858327213316
14.716243093922653,0.038389132388847044
14.749613259668509,0.05218806520154196
14.782983425414367,0.06130597990670377
14.816353591160222,0.06449637307868311
14.849723756906078,0.06172625792912517
14.883093922651934,0.054018475983746206
14.916464088397792,0.04298780199792683
14.949834254143648,0.030213542103915445
14.983204419889503,0.01671285759545325
15.016574585635361,0.0028018042454678285
15.049944751381217,-0.011538173582440442
15.083314917127073,-0.02598040890788654
15.116685082872928,-0.0393055387614436
15.150055248618786,-0.049424483509778176
15.183425414364642,-0.054097393766191736
15.216795580110498,-0.05203250859649693
15.250165745856355,-0.04376417565388849
15.283535911602211,-0.0317767390719525
15.316906077348067,-0.019727315349768425
15.350276243093925,-0.011091687823330485
15.38364640883978,-0.007842615515251214
15.417016574585636,-0.009730557666328379
15.450386740331492,-0.014429692943196102
15.48375690607735,-0.018424555400432165
15.517127071823205,-0.018238886865293236
15.550497237569061,-0.011548409493628157
15.583867403314919,0.0021509992373222524
15.617237569060775,0.02143540968663701
15.65060773480663,0.04333719320606953
15.683977900552488,0.0640548857689747
15.717348066298344,0.07979673477499985
15.7507182320442,0.08757401211644057
15.784088397790056,0.08577922351265574
15.817458563535913,0.07442677122505774
15.85082872928177,0.055018979393973426
15.884198895027625,0.03011672256853874
15.917569060773483,0.0027884544120890978
15.950939226519338,-0.023875055905832242
15.984309392265194,-0.04707661380501542
16.01767955801105,-0.06448827788226827
16.051049723756908,-0.0744120743129351
16.084419889502765,-0.07604021586281846
16.11779005524862,-0.06980449651266261
16.151160220994477,-0.05763556190760424
16.18453038674033,-0.042856215027260836
16.21790055248619,-0.02950647019473215
16.251270718232046,-0.021151114089452753
16.2846408839779,-0.01954478315994909
16.318011049723758,-0.023739183216281684
16.351381215469615,-0.030150121139443334
16.38475138121547,-0.033731589570547095
16.418121546961327,-0.029885641728303707
16.451491712707185,-0.01634179846369386
16.48486187845304,0.0058012289620915465
16.518232044198896,0.03232541389315819
16.551602209944754,0.05732248570777404
16.584972375690608,0.07519947988224293
16.618342541436466,0.08246711754247595
16.651712707182323,0.07867347216595683
16.685082872928177,0.06623139689276376
16.718453038674035,0.04931617807519529
16.751823204419892,0.03231850155507473
16.785193370165747,0.01844137916530584
16.818563535911604,0.008919802056069284
16.851933701657458,0.003071289127247078
16.885303867403316,-0.0009468413446685721
16.918674033149173,-0.005066769976409556
16.952044198895027,-0.010413940753807516
16.985414364640885,-0.016949077988057067
