Frequency (Hz),Amplitude
0.0,11.572436404335305
0.01978021978021978,11.570121378546913
0.03956043956043956,11.563182648370736
0.05934065934065934,11.551639257531338
0.07912087912087912,11.5355229526826
0.0989010989010989,11.51487819379895
0.11868131868131868,11.48976216815751
0.13846153846153844,11.460244807325038
0.15824175824175823,11.426408806365652
0.17802197802197803,11.388349644265462
0.1978021978021978,11.346175604321456
0.21758241758241756,11.300007792960615
0.23736263736263735,11.249980155133914
0.2571428571428572,11.196239484065144
0.2769230769230769,11.138945422719276
0.2967032967032967,11.078270453886343
0.31648351648351647,11.014399875248552
0.3362637362637363,10.947531755209484
0.35604395604395606,10.877876864611032
0.3758241758241758,10.805658578748897
0.3956043956043956,10.731112743322436
0.4153846153846154,10.654487497128603
0.4351648351648351,10.57604304344225
0.45494505494505494,10.496051361137074
0.4747252747252747,10.414795845714634
0.4945054945054945,10.33257086955981
0.5142857142857143,10.249681249970573
0.5340659340659341,10.16644161287389
0.5538461538461538,10.083175639700945
0.5736263736263736,10.000215184732847
0.5934065934065934,9.917899250427098
0.6131868131868132,9.836572808892903
0.6329670329670329,9.756585458898577
0.6527472527472528,9.678289909667784
0.6725274725274726,9.602040285343577
0.6923076923076923,9.528190247444336
0.7120879120879121,9.457090936947898
0.7318681318681318,9.389088742821475
0.7516483516483516,9.32452290981133
0.7714285714285715,9.26372300499751
0.7912087912087912,9.207006269804685
0.810989010989011,9.154674891562275
0.8307692307692308,9.107013235964832
0.8505494505494506,9.064285088472833
0.8703296703296702,9.026730958344098
0.8901098901098901,8.994565503115352
0.9098901098901099,8.96797513350999
0.9296703296703297,8.947115858555255
0.9494505494505494,8.932111427894275
0.9692307692307692,8.923051822786046
0.989010989010989,8.919992139194322
1.0087912087912088,8.922951895976977
1.0285714285714287,8.931914788984939
1.0483516483516484,8.946828898509986
1.0681318681318681,8.967607343728632
1.087912087912088,8.994129364359441
1.1076923076923075,9.026241797435313
1.1274725274725275,9.063760906543822
1.1472527472527472,9.106474512607218
1.1670329670329669,9.15414436957449
1.1868131868131868,9.206508725392728
1.2065934065934065,9.263285008236965
1.2263736263736265,9.324172579961967
1.2461538461538462,9.388855502728779
1.2659340659340659,9.457005270303792
1.2857142857142858,9.52828346214902
1.3054945054945055,9.60234428564675
1.3252747252747252,9.678836979200607
1.3450549450549452,9.75740805616363
1.3648351648351649,9.837703376276213
1.3846153846153846,9.919370037348243
1.4043956043956045,10.002058085163059
1.4241758241758242,10.085422043958157
1.443956043956044,10.169122273346808
1.4637362637362636,10.252826160227178
1.4835164835164834,10.336209156153432
1.5032967032967033,10.41895567190633
1.523076923076923,10.500759841698606
1.542857142857143,10.581326169682995
1.5626373626373626,10.660370071294471
1.5824175824175823,10.737618321540255
1.6021978021978023,10.812809421729074
1.621978021978022,10.885693895371192
1.6417582417582417,10.956034523137305
1.6615384615384616,11.023606525881203
1.6813186813186813,11.088197703843367
1.7010989010989013,11.14960853928446
1.720879120879121,11.20765226896905
1.7406593406593405,11.262154932141954
1.7604395604395604,11.31295539892042
1.7802197802197801,11.35990538336879
1.7999999999999998,11.402869444928651
1.8197802197802198,11.441724981345585
1.8395604395604395,11.476362215760577
1.8593406593406594,11.506684180215652
1.879120879120879,11.532606697454781
1.8989010989010988,11.554058362577216
1.9186813186813187,11.570980525815813
1.9384615384615385,11.583327277462306
1.9582417582417584,11.59106543573905
1.978021978021978,11.594174538217842
1.9978021978021978,11.592646837204875
2.0175824175824175,11.58648729934254
2.0373626373626372,11.575713609517974
2.0571428571428574,11.560356179010308
2.076923076923077,11.540458157648265
2.096703296703297,11.516075449582717
2.1164835164835165,11.487276732099172
2.1362637362637362,11.454143476698636
2.1560439560439564,11.416769971456025
2.175824175824176,11.375263343418537
2.195604395604396,11.329743579526118
2.215384615384615,11.28034354421748
2.2351648351648348,11.227208991522147
2.254945054945055,11.170498569026785
2.2747252747252746,11.11038381063773
2.2945054945054943,11.047049114536689
2.314285714285714,10.980691702140245
2.3340659340659338,10.911521553223968
2.353846153846154,10.839761311659487
2.3736263736263736,10.765646155440573
2.3934065934065933,10.689423623849112
2.413186813186813,10.611353393745933
2.4329670329670328,10.531706996081525
2.452747252747253,10.450767462832784
2.4725274725274726,10.368828893716978
2.4923076923076923,10.286195931255284
2.512087912087912,10.20318313210929
2.5318681318681318,10.120114222158644
2.5516483516483515,10.037321222602689
2.5714285714285716,9.955143434540211
2.5912087912087913,9.87392627010366
2.610989010989011,9.794019919398034
2.6307692307692307,9.715777844320415
2.6505494505494505,9.639555092904814
2.6703296703296706,9.565706431225562
2.6901098901098903,9.494584294146064
2.70989010989011,9.426536561325305
2.7296703296703297,9.361904170841395
2.7494505494505495,9.301018589444542
2.769230769230769,9.244199165618108
2.7890109890109893,9.191750399030669
2.808791208791209,9.14395916725253
2.8285714285714287,9.101091957363735
2.8483516483516484,9.06339215583094
2.8681318681318677,9.03107745429583
2.887912087912088,9.00433743124015
2.9076923076923076,8.983331369491244
2.9274725274725273,8.968186366938964
2.947252747252747,8.958995792546698
2.9670329670329667,8.955818131838479
2.986813186813187,8.958676255813932
3.0065934065934066,8.967557135157673
3.0263736263736263,8.982412008300733
3.046153846153846,9.003156998101268
3.0659340659340657,9.02967415842052
3.085714285714286,9.061812919436301
3.1054945054945056,9.099391889821154
3.1252747252747253,9.142200965431048
3.145054945054945,9.19000368823018
3.1648351648351647,9.242539795950478
3.184615384615385,9.299527902383524
3.2043956043956046,9.36066825000095
3.2241758241758243,9.425645480433053
3.243956043956044,9.494131373765242
3.2637362637362637,9.565787514156254
3.2835164835164834,9.640267846469403
3.3032967032967036,9.717221096002977
3.3230769230769233,9.79629303064053
3.342857142857143,9.877128551521237
3.3626373626373627,9.959373604444627
3.3824175824175824,10.042676909540026
3.4021978021978025,10.126691511183596
3.4219780219780223,10.211076153730591
3.441758241758242,10.295496491383847
3.4615384615384617,10.379626142511853
3.481318681318681,10.463147600049707
3.501098901098901,10.545753010362265
3.520879120879121,10.62714483322124
3.5406593406593405,10.70703639544296
3.5604395604395602,10.785152350340294
3.58021978021978,10.861229054537421
3.5999999999999996,10.935014872948411
3.61978021978022,11.006270421884388
3.6395604395604395,11.074768759374885
3.659340659340659,11.140295530901374
3.679120879120879,11.202649077871651
3.6989010989010986,11.261640515331573
3.718681318681319,11.317093784628618
3.7384615384615385,11.36884568601713
3.758241758241758,11.41674589553368
3.7780219780219784,11.460656969871023
3.7978021978021976,11.50045434244223
3.8175824175824173,11.536026313348247
3.8373626373626375,11.56727403553804
3.8571428571428568,11.59411149907806
3.876923076923077,11.616465515119044
3.896703296703296,11.634275700859904
3.916483516483517,11.647494466554681
3.936263736263736,11.656087005382576
3.956043956043956,11.660031286800148
3.9758241758241755,11.659318053810432
3.9956043956043956,11.653950824414174
4.015384615384615,11.643945897345507
4.035164835164835,11.629332362035559
4.054945054945055,11.610152112586492
4.0747252747252745,11.586459865370754
4.094505494505494,11.558323179690417
4.114285714285715,11.525822480735105
4.134065934065934,11.48905108385846
4.153846153846154,11.448115218946109
4.173626373626373,11.403134053369786
4.193406593406594,11.354239711703883
4.213186813186813,11.30157729001959
4.232967032967033,11.245304862161067
4.252747252747253,11.185593474943504
4.2725274725274724,11.12262712868986
4.292307692307692,11.056602738938846
4.312087912087913,10.987730074508482
4.331868131868132,10.916231666389276
4.351648351648352,10.84234268116937
4.371428571428571,10.76631075187024
4.391208791208792,10.68839575820484
4.410989010989011,10.608869547378577
4.43076923076923,10.528015585661585
4.450549450549451,10.446128530099639
4.4703296703296695,10.363513708944055
4.49010989010989,10.280486498719581
4.50989010989011,10.19737158537744
4.52967032967033,10.114502096774501
4.549450549450549,10.032218593863162
4.569230769230769,9.95086790856631
4.589010989010989,9.870801817446475
4.608791208791209,9.79237554205865
4.628571428571428,9.715946069395471
4.648351648351649,9.641870289168192
4.6681318681318675,9.570502948866034
4.687912087912088,9.50219443260979
4.707692307692308,9.437288375716527
4.7274725274725276,9.376119133511963
4.747252747252747,9.319009130076456
4.767032967032967,9.266266120022753
4.786813186813187,9.21818040373023
4.806593406593407,9.17502204328461
4.826373626373626,9.137038132229279
4.846153846153847,9.104450176642015
4.8659340659340655,9.077451647549447
4.885714285714286,9.05620576489087
4.905494505494506,9.040843570865338
4.9252747252747255,9.031462345423812
4.945054945054945,9.028124408966791
4.964835164835165,9.030856347246354
4.984615384615385,9.039648681506067
5.004395604395604,9.054455993645968
5.024175824175824,9.0751975024036
5.043956043956045,9.101758072979225
5.0637362637362635,9.13398962996312
5.083516483516483,9.171712932519577
5.103296703296703,9.214719662072051
5.123076923076923,9.262774766565453
5.142857142857143,9.31561900190009
5.162637362637362,9.372971610291959
5.182417582417583,9.434533076898001
5.2021978021978015,9.49998790970468
5.221978021978022,9.569007392975582
5.241758241758242,9.641252271013458
5.2615384615384615,9.716375326138365
5.281318681318681,9.794023822177865
5.301098901098901,9.87384179203267
5.320879120879121,9.95547215471926
5.340659340659341,10.038558653482596
5.36043956043956,10.122747611975758
5.380219780219781,10.207689510048528
5.3999999999999995,10.293040384363218
5.41978021978022,10.37846306189571
5.43956043956044,10.463628236451436
5.4593406593406595,10.548215399714657
5.479120879120879,10.631913639154417
5.498901098901099,10.714422315431785
5.518681318681319,10.795451631886293
5.538461538461538,10.874723108315651
5.558241758241758,10.951969970679295
5.578021978021979,11.026937467623409
5.5978021978021975,11.099383123896931
5.617582417582418,11.169076939853188
5.637362637362637,11.235801545344405
5.6571428571428575,11.299352315444327
5.676923076923077,11.359537454597682
5.696703296703297,11.416178055006807
5.716483516483517,11.469108134334958
5.736263736263735,11.518174657136221
5.756043956043956,11.563237543815303
5.775824175824176,11.60416967037578
5.795604395604395,11.640856861729834
5.815384615384615,11.673197880912316
5.835164835164835,11.701104416162464
5.854945054945055,11.724501067502798
5.874725274725275,11.743325334151155
5.894505494505494,11.757527603842888
5.914285714285715,11.767071144911089
5.934065934065933,11.771932101767076
5.953846153846154,11.772099494236976
5.973626373626374,11.76757522103696
5.993406593406593,11.758374067505505
6.013186813186813,11.744523717549683
6.032967032967033,11.726064769600313
6.052747252747253,11.703050756201865
6.072527472527473,11.675548166682228
6.092307692307692,11.643636472150876
6.112087912087913,11.607408151854376
6.131868131868131,11.566968719672529
6.151648351648352,11.522436749258812
6.171428571428572,11.473943896012367
6.191208791208791,11.421634913707278
6.210989010989011,11.365667663195675
6.230769230769231,11.306213110137046
6.2505494505494505,11.243455308184622
6.270329670329671,11.177591363475637
6.29010989010989,11.108831375626005
6.309890109890111,11.037398349718622
6.329670329670329,10.963528073004174
6.349450549450549,10.887468949208008
6.36923076923077,10.809481782468135
6.3890109890109885,10.72983950203504
6.408791208791209,10.648826817966253
6.428571428571428,10.566739797180427
6.4483516483516485,10.483885348437648
6.468131868131868,10.400580604136886
6.487912087912088,10.317152186331544
6.507692307692308,10.233935344133144
6.527472527472527,10.151272949788464
6.547252747252747,10.06951434126935
6.567032967032967,9.989014000308197
6.5868131868131865,9.910130056545741
6.606593406593407,9.833222610925876
6.626373626373626,9.758651874752399
6.6461538461538465,9.686776124968508
6.665934065934065,9.617949481242169
6.685714285714286,9.552519516299983
6.705494505494506,9.490824717543777
6.725274725274725,9.43319182512653
6.745054945054945,9.379933079095252
6.764835164835165,9.33134341558773
6.7846153846153845,9.287697658983296
6.804395604395605,9.249247762894699
6.824175824175824,9.216220157463809
6.8439560439560445,9.188813263126503
6.863736263736263,9.167195231439925
6.883516483516484,9.15150197143152
6.903296703296704,9.141835515096313
6.923076923076923,9.138262768188337
6.942857142857143,9.14081468256908
6.962637362637362,9.149485874535285
6.9824175824175825,9.164234700354827
7.002197802197802,9.184983786420547
7.021978021978022,9.211620997766037
7.041758241758242,9.244000815943409
7.061538461538461,9.281946086123499
7.081318681318681,9.32525008429125
7.101098901098901,9.37367884893892
7.1208791208791204,9.426973717875212
7.140659340659341,9.484854009643634
7.16043956043956,9.547019790377297
7.1802197802197805,9.613154670372595
7.199999999999999,9.682928579813119
7.21978021978022,9.75600047944016
7.23956043956044,9.832020969073461
7.259340659340659,9.910634764288634
7.279120879120879,9.991483018873499
7.298901098901099,10.074205477603543
7.318681318681318,10.158442450169321
7.338461538461539,10.243836602605073
7.358241758241758,10.330034567231285
7.3780219780219785,10.41668837591516
7.397802197802197,10.503456724402115
7.417582417582418,10.590006077640922
7.437362637362638,10.676011627500037
7.457142857142857,10.761158115150836
7.476923076923077,10.845140530773476
7.496703296703297,10.9276647032221
7.516483516483516,11.008447791957135
7.536263736263736,11.087218692994547
7.556043956043957,11.163718369905265
7.575824175824176,11.237700120079568
7.595604395604395,11.308929785599672
7.615384615384615,11.377185917175435
7.635164835164835,11.442259898721938
7.654945054945055,11.50395603931385
7.674725274725275,11.562091638455158
7.694505494505494,11.616497029862025
7.7142857142857135,11.667015608277234
7.734065934065935,11.7135038432178
7.753846153846154,11.755831283002802
7.7736263736263735,11.793880551913292
7.793406593406592,11.827547342897313
7.813186813186814,11.856740407844972
7.832967032967034,11.881381547117345
7.852747252747252,11.901405599712485
7.872527472527472,11.916760435186836
7.892307692307693,11.927406948215635
7.912087912087912,11.933319056465743
7.931868131868132,11.934483702263362
7.951648351648351,11.930900858362959
7.971428571428572,11.922583537955735
7.991208791208791,11.909557808892764
8.010989010989011,11.891862811933379
8.03076923076923,11.869550782658703
8.05054945054945,11.84268707650854
8.07032967032967,11.811350196202
8.09010989010989,11.775631820582266
8.10989010989011,11.73563683367952
8.129670329670331,11.691483352507053
8.149450549450549,11.643302751788209
8.169230769230769,11.591239683451427
8.189010989010988,11.535452088321044
8.20879120879121,11.476111196968123
8.22857142857143,11.413401516163722
8.248351648351647,11.34752079679347
8.268131868131867,11.278679978444858
8.287912087912087,11.207103105167029
8.307692307692308,11.133027206130157
8.327472527472528,11.056702134083178
8.347252747252746,10.978390353635767
8.367032967032966,10.898366670489404
8.386813186813187,10.81691789183552
8.406593406593407,10.734342407258426
8.426373626373627,10.650949678666763
8.446153846153845,10.567059627081125
8.465934065934066,10.48300190358969
8.485714285714286,10.39911503152217
8.505494505494505,10.315745406969654
8.525274725274725,10.233246145288394
8.545054945054945,10.151975762269522
8.564835164835165,10.072296680335088
8.584615384615384,9.994573552529806
8.604395604395604,9.919171400298701
8.624175824175826,9.846453565128249
8.643956043956043,9.776779479100798
8.663736263736263,9.71050226523385
8.683516483516483,9.64796618504923
8.703296703296704,9.589503957968443
8.723076923076924,9.535433984605193
8.742857142857142,9.486057513488717
8.762637362637362,9.441655797794528
8.782417582417583,9.40248729482199
8.802197802197803,9.36878496575554
8.821978021978023,9.340753736207764
8.84175824175824,9.318568178756951
8.86153846153846,9.30237047685296
8.881318681318682,9.292268724919145
8.901098901098901,9.28833561224928
8.920879120879121,9.290607528614624
8.940659340659339,9.2990841177786
8.96043956043956,9.313728291957345
8.98021978021978,9.334466706382425
9.0,9.361190679296909
9.01978021978022,9.393757529724645
9.03956043956044,9.431992293896514
9.05934065934066,9.47568977186379
9.079120879120879,9.524616848971146
9.098901098901099,9.57851503269509
9.11868131868132,9.637103143873938
9.138461538461538,9.70008010238399
9.158241758241758,9.767127750529813
9.178021978021977,9.837913662392323
9.197802197802199,9.912093893645189
9.217582417582419,9.98931563342466
9.237362637362637,10.06921972727032
9.257142857142856,10.151443047547899
9.276923076923078,10.235620694798516
9.296703296703297,10.321388019891018
9.316483516483517,10.408382462524214
9.336263736263735,10.496245206444952
9.356043956043957,10.584622655691815
9.375824175824176,10.673167739263862
9.395604395604396,10.761541053909989
9.415384615384616,10.849411856318962
9.435164835164835,10.936458916959436
9.454945054945055,11.022371248273725
9.474725274725275,11.106848719967132
9.494505494505495,11.189602573848164
9.514285714285714,11.270355850146737
9.534065934065934,11.34884373653851
9.553846153846154,11.42481385029518
9.573626373626373,11.498026463110056
9.593406593406593,11.568254677256995
9.613186813186815,11.635284560856219
9.632967032967032,11.69891524916679
9.652747252747252,11.758959018015737
9.672527472527472,11.815241334720213
9.692307692307693,11.867600891165024
9.712087912087913,11.915889623067706
9.731868131868131,11.959972718894669
9.75164835164835,11.999728621384442
9.771428571428572,12.03504902418274
9.791208791208792,12.065838865695584
9.810989010989012,12.092016321915013
9.83076923076923,12.113512799662848
9.850549450549451,12.130272931424818
9.87032967032967,12.142254572705784
9.89010989010989,12.149428802620395
9.90989010989011,12.151779928237762
9.92967032967033,12.14930549301729
9.94945054945055,12.142016289502163
9.96923076923077,12.129936376269915
9.989010989010989,12.11310309897283
10.008791208791209,12.091567115128314
10.028571428571428,12.065392422136284
10.048351648351648,12.034656387801489
10.068131868131868,11.999449782418452
10.08791208791209,11.959876811229668
10.107692307692307,11.916055145788592
10.127472527472527,11.86811595244165
10.147252747252747,11.816203915783252
10.167032967032966,11.760477254527952
10.186813186813188,11.701107726780634
10.206593406593406,11.638280621162954
10.226373626373626,11.572194729669887
10.246153846153845,11.50306229748077
10.265934065934067,11.431108944234548
10.285714285714286,11.356573550502063
10.305494505494504,11.279708102352997
10.325274725274724,11.200777486033857
10.345054945054946,11.120059223860034
10.364835164835165,11.03784314150236
10.384615384615385,10.954430955948338
10.404395604395603,10.870135772578207
10.424175824175824,10.785281479068406
10.443956043956044,10.700202023280582
10.463736263736264,10.61524056198639
10.483516483516484,10.530748467302049
10.503296703296703,10.447084178155643
10.523076923076923,10.364611885085534
10.542857142857143,10.283700038273727
10.562637362637362,10.20471967105048
10.582417582417584,10.128042534252703
10.602197802197802,10.054039040837852
10.621978021978022,9.983076025071732
10.641758241758241,9.915514326396686
10.661538461538463,9.851706214655337
10.681318681318682,9.791992680531818
10.7010989010989,9.736700622629497
10.72087912087912,9.686139970205382
