Frequency (Hz),Amplitude
0.0,3.5821009740049674
0.01993355481727575,3.580508372481251
0.0398671096345515,3.575732648421057
0.059800664451827246,3.567780045994173
0.079734219269103,3.5566609810208876
0.09966777408637874,3.542390054563828
0.11960132890365449,3.524986072536391
0.13953488372093023,3.5044720719266014
0.159468438538206,3.4808753544346334
0.17940199335548174,3.4542275285438993
0.19933554817275748,3.424564561296584
0.21926910299003324,3.391926841332939
0.23920265780730898,3.3563592550877637
0.25913621262458475,3.31791127843016
0.27906976744186046,3.2766370864956085
0.29900332225913623,3.232595685010365
0.318936877076412,3.1858510670665283
0.3388704318936877,3.1364724000961792
0.3588039867109635,3.0845342487451597
0.37873754152823924,3.030116840497071
0.39867109634551495,2.9733063822908754
0.4186046511627907,2.914195438064335
0.4385382059800665,2.8528833792054686
0.4584717607973422,2.7894769223811076
0.47840531561461797,2.724090772226006
0.49833887043189373,2.6568483900175632
0.5182724252491695,2.5878829138404815
0.5382059800664452,2.517338260970639
0.5581395348837209,2.445370449368186
0.5780730897009968,2.3721491823034873
0.5980066445182725,2.2978597481714065
0.6179401993355482,2.2227052961865508
0.637873754152824,2.1469095572141828
0.6578073089700996,2.0707200861218658
0.6777408637873754,1.9944121052571793
0.6976744186046512,1.9182930236729954
0.717607973421927,1.8427076864112764
0.7375415282392027,1.7680443611860506
0.7574750830564785,1.6947413789676402
0.7774086378737541,1.6232941856944134
0.7973421926910299,1.554262302670807
0.8172757475083057,1.4882752980600562
0.8372093023255814,1.4260363167491303
0.8571428571428572,1.368321017620234
0.877076411960133,1.3159690385669338
0.8970099667774087,1.2698646312504454
0.9169435215946844,1.2309033781189915
0.9368770764119602,1.1999435675995282
0.9568106312292359,1.1777443209893874
0.9767441860465116,1.164897607963016
0.9966777408637875,1.1617661925899676
1.0166112956810631,1.1684415802244619
1.036544850498339,1.1847329432735667
1.0564784053156147,1.2101900937304202
1.0764119601328903,1.2441542125565557
1.0963455149501662,1.2858236123691855
1.1162790697674418,1.3343206828774317
1.1362126245847177,1.388749555342181
1.1561461794019936,1.448239254753414
1.176079734219269,1.5119717205248435
1.196013289036545,1.5791969121539169
1.2159468438538206,1.6492383083403108
1.2358803986710964,1.7214920407249827
1.255813953488372,1.7954222902222354
1.275747508305648,1.8705548345299643
1.2956810631229239,1.9464699820864957
1.3156146179401993,2.0227956311186692
1.3355481727574752,2.099200849640376
1.3554817275747508,2.1753901525802797
1.3754152823920267,2.251098520749019
1.3953488372093024,2.32608713361951
1.4152823920265782,2.400139752080987
1.435215946843854,2.4730596735329473
1.4551495016611296,2.5446671802659515
1.4750830564784054,2.6147974070624724
1.495016611295681,2.6832985617962386
1.514950166112957,2.750030441500835
1.5348837209302328,2.814863194844709
1.5548172757475083,2.877676289673403
1.5747508305647842,2.93835765106172
1.5946843853820598,2.996802941132713
1.6146179401993357,3.0529149568080327
1.6345514950166113,3.1066031257542686
1.6544850498338872,3.1577830841932983
1.6744186046511629,3.2063763230575235
1.6943521594684385,3.2523098912910844
1.7142857142857144,3.2955161470094594
1.73421926910299,3.335932548805661
1.754152823920266,3.3735014807907313
1.7740863787375416,3.4081701060303806
1.7940199335548175,3.4398902439297525
1.8139534883720931,3.4686182678577273
1.8338870431893688,3.4943150199193016
1.8538205980066447,3.51694574030199
1.8737541528239203,3.536480009057757
1.893687707641196,3.5528916985526693
1.9136212624584719,3.566158935132485
1.9335548172757475,3.5762640688268403
1.9534883720930232,3.583193650154037
1.9734219269102993,3.5869384133012905
1.993355481727575,3.5874932651485203
2.0132890365448506,3.5848572797809135
2.0332225913621262,3.579033698304187
2.0531561461794023,3.5700299339393027
2.073089700996678,3.5578575825359438
2.0930232558139537,3.5425324388104733
2.1129568106312293,3.5240745187887934
2.132890365448505,3.5025080891225624
2.1528239202657806,3.477861704154521
2.1727574750830567,3.4501682518401173
2.1926910299003324,3.4194650098966983
2.212624584717608,3.3857937138558354
2.2325581395348837,3.349200639049229
2.25249169435216,3.3097366989751467
2.2724252491694354,3.267457562987418
2.292358803986711,3.222423796836622
2.312292358803987,3.1747010302989667
2.332225913621263,3.1243601569755493
2.352159468438538,3.071477572367497
2.3720930232558137,3.0161354575694657
2.39202657807309,2.9584221174237664
2.4119601328903655,2.8984323837968504
2.431893687707641,2.8362680968502603
2.4518272425249172,2.7720386798602608
2.471760797342193,2.7058618263900356
2.4916943521594686,2.637864322542695
2.511627906976744,2.568183031734412
2.5315614617940203,2.4969660750343805
2.551495016611296,2.424374246701552
2.5714285714285716,2.3505827121203082
2.5913621262458477,2.2757830437668742
2.611295681063123,2.200185659729605
2.6312292358803986,2.124022737785284
2.6511627906976742,2.0475516844152253
2.6710963455149503,1.9710592394000341
2.691029900332226,1.8948662875797162
2.7109634551495017,1.8193334215152277
2.7308970099667778,1.7448672387992945
2.7508305647840534,1.6719272457179177
2.770764119601329,1.6010330471125207
2.7906976744186047,1.5327711960423922
2.810631229235881,1.4678006215962889
2.8305647840531565,1.4068549332995293
2.850498338870432,1.3507391585490651
2.870431893687708,1.300317770078196
2.8903654485049834,1.2564905642494157
2.910299003322259,1.220153637662002
2.9302325581395348,1.1921450283223567
2.950166112956811,1.1731788109565444
2.9700996677740865,1.1637767928182026
2.990033222591362,1.164211263057701
3.0099667774086383,1.174472638422128
3.029900332225914,1.1942707406011162
3.0498338870431896,1.223069340584472
3.0697674418604657,1.2601446804641936
3.089700996677741,1.3046539779916961
3.1096345514950166,1.3557006851382345
3.129568106312292,1.4123877545677157
3.1495016611295683,1.473855495600953
3.169435215946844,1.5393046898226794
3.1893687707641196,1.6080078146470846
3.2093023255813957,1.6793118134364953
3.2292358803986714,1.7526355078970495
3.249169435215947,1.8274640373601194
3.2691029900332227,1.9033419739000947
3.289036544850499,1.979866154876454
3.3089700996677744,2.056678831722381
3.32890365448505,2.1334614375762877
3.3488372093023258,2.209929091676379
3.3687707641196014,2.2858258511483984
3.388704318936877,2.360920663796855
3.4086378737541527,2.4350039494096296
3.428571428571429,2.507884728999731
3.4485049833887045,2.579388223147379
3.46843853820598,2.6493538471888494
3.4883720930232562,2.7176335395211653
3.508305647840532,2.784090368143902
3.5282392026578075,2.848597368913301
3.548172757475083,2.9110365764670436
3.5681063122923593,2.9712982152731846
3.588039867109635,3.0292800237832624
3.60797342192691,3.0848866893097457
3.6279069767441863,3.1380293751113175
3.647840531561462,3.188625324368151
3.6677740863787376,3.2365975283692174
3.6877076411960132,3.281874448408369
3.7076411960132893,3.3243897826776054
3.727574750830565,3.3640822709214317
3.7475083056478407,3.400895530834649
3.7674418604651168,3.4347779211925866
3.787375415282392,3.4656824275380487
3.807308970099668,3.493566566943713
3.8272425249169437,3.5183923089491382
3.8471760797342194,3.5401260102588177
3.867109634551495,3.55873836119921
3.887043189368771,3.5742043422830068
3.9069767441860463,3.586503189529741
3.9269102990033224,3.595618367452717
3.9468438538205985,3.601537548852109
3.9667774086378738,3.604252600759349
3.98671096345515,3.6037595760648493
4.0066445182724255,3.600058710535269
4.026578073089701,3.593154425092815
4.046511627906977,3.5830553333912736
4.0664451827242525,3.5697742548877844
4.086378737541528,3.553328233778145
4.106312292358805,3.533738564342939
4.1262458471760795,3.5110308234470153
4.146179401993356,3.485234911150165
4.166112956810632,3.456385100630632
4.186046511627907,3.4245200989013993
4.205980066445183,3.389683120122184
4.225913621262459,3.351921973687026
4.245847176079734,3.3112891697134588
4.26578073089701,3.2678420450877605
4.2857142857142865,3.2216429138527314
4.305647840531561,3.172759246483113
4.325581395348838,3.1212638835067135
4.345514950166113,3.0672352900336173
4.365448504983389,3.010757859093238
4.385382059800665,2.9519222733021633
4.40531561461794,2.8908259363586404
4.425249169435216,2.8275734882570913
4.445182724252492,2.762277421028063
4.465116279069767,2.695058815338931
4.485049833887043,2.626048222551577
4.50498338870432,2.555386721945234
4.524916943521594,2.483227188885064
4.544850498338871,2.409735816822004
4.5647840531561465,2.33509394413231
4.584717607973422,2.259500245753796
4.604651162790698,2.1831733588321742
4.624584717607974,2.1063550200568484
4.644518272425249,2.0293137979654112
4.664451827242526,1.952349502538444
4.6843853820598005,1.8757983406419076
4.704318936877076,1.8000388491514925
4.724252491694353,1.7254985621393224
4.7441860465116275,1.6526612311326003
4.764119601328904,1.5820741866699342
4.78405315614618,1.5143550677371602
4.803986710963455,1.450196620008944
4.823920265780731,1.3903675709669108
4.8438538205980075,1.3357068062484223
4.863787375415282,1.2871074270654084
4.883720930232559,1.2454872178945111
4.9036544850498345,1.2117432581907015
4.92358803986711,1.1866914889644102
4.943521594684386,1.170996991730785
4.963455149501661,1.1651062458748236
4.983388704318937,1.1691960069231033
5.003322259136213,1.183151890025388
5.023255813953488,1.2065826028578384
5.043189368770764,1.238865826710365
5.063122923588041,1.2792137081470059
5.083056478405315,1.3267431775290666
5.102990033222592,1.3805388736768718
5.122923588039868,1.4397017744375078
5.142857142857143,1.5033818451947938
5.162790697674419,1.57079650465126
5.182724252491695,1.6412382512234638
5.20265780730897,1.7140749411190386
5.222591362126246,1.7887456424434547
5.242524916943522,1.8647542110474216
5.262458471760797,1.9416620140232823
5.282392026578074,2.019080666694643
5.3023255813953485,2.096665256762065
5.322259136212625,2.174108275286256
5.342192691029901,2.2511343207425565
5.362126245847176,2.3274955564799926
5.382059800664452,2.4029678587585286
5.4019933554817285,2.4773475750068337
5.421926910299003,2.550448808913837
5.44186046511628,2.6221011535271574
5.4617940199335555,2.692147801562291
5.48172757475083,2.7604439712838285
5.501661129568107,2.826855595344501
5.5215946843853825,2.891258228249028
5.541528239202658,2.9535361353994714
5.561461794019934,3.0135815329362963
5.5813953488372094,3.0712939528713457
5.601328903654485,3.126579712420527
5.621262458471762,3.1793514701023273
5.641196013289036,3.2295278541893118
5.661129568106313,3.2770331515877325
5.681063122923589,3.3217970472680656
5.700996677740864,3.3637544060539817
5.72093023255814,3.402845089965263
5.740863787375416,3.4390138054552546
5.760797342192691,3.472209975830577
5.780730897009967,3.50238763492662
5.800664451827243,3.5295053387665325
5.820598006644518,3.553526092478721
5.840531561461795,3.5744172902081908
5.8604651162790695,3.5921506661464337
5.880398671096346,3.606702255137345
5.900332225913622,3.618052361602676
5.920265780730897,3.6261855357805373
5.940199335548173,3.6310905564911558
5.960132890365449,3.6327604198426444
5.980066445182724,3.631192333472008
6.0,3.6263877160876996
6.0199335548172765,3.6183522022448433
6.039867109634551,3.607095652447363
6.059800664451828,3.5926321688371177
6.0797342192691035,3.5749801169029505
6.099667774086379,3.554162153828052
6.119601328903655,3.5302052642966535
6.139534883720931,3.5031408048072548
6.159468438538206,3.4730045577963953
6.179401993355482,3.4398367971723007
6.1993355481727574,3.403682367201272
6.219269102990033,3.3645907770934
6.23920265780731,3.322616314111937
6.259136212624584,3.2778181785996394
6.279069767441861,3.230260644996935
6.299003322259137,3.1800132537466483
6.318936877076412,3.1271510399692812
6.338870431893688,3.071754805991571
6.3588039867109645,3.0139114462652765
6.378737541528239,2.953714334981788
6.398671096345516,2.891263788840601
6.418604651162791,2.8266676200496064
6.438538205980066,2.760041797821323
6.458471760797343,2.6915112404940085
6.4784053156146175,2.6212107650753285
6.498338870431894,2.549286226605622
6.51827242524917,2.475895886382758
6.538205980066445,2.401212055845123
6.558139534883721,2.325423071730654
6.578073089700998,2.248735667756101
6.598006644518272,2.171377817831004
6.617940199335549,2.093602134371882
6.6378737541528245,2.015689910061718
6.6578073089701,1.9379558879113155
6.677740863787376,1.8607538251528648
6.6976744186046515,1.7844828691241181
6.717607973421927,1.7095946690943762
6.737541528239203,1.6366009797259522
6.7574750830564785,1.5660812335422827
6.777408637873754,1.4986891308283221
6.797342192691031,1.4351566855685396
6.8172757475083055,1.376293389824601
6.837209302325582,1.3229773379827388
6.857142857142858,1.2761346001949438
6.877076411960133,1.2367034175932439
6.897009966777409,1.2055816495843668
6.9169435215946855,1.1835598647174346
6.93687707641196,1.1712481359485691
6.956810631229236,1.169010026943799
6.9767441860465125,1.1769192800443677
6.996677740863787,1.1947508680482608
7.016611295681064,1.2220089394583973
7.036544850498339,1.2579838327940958
7.056478405315615,1.3018236873109559
7.076411960132891,1.3526056009632441
7.096345514950166,1.4093955158895506
7.116279069767442,1.4712919010080097
7.136212624584719,1.5374531961742617
7.156146179401993,1.6071117991712027
7.17607973421927,1.6795783095642056
7.196013289036546,1.7542395015900887
7.21594684385382,1.8305527529391077
7.235880398671097,1.9080388367725718
7.2558139534883725,1.9862742914272742
7.275747508305648,2.0648840713883394
7.295681063122924,2.143534839392068
7.3156146179402,2.221929044617227
7.335548172757475,2.299799806829438
7.355481727574752,2.3769065596636723
7.3754152823920265,2.453031375456162
7.395348837209303,2.527975884150158
7.415282392026579,2.6015587002855565
7.435215946843854,2.6736132791706697
7.45514950166113,2.743986132673489
7.475083056478406,2.8125353448108465
7.495016611295681,2.879129336510049
7.514950166112956,2.9436458371459566
7.5348837209302335,3.005971027585839
7.554817275747508,3.0659988255265653
7.574750830564784,3.123630288978797
7.5946843853820605,3.1787731179635728
7.614617940199336,3.2313412379644086
7.634551495016611,3.2812544515412796
7.6544850498338874,3.3284381468660573
7.674418604651163,3.3728230538724473
7.694352159468439,3.414345040302939
7.714285714285715,3.4529449412438367
7.73421926910299,3.4885684168188016
7.754152823920266,3.521165833604299
7.774086378737542,3.550692166071371
7.794019933554818,3.5771069149756807
7.813953488372093,3.600374040135039
7.83388704318937,3.6204619054691465
7.853820598006645,3.6373432345458903
7.8737541528239205,3.6509950751947433
7.893687707641197,3.6613987720213363
7.913621262458472,3.66853994589649
7.9335548172757475,3.6724084797061955
7.953488372093024,3.6729985098417997
7.9734219269103,3.670308423087989
7.9933554817275745,3.6643408587352924
8.013289036544851,3.6551027159082707
8.033222591362128,3.6426051662647443
8.053156146179402,3.6268636723903187
8.073089700996679,3.607898012390263
8.093023255813954,3.585732311373071
8.11295681063123,3.5603950807321603
8.132890365448505,3.5319192663702914
8.152823920265782,3.5003423072836894
8.172757475083056,3.4657062062373463
8.192691029900331,3.4280576146308332
8.21262458471761,3.387447934087749
8.232558139534884,3.343933437816864
8.252491694352159,3.2975754154086823
8.272425249169435,3.248440345469936
8.292358803986712,3.196600101390288
8.312292358803987,3.142132196613521
8.332225913621263,3.0851200770952354
8.352159468438538,3.0256534702213242
8.372093023255815,2.9638288014020686
8.392026578073091,2.899749691923492
8.411960132890366,2.833527554523867
8.43189368770764,2.765282306679303
8.451827242524917,2.695143225854562
8.471760797342194,2.623249976141286
8.491694352159469,2.5497538419069468
8.511627906976745,2.474819211434083
8.53156146179402,2.3986253621027527
8.551495016611296,2.321368608383505
8.571428571428573,2.2432648844229894
8.591362126245848,2.164552843490249
8.611295681063122,2.0854975653186485
8.6312292358804,2.006394966291378
8.651162790697676,1.927577000969057
8.67109634551495,1.849417717415515
8.691029900332227,1.7723401683232216
8.710963455149502,1.6968240624508841
8.730897009966778,1.6234138340560798
8.750830564784053,1.5527264702491812
8.77076411960133,1.4854579235876835
8.790697674418604,1.422386224719943
8.81063122923588,1.364368537489277
8.830564784053157,1.3123285502425663
8.850498338870432,1.2672301947449942
8.870431893687707,1.2300344283254165
8.890365448504983,1.2016385091718045
8.91029900332226,1.1828021905355854
8.930232558139535,1.1740716084482705
8.950166112956811,1.1757166272017512
8.970099667774086,1.187697529676344
8.990033222591363,1.2096704330984847
9.00996677740864,1.2410298320608844
9.029900332225914,1.2809764849594936
9.049833887043189,1.3285941588497059
9.069767441860467,1.3829205190006353
9.089700996677742,1.4430031593748678
9.109634551495017,1.5079379319841963
9.129568106312293,1.5768911084807375
9.14950166112957,1.649108991199565
9.169435215946844,1.7239189374144672
9.189368770764121,1.8007251797875516
9.209302325581396,1.8790019442753116
9.22923588039867,1.958285531222849
9.249169435215949,2.0381663701973136
9.269102990033224,2.118281599987984
9.289036544850498,2.1983084287707753
9.308970099667773,2.277958351324366
9.328903654485051,2.3569722012436327
9.348837209302326,2.435115966919568
9.368770764119601,2.512177280471474
9.388704318936878,2.587962485802379
9.408637873754152,2.6622941974821828
9.428571428571429,2.7350092715154357
9.448504983388705,2.8059571195617017
9.46843853820598,2.8749983084412993
9.488372093023255,2.9420033961094965
9.508305647840533,3.00685196346482
9.528239202657808,3.0694318083423737
9.548172757475083,3.1296382739110755
9.56810631229236,3.1873736885729373
9.588039867109636,3.2425468984916184
9.60797342192691,3.2950728771917666
9.627906976744187,3.344872399390717
9.647840531561462,3.3918717684543305
9.667774086378738,3.4360025886984693
9.687707641196015,3.4772015752595284
9.70764119601329,3.515410395493534
9.727574750830565,3.55057553688211
9.747508305647841,3.5826481972668787
9.767441860465118,3.611584193933416
9.787375415282392,3.6373438886499483
9.807308970099669,3.659892126255035
9.827242524916944,3.6791981848015998
9.84717607973422,3.6952357356156598
9.867109634551497,3.707982811929472
9.887043189368772,3.7174217850103255
9.906976744186046,3.723539346936539
9.926910299003321,3.726326499377965
9.9468438538206,3.725778547926383
9.966777408637874,3.7218951016965027
9.986710963455149,3.71468007808587
10.006644518272426,3.7041417127469303
10.026578073089702,3.690292574990926
10.046511627906977,3.6731495890161563
10.066445182724253,3.652734061537123
10.086378737541528,3.629071716591619
10.106312292358805,3.602192738526192
10.126245847176081,3.57213182441267
10.146179401993356,3.5389282474388026
10.16611295681063,3.502625933153268
10.186046511627907,3.4632735508412713
10.205980066445184,3.420924622775893
10.225913621262459,3.3756376546489433
10.245847176079735,3.3274762911551248
10.26578073089701,3.276509501510058
10.285714285714286,3.2228118006584094
10.305647840531563,3.1664635131126437
10.325581395348838,3.1075510878039396
10.345514950166113,3.0461674740845077
10.36544850498339,2.9824125711678895
10.385382059800666,2.916393765919306
10.40531561461794,2.848226577118244
10.425249169435217,2.778035428235097
10.445182724252492,2.7059545755370045
10.465116279069768,2.632129224121399
10.485049833887045,2.5567168714283257
10.50498338870432,2.4798889260378565
10.524916943521594,2.401832659175684
10.544850498338871,2.322753557221049
10.564784053156147,2.2428781552015824
10.584717607973422,2.16245744273345
10.604651162790697,2.081770943030296
10.624584717607974,2.0011315685811164
10.64451827242525,1.920891347084799
10.664451827242525,1.8414480768411061
10.684385382059801,1.7632528938135505
10.704318936877076,1.6868185853685598
10.724252491694353,1.61272822934352
10.74418604651163,1.541643322990813
10.764119601328904,1.4743099470403396
