Frequency (Hz),Amplitude
0.0,1.3974200613003942
0.019867549668874173,1.396784040695606
0.039735099337748346,1.3948767205319597
0.059602649006622516,1.3917003262381018
0.07947019867549669,1.3872585684722945
0.09933774834437085,1.3815566456167545
0.11920529801324503,1.3746012474295208
0.13907284768211922,1.3664005600190972
0.15894039735099338,1.3569642723632578
0.17880794701986755,1.3463035846557339
0.1986754966887417,1.3344312188364236
0.2185430463576159,1.321361431743835
0.23841059602649006,1.307110031426588
0.2582781456953642,1.2916943972670065
0.27814569536423844,1.275133504709672
0.2980132450331126,1.257447955556464
0.31788079470198677,1.2386600149950773
0.33774834437086093,1.218793656779433
0.3576158940397351,1.197874618289955
0.3774834437086093,1.1759304675847444
0.3973509933774834,1.1529906850289606
0.4172185430463576,1.1290867626846017
0.4370860927152318,1.104252325389413
0.45695364238410596,1.0785232783941558
0.4768211920529801,1.0519379876173476
0.49668874172185434,1.024537500087073
0.5165562913907285,0.9963658140641343
0.5364238410596026,0.9674702107988423
0.5562913907284769,0.9379016630203695
0.5761589403973509,0.9077153392888025
0.5960264900662252,0.8769712285025392
0.6158940397350993,0.845734915446714
0.6357615894039735,0.8140785466406131
0.6556291390728477,0.7820820362608957
0.6754966887417219,0.7498345748968513
0.695364238410596,0.7174365194217379
0.7152317880794702,0.6850017598487439
0.7350993377483444,0.6526606769145916
0.7549668874172186,0.620563817942169
0.7748344370860927,0.5888864189709179
0.7947019867549668,0.5578338699481604
0.8145695364238411,0.5276481235134876
0.8344370860927152,0.49861482987510464
0.8543046357615894,0.47107055410711807
0.8741721854304636,0.4454086895324028
0.8940397350993378,0.42208154293906136
0.9139072847682119,0.40159463197644923
0.9337748344370861,0.38448805730430474
0.9536423841059603,0.3713002046585138
0.9735099337748344,0.3625128733118894
0.9933774834437087,0.35848513680795063
1.0132450331125828,0.3593930600751811
1.033112582781457,0.3651966173396184
1.0529801324503312,0.3756474378039494
1.0728476821192052,0.39033407507238504
1.0927152317880795,0.4087468900498275
1.1125827814569538,0.43034157225434083
1.1324503311258278,0.4545875582456602
1.1523178807947019,0.48099747828673284
1.1721854304635762,0.50914044370851
1.1920529801324504,0.5386443601933671
1.2119205298013245,0.5691920683190529
1.2317880794701985,0.6005147334107088
1.2516556291390728,0.6323845474114491
1.271523178807947,0.6646078146173844
1.2913907284768211,0.6970188786655263
1.3112582781456954,0.7294750098630254
1.3311258278145695,0.7618522067419039
1.3509933774834437,0.7940417983616149
1.370860927152318,0.8259477171337796
1.390728476821192,0.8574843187838146
1.410596026490066,0.8885746420973846
1.4304635761589404,0.9191490191908195
1.4503311258278146,0.9491439639894376
1.4701986754966887,0.9785012812067502
1.4900662251655628,1.007167350167704
1.5099337748344372,1.035092547510987
1.5298013245033113,1.0622307804831919
1.5496688741721854,1.0885391085695402
1.5695364238410596,1.1139774359222823
1.5894039735099337,1.1385082607299428
1.609271523178808,1.1620964705446264
1.6291390728476822,1.184709174831898
1.6490066225165563,1.2063155677683977
1.6688741721854303,1.226886815696215
1.6887417218543048,1.246395964734217
1.7086092715231789,1.2648178649106128
1.728476821192053,1.28212910786761
1.7483443708609272,1.2983079757372882
1.7682119205298013,1.3133343992272535
1.7880794701986755,1.3271899233089286
1.8079470198675496,1.339857679187975
1.8278145695364238,1.3513223614697552
1.847682119205298,1.3615702096237723
1.8675496688741722,1.3705889930083688
1.8874172185430464,1.3783679988476079
1.9072847682119205,1.3848980226613214
1.9271523178807946,1.3901713607415487
1.9470198675496688,1.3941818043473364
1.9668874172185429,1.396924635357929
1.9867549668874174,1.398396623184444
2.0066225165562916,1.3985960227936753
2.0264900662251657,1.39752257374723
2.0463576158940397,1.3951775002053477
2.066225165562914,1.3915635118898415
2.086092715231788,1.3866848060450414
2.1059602649006623,1.3805470704818672
2.1258278145695364,1.3731574878381103
2.1456953642384105,1.364524741240936
2.165562913907285,1.3546590216154037
2.185430463576159,1.3435720369488713
2.205298013245033,1.3312770238968472
2.2251655629139075,1.317788762204109
2.2450331125827816,1.3031235925196252
2.2649006622516556,1.287299438308083
2.2847682119205297,1.2703358327108027
2.3046357615894038,1.2522539513903437
2.324503311258278,1.2330766526145853
2.3443708609271523,1.2128285261074399
2.364238410596027,1.1915359525286702
2.384105960264901,1.1692271758600528
2.403973509933775,1.1459323914925321
2.423841059602649,1.1216838534554394
2.443708609271523,1.096516005041837
2.463576158940397,1.0704656381091646
2.4834437086092715,1.0435720876329186
2.5033112582781456,1.0158774697415924
2.52317880794702,0.9874269735651099
2.543046357615894,0.9582692199186289
2.562913907284768,0.9284567032860713
2.5827814569536423,0.8980463379776149
2.6026490066225163,0.8671001349757761
2.622516556291391,0.8356860431726798
2.642384105960265,0.8038789977944432
2.662251655629139,0.7717622301618777
2.6821192052980134,0.7394289068013609
2.7019867549668874,0.7069841822161982
2.7218543046357615,0.6745477674913855
2.741721854304636,0.6422571337994328
2.76158940397351,0.6102714799683597
2.781456953642384,0.5787765845567162
2.801324503311258,0.5479906124352115
2.821192052980132,0.5181708128965038
2.8410596026490067,0.4896207640352269
2.8609271523178808,0.46269729060163156
2.8807947019867552,0.4378153037462863
2.9006622516556293,0.41544754437696557
2.9205298013245033,0.3961147832401273
2.9403973509933774,0.38036124199350074
2.9602649006622515,0.3687114303125209
2.9801324503311255,0.36161001894707395
3.0,0.35935567834766935
3.0198675496688745,0.36204849888866925
3.0397350993377485,0.3695709028340556
3.0596026490066226,0.38161008506178734
3.0794701986754967,0.39771256744713934
3.0993377483443707,0.41735050375208355
3.119205298013245,0.4399806396845458
3.1390728476821192,0.46508585881881515
3.1589403973509933,0.4921983273682618
3.1788079470198674,0.5209082952892449
3.198675496688742,0.5508637792649137
3.218543046357616,0.5817654603503682
3.23841059602649,0.6133596943114451
3.2582781456953644,0.6454312961687929
3.2781456953642385,0.6777969149885497
3.2980132450331126,0.7102993125501168
3.3178807947019866,0.7428025932293512
3.3377483443708607,0.7751883085862055
3.3576158940397347,0.8073523144654057
3.3774834437086096,0.8392022519470081
3.3973509933774837,0.8706555344701782
3.4172185430463577,0.9016377405667878
3.437086092715232,0.9320813294162574
3.456953642384106,0.9619246125256716
3.47682119205298,0.9911109284754671
3.4966887417218544,1.0195879788122397
3.5165562913907285,1.0473072920811466
3.5364238410596025,1.074223790029536
3.556291390728477,1.1002954355346488
3.576158940397351,1.125482946123858
3.596026490066225,1.1497495603256809
3.615894039735099,1.1730608467221357
3.6357615894039736,1.1953845476331655
3.6556291390728477,1.216690450980118
3.6754966887417218,1.2369502851473164
3.695364238410596,1.2561376326655012
3.7152317880794703,1.2742278593375103
3.7350993377483444,1.291198056060975
3.754966887417219,1.3070269911098842
3.774834437086093,1.3216950710445616
3.794701986754967,1.3351843087482091
3.814569536423841,1.3474782973552488
3.834437086092715,1.3585621890541668
3.854304635761589,1.3684226779261808
3.8741721854304636,1.3770479861284568
3.8940397350993377,1.384427852853347
3.9139072847682117,1.3905535255979968
3.9337748344370858,1.3954177533659569
3.9536423841059607,1.399014781497317
3.9735099337748347,1.4013403478889581
3.993377483443709,1.40239168042438
4.013245033112583,1.4021674954845327
4.033112582781457,1.400667997459526
4.052980132450331,1.3978948792268067
4.072847682119205,1.3938513236063639
4.0927152317880795,1.388542005848541
4.112582781456953,1.3819730972569895
4.132450331125828,1.3741522700990547
4.152317880794702,1.3650887040105006
4.172185430463576,1.3547930941624153
4.19205298013245,1.3432776615273987
4.211920529801325,1.3305561656625866
4.231788079470199,1.3166439205208722
4.251655629139073,1.3015578139134834
4.271523178807947,1.2853163313803104
4.291390728476821,1.267939585385286
4.311258278145695,1.2494493509495335
4.33112582781457,1.2298691090738019
4.3509933774834435,1.2092240995949262
4.370860927152318,1.187541385483452
4.390728476821192,1.164849931039473
4.410596026490066,1.1411806970043121
4.43046357615894,1.1165667563085244
4.450331125827815,1.0910434350601335
4.470198675496689,1.0646484844931365
4.490066225165563,1.037422291011084
4.509933774834438,1.0094081332596994
4.529801324503311,0.9806524974574369
4.549668874172186,0.9512054651467006
4.569536423841059,0.9211211912823486
4.589403973509934,0.8904584953778458
4.6092715231788075,0.8592815945626668
4.629139072847682,0.8276610151957057
4.649006622516556,0.7956747294855013
4.66887417218543,0.7634095757124892
4.688741721854305,0.7309630352834976
4.708609271523179,0.6984454566620497
4.728476821192054,0.6659828338550436
4.748344370860927,0.6337202620956802
4.768211920529802,0.6018261980087987
4.788079470198675,0.5704976306711889
4.80794701986755,0.5399661953658793
4.827814569536423,0.5105050847540354
4.847682119205298,0.4824362562340374
4.867549668874172,0.4561367974731262
4.887417218543046,0.43204230200194393
4.9072847682119205,0.41064375282992505
4.927152317880794,0.392473103201291
4.947019867549669,0.3780725405615411
4.966887417218543,0.36794507365601437
4.986754966887418,0.36249098241073596
5.006622516556291,0.36194438293890135
5.026490066225166,0.36633068600133045
5.04635761589404,0.37546180263582263
5.066225165562914,0.38897112044849763
5.086092715231788,0.40637403049326826
5.105960264900662,0.4271330232632088
5.125827814569536,0.45071104461386235
5.14569536423841,0.476606460774567
5.1655629139072845,0.504370803606073
5.185430463576159,0.5336140210260917
5.205298013245033,0.5640022378390775
5.225165562913908,0.5952518544487794
5.245033112582782,0.6271224149722631
5.264900662251656,0.6594095778721171
5.28476821192053,0.6919388070746962
5.304635761589404,0.7245599912897079
5.324503311258278,0.7571429892149246
5.344370860927152,0.7895740054838197
5.364238410596027,0.8217526721149497
5.3841059602649,0.8535897106896316
5.403973509933775,0.88500506391612
5.4238410596026485,0.9159264026379064
5.443708609271523,0.9462879314855432
5.463576158940397,0.9760294315309852
5.483443708609272,1.0050954909938614
5.503311258278146,1.033434885349169
5.52317880794702,1.061000076394589
5.543046357615895,1.0877468063090183
5.562913907284768,1.113633767808343
5.582781456953643,1.1386223354721636
5.602649006622516,1.1626763464149106
5.622516556291391,1.1857619208994057
5.642384105960264,1.2078473153906812
5.662251655629139,1.228902802040461
5.682119205298013,1.2489005697696232
5.701986754966887,1.2678146430466328
5.7218543046357615,1.2856208151996174
5.741721854304636,1.3022965936893125
5.7615894039735105,1.3178211552427845
5.781456953642384,1.3321753091278952
5.801324503311259,1.345341467156185
5.821192052980132,1.357303619251685
5.841059602649007,1.3680473136275872
5.860927152317881,1.3775596407807043
5.880794701986755,1.3858292206527858
5.900662251655629,1.3928461924238518
5.920529801324503,1.3986022065004284
5.940397350993377,1.4030904183448272
5.960264900662251,1.4063054838632316
5.980132450331126,1.4082435561331885
6.0,1.4089022833070801
6.0198675496688745,1.4082808075790643
6.039735099337749,1.406379765150653
6.059602649006623,1.4032012871756954
6.079470198675497,1.3987490017106041
6.099337748344371,1.3930280367415895
6.119205298013245,1.3860450244086029
6.139072847682119,1.3778081065972403
6.158940397350993,1.3683269421268578
6.178807947019867,1.357612715826842
6.198675496688741,1.3456781498663664
6.218543046357616,1.332537517787852
6.23841059602649,1.3182066617945072
6.258278145695365,1.302703013961211
6.2781456953642385,1.2860456221807803
6.298013245033113,1.26825518183002
6.317880794701987,1.2493540743498974
6.337748344370861,1.2293664141907672
6.357615894039735,1.2083181058897403
6.377483443708609,1.1862369134379986
6.397350993377484,1.163152544581421
6.417218543046357,1.1390967533042597
6.437086092715232,1.1141034645056425
6.456953642384105,1.0882089258355085
6.47682119205298,1.0614518928660808
6.496688741721854,1.0338738553085476
6.516556291390729,1.0055193139362928
6.5364238410596025,0.9764361203649
6.556291390728477,0.9466758950199049
6.5761589403973515,0.9162945426900613
6.596026490066225,0.8853528902594231
6.6158940397351,0.8539174778276849
6.635761589403973,0.8220615427992448
6.655629139072848,0.7898662469900735
6.675496688741721,0.7574222096389619
6.695364238410596,0.7248314244311223
6.715231788079469,0.6922096556392594
6.735099337748344,0.6596894253053004
6.754966887417219,0.6274237153872696
6.774834437086093,0.5955905062784228
6.794701986754967,0.5643982373250458
6.814569536423841,0.5340921720930412
6.8344370860927155,0.5049614246450473
6.854304635761589,0.4773459685817526
6.874172185430464,0.45164220563430657
6.894039735099337,0.42830454911992094
6.913907284768212,0.40783909727967277
6.933774834437086,0.3907844040442427
6.95364238410596,0.377674892603002
6.973509933774834,0.36898637406093315
6.993377483443709,0.3650711713767859
7.013245033112583,0.36609967738430127
7.033112582781457,0.37202887716891847
7.052980132450331,0.38261063385268435
7.072847682119205,0.39743624639572267
7.0927152317880795,0.4159999233986741
7.112582781456954,0.4377609691390025
7.132450331125828,0.462191396474699
7.152317880794702,0.4888051314474383
7.172185430463576,0.5171714288117158
7.19205298013245,0.5469174698096922
7.211920529801324,0.5777248015048021
7.231788079470198,0.6093229739770287
7.251655629139073,0.6414824216378437
7.271523178807947,0.674007667435025
7.291390728476822,0.7067313216407489
7.311258278145695,0.7395090084265302
7.33112582781457,0.7722151854013001
7.3509933774834435,0.804739750777555
7.370860927152318,0.8369853134487512
7.390728476821192,0.8688650061534384
7.410596026490066,0.9003007365872034
7.430463576158941,0.9312217885240935
7.450331125827814,0.9615637013819467
7.470198675496689,0.9912673709189183
7.490066225165562,1.020278325582508
7.509933774834438,1.0485461425967904
7.52980132450331,1.0760239754803602
7.549668874172186,1.1026681706821586
7.569536423841059,1.1284379557223196
7.589403973509934,1.153295184902393
7.6092715231788075,1.1772041315258486
7.629139072847682,1.200131317822004
7.649006622516557,1.2220453755346194
7.66887417218543,1.242916931527309
7.6887417218543055,1.2627185138564787
7.708609271523178,1.2814244746330716
7.728476821192054,1.2990109266870593
7.748344370860927,1.315455691602046
7.768211920529802,1.330738257131564
7.788079470198675,1.3448397423666931
7.80794701986755,1.3577428693148965
7.827814569536423,1.3694319397863772
7.847682119205298,1.3798928166775362
7.8675496688741715,1.389112908901081
7.887417218543046,1.3970811593444796
7.907284768211921,1.4037880353495003
7.927152317880795,1.4092255212989682
7.9470198675496695,1.4133871129771303
7.966887417218543,1.4162678134390991
7.986754966887418,1.4178641301859058
8.006622516556291,1.4181740734963992
8.026490066225167,1.417197155817392
8.046357615894038,1.4149343921607447
8.066225165562914,1.4113883015017867
8.086092715231787,1.4065629092189906
8.105960264900663,1.400463750661627
8.125827814569536,1.3930978759813595
8.14569536423841,1.384473856417281
8.165562913907285,1.374601792283089
8.185430463576159,1.3634933229720028
8.205298013245034,1.3511616393722252
8.225165562913906,1.337621499175444
8.245033112582782,1.3228892456671142
8.264900662251655,1.3069828307134381
8.28476821192053,1.289921842812114
8.304635761589404,1.2717275412577371
8.324503311258278,1.2524228976967946
8.344370860927151,1.2320326466219351
8.364238410596027,1.2105833466933542
8.3841059602649,1.1881034551940513
8.403973509933774,1.164623418446482
8.42384105960265,1.1401757816689564
8.443708609271523,1.114795322566569
8.463576158940398,1.0885192139797717
8.483443708609272,1.061387222213776
8.503311258278146,1.0334419493213902
8.52317880794702,1.0047291297100125
8.543046357615895,0.9752979941191875
8.562913907284768,0.9452017174311302
8.582781456953642,0.9144979711393182
8.602649006622515,0.883249606861623
8.62251655629139,0.851525504344601
8.642384105960264,0.8194016262953853
8.66225165562914,0.7869623334157054
8.682119205298013,0.7543020263961386
8.701986754966887,0.7215271972078228
8.721854304635762,0.6887589888500106
8.741721854304636,0.6561363781544054
8.76158940397351,0.6238201044404342
8.781456953642383,0.5919974558902352
8.801324503311259,0.5608879731373151
8.821192052980132,0.5307499964998469
8.841059602649008,0.5018877061849973
8.86092715231788,0.4746577939870268
8.880794701986755,0.4494740637941268
8.90066225165563,0.42680705804767033
8.920529801324504,0.4071744664806146
8.940397350993377,0.3911173413768957
8.960264900662251,0.37915847994485696
8.980132450331126,0.37174437984919184
9.0,0.36918087882754147
9.019867549668875,0.3715809103740516
9.039735099337747,0.37884358400121043
9.059602649006623,0.3906731848431301
9.079470198675496,0.4066302411067227
9.099337748344372,0.4261957120940751
9.119205298013245,0.4488296073960229
9.139072847682119,0.47401347128522786
9.158940397350994,0.5012749745998811
9.178807947019868,0.5301980983751565
9.198675496688743,0.5604238740198237
9.218543046357615,0.5916459756344196
9.23841059602649,0.6236041285577482
9.258278145695364,0.6560770853520748
9.27814569536424,0.6888760628013186
9.298013245033111,0.7218390094980712
9.317880794701987,0.7548257876941805
9.33774834437086,0.7877142147643658
9.357615894039736,0.8203968543508148
9.37748344370861,0.8527784348429568
9.397350993377483,0.8847737803477815
9.417218543046358,0.9163061544788353
9.437086092715232,0.9473059340532206
9.456953642384107,0.977709545400168
9.47682119205298,1.0074586094397229
9.496688741721854,1.036499252806828
9.516556291390728,1.0647815512591634
9.536423841059603,1.0922590787302366
9.556291390728477,1.1188885410029992
9.57615894039735,1.1446294773835861
9.596026490066224,1.1694440172046618
9.6158940397351,1.1932966806894187
9.635761589403973,1.2161542158263927
9.655629139072847,1.237985464570515
9.675496688741722,1.2587612529987147
9.695364238410596,1.2784543010865397
9.715231788079471,1.2970391485963775
9.735099337748345,1.3144920942248919
9.754966887417218,1.3307911456827182
9.774834437086092,1.3459159788023285
9.794701986754967,1.3598479041110738
9.814569536423841,1.3725698395836443
9.834437086092716,1.3840662885140196
9.854304635761588,1.3943233216327298
9.874172185430464,1.4033285627482295
9.894039735099337,1.4110711773188582
9.913907284768213,1.417541863468699
9.933774834437086,1.4227328450513053
9.95364238410596,1.426637866442913
9.973509933774835,1.429252188814423
9.993377483443709,1.430572587691066
10.013245033112582,1.4305973516626556
10.033112582781456,1.42932628215706
10.052980132450331,1.4267606942368278
10.072847682119205,1.4229034184246891
10.09271523178808,1.4177588036100108
10.112582781456952,1.4113327211359492
10.132450331125828,1.4036325702176202
10.152317880794701,1.3946672848970698
10.172185430463577,1.3844473428021349
10.192052980132452,1.3729847760463532
10.211920529801324,1.3602931846876491
10.2317880794702,1.3463877532579729
10.251655629139073,1.3312852709875282
10.271523178807948,1.3150041564807124
10.29139072847682,1.2975644877610795
10.311258278145695,1.278988038797288
10.331125827814569,1.2592983238590723
10.350993377483444,1.238520651343092
10.370860927152318,1.2166821890672102
10.390728476821192,1.193812043475961
10.410596026490065,1.169941355752653
10.43046357615894,1.1451034185246376
10.450331125827816,1.1193338177152072
10.470198675496688,1.092670605188233
10.490066225165563,1.06515450921262
10.509933774834437,1.0368291915259387
10.529801324503312,1.007741562004554
10.549668874172186,0.9779421647869794
10.56953642384106,0.9474856533190158
10.589403973509933,0.9164313764067612
10.609271523178808,0.8848441032369263
10.629139072847682,0.8527949227549154
10.649006622516556,0.8203623621019506
10.66887417218543,0.787633780288976
