Frequency (Hz),Amplitude
0.0,3.9786743311199104
0.020066889632107024,3.976742999530791
0.04013377926421405,3.9709509985118503
0.060200668896321065,3.9613043083327786
0.0802675585284281,3.9478128928796044
0.10033444816053512,3.9304906948863625
0.12040133779264213,3.90935562941561
0.14046822742474915,3.8844295757502083
0.1605351170568562,3.85573836791392
0.1806020066889632,3.823311784101481
0.20066889632107024,3.787183535371311
0.22073578595317725,3.747391254039521
0.24080267558528426,3.703976482316057
0.2608695652173913,3.6569846618470483
0.2809364548494983,3.6064651249780786
0.3010033444816054,3.552471088738979
0.3210702341137124,3.4950596527818965
0.34113712374581934,3.4342918027944163
0.3612040133779264,3.3702324212762957
0.3812709030100334,3.3029503080357347
0.4013377926421405,3.2325182133612533
0.42140468227424743,3.159012887602206
0.4414715719063545,3.082515151904372
0.4615384615384615,3.0031099961806493
0.4816053511705685,2.920886712166302
0.5016722408026756,2.8359390717774167
0.5217391304347826,2.7483655641939877
0.5418060200668896,2.6582697094615835
0.5618729096989966,2.565760472438548
0.5819397993311036,2.470952809333526
0.6020066889632107,2.3739683909623093
0.6220735785953176,2.274936563843926
0.6421404682274248,2.1739956348718077
0.6622073578595318,2.071294601466133
0.6822742474916387,1.9669955030575108
0.7023411371237458,1.861276651476076
0.7224080267558528,1.7543371236737948
0.7424749163879598,1.6464030973237627
0.7625418060200668,1.5377369238836336
0.7826086956521738,1.4286503423926291
0.802675585284281,1.319524073505989
0.8227424749163879,1.2108374226867704
0.8428093645484949,1.1032138340480733
0.862876254180602,0.9974921188205306
0.882943143812709,0.8948388924896425
0.903010033444816,0.7969250684843157
0.923076923076923,0.7061919425020232
0.9431438127090299,0.6262041288699708
0.963210702341137,0.5619504132839223
0.983277591973244,0.5195988399043989
1.0033444816053512,0.5048774716195854
1.0234113712374582,0.5201996666959178
1.0434782608695652,0.563067852170215
1.0635451505016722,0.6277232015822092
1.0836120401337792,0.7080129205899267
1.1036789297658862,0.7989776717199979
1.1237458193979932,0.897078656240949
1.1438127090301002,0.9998928687170174
1.1638795986622072,1.1057614026539484
1.1839464882943145,1.213525342508924
1.2040133779264215,1.3223508047536492
1.2240802675585283,1.4316175127584374
1.2441471571906353,1.5408482020791974
1.2642140468227423,1.6496634591983037
1.2842809364548495,1.7577523631611367
1.3043478260869565,1.8648530464886166
1.3244147157190636,1.970739581252427
1.3444816053511706,2.0752129716666916
1.3645484949832773,2.1780948625284675
1.3846153846153846,2.2792230766384547
1.4046822742474916,2.3784484054632005
1.4247491638795986,2.475632272653315
1.4448160535117056,2.5706450148035076
1.4648829431438126,2.663364604887421
1.4849498327759196,2.7536756973154675
1.5050167224080266,2.84146890945649
1.5250836120401337,2.926640278898791
1.5451505016722407,3.0090908525960387
1.5652173913043477,3.0887263758463317
1.5852842809364547,3.165457057414751
1.605351170568562,3.2391973931042948
1.625418060200669,3.3098660344253994
1.6454849498327757,3.377385692198044
1.6655518394648827,3.441683067275809
1.6856187290969897,3.5026888023408103
1.705685618729097,3.56033745004473
1.725752508361204,3.614567453779407
1.745819397993311,3.665321138133253
1.765886287625418,3.7125447066871287
1.7859531772575248,3.756188245268455
1.806020066889632,3.796205729147457
1.826086956521739,3.8325550329481888
1.846153846153846,3.8651979422774
1.866220735785953,3.894100166259276
1.8862876254180598,3.9192313503145186
1.9063545150501673,3.9405650886449917
1.926421404682274,3.9580789359872015
1.9464882943143813,3.971754418283375
1.966555183946488,3.981577041991393
1.9866220735785953,3.9875363018181336
2.0066889632107023,3.989625686716089
2.026755852842809,3.987842684033753
2.0468227424749164,3.9821887817569888
2.0668896321070234,3.972669468823287
2.0869565217391304,3.95929423353521
2.1070234113712374,3.942076560144404
2.1270903010033444,3.921033923724944
2.1471571906354514,3.8961877835062126
2.1672240802675584,3.867563574892525
2.1872909698996654,3.8351907004615144
2.2073578595317724,3.799102520308572
2.2274247491638794,3.7593363421929586
2.2474916387959865,3.7159334120471077
2.267558528428094,3.6689389055385044
2.2876254180602005,3.6184019215298884
2.3076923076923075,3.564375478476371
2.3277591973244145,3.5069165150382307
2.3478260869565215,3.446085896489225
2.367892976588629,3.3819484288813406
2.3879598662207355,3.3145728834122092
2.408026755852843,3.2440320340647673
2.4280936454849495,3.17040271239552
2.4481605351170566,3.093765884400058
2.468227424749164,3.0142067557688192
2.4882943143812706,2.9318149136823815
2.508361204013378,2.8466845157538656
2.5284280936454846,2.758914540047847
2.548494983277592,2.6686091146383033
2.568561872909699,2.5758779514205545
2.5886287625418056,2.4808369176102683
2.608695652173913,2.383608790664304
2.6287625418060196,2.28432425993164
2.648829431438127,2.1831232637812863
2.668896321070234,2.080156788293239
2.688963210702341,1.975589309216977
2.709030100334448,1.8696021430339544
2.7290969899665547,1.762398102282623
2.749163879598662,1.6542080523864562
2.769230769230769,1.5453002882477809
2.789297658862876,1.435994166923831
2.809364548494983,1.326680280176751
2.82943143812709,1.217850849422863
2.849498327759197,1.11014633163712
2.869565217391304,1.0044279416964146
2.8896321070234112,0.9018913598985182
2.9096989966555182,0.8042434631336943
2.9297658862876252,0.7139646807245127
2.9498327759197323,0.634647416394482
2.9698996655518393,0.5712614836857725
2.9899665551839463,0.5298576811017847
3.0100334448160533,0.5159465583018774
3.0301003344481603,0.531758876563919
3.0501672240802673,0.5748036446081514
3.0702341137123748,0.6394713914852328
3.0903010033444813,0.7197545270609361
3.1103678929765888,0.8107731165745362
3.1304347826086953,0.9090153989144442
3.1505016722408024,1.0120589395302249
3.1705685618729094,1.1182353457624186
3.1906354515050164,1.2263738225138607
3.210702341137124,1.3356291917617023
3.2307692307692304,1.4453713731976854
3.250836120401338,1.555114880928522
3.270903010033445,1.6644734781365569
3.2909698996655514,1.7731305728039983
3.311036789297659,1.8808195477450231
3.3311036789297654,1.9873104529513343
3.351170568561873,2.092400843207258
3.3712374581939795,2.1959093652181387
3.391304347826087,2.2976712009443796
3.411371237458194,2.3975347854906004
3.4314381270903005,2.4953594142919915
3.451505016722408,2.5910134801534013
3.471571906354515,2.684373162631609
3.491638795986622,2.7753214464706493
3.511705685618729,2.8637473822350374
3.531772575250836,2.9495455271305118
3.551839464882943,3.032615521180164
3.5719063545150496,3.1128617659578404
3.591973244147157,3.1901931816165483
3.612040133779264,3.264523024074704
3.632107023411371,3.335768748667659
3.652173913043478,3.4038519098305615
3.672240802675585,3.4686980887917858
3.692307692307692,3.530236843059756
3.712374581939799,3.588401672846404
3.732441471571906,3.64313000060544
3.752508361204013,3.694363160657121
3.7725752508361197,3.7420463964850446
3.7926421404682276,3.786128863768543
3.8127090301003346,3.826563637589728
3.832775919732441,3.8633077225514736
3.852842809364548,3.896322064779589
3.872909698996655,3.925571564973156
3.8929765886287626,3.951025091821806
3.9130434782608696,3.972655495235462
3.933110367892976,3.9904396189373728
3.953177257525083,4.004358312059422
3.9732441471571907,4.014396439453992
3.9933110367892977,4.020542890501863
4.013377926421405,4.0227905862535165
4.033444816053511,4.021136484793517
4.053511705685618,4.0155815847665615
4.073578595317726,4.006130927050802
4.093645484949833,3.9927935946103412
4.113712374581939,3.975582710606696
4.133779264214047,3.9545154348989207
4.153846153846153,3.9296129591169016
4.173913043478261,3.9009005005528845
4.193979933110368,3.868407295185522
4.214046822742475,3.832166590231092
4.234113712374581,3.792215636711214
4.254180602006689,3.7485956826397637
4.274247491638796,3.7013519675688027
4.294314381270903,3.65053371940112
4.314381270903009,3.5961941545839085
4.334448160535117,3.5383904830558337
4.354515050167224,3.477183919643029
4.374581939799331,3.4126397040082614
4.394648829431437,3.3448271317785148
4.414715719063545,3.273819600144538
4.434782608695651,3.1996946720911352
4.454849498327759,3.122534164544563
4.474916387959866,3.0424242672060364
4.494983277591973,2.9594557008060485
4.5150501672240795,2.8737239261431293
4.535117056856188,2.785329418820623
4.555183946488294,2.69437802943443
4.575250836120401,2.600981455631715
4.595317725752508,2.5052578617450734
4.615384615384615,2.4073326947873923
4.635451505016722,2.3073397642465276
4.655518394648829,2.205422680066249
4.6755852842809364,2.1017367826582602
4.695652173913043,1.9964517573977363
4.71571906354515,1.889755214405877
4.735785953177258,1.7818576496688012
4.7558528428093645,1.6729994138098958
4.775919732441471,1.563460646748156
4.795986622073578,1.4535756678062748
4.816053511705686,1.3437541709264307
4.8361204013377925,1.2345129741501226
4.856187290969899,1.1265243335317368
4.8762541806020065,1.0206903634587592
4.896321070234113,0.9182580980810262
4.916387959866221,0.8209947646087641
4.936454849498328,0.731440032109985
4.956521739130435,0.6532136776533973
4.976588628762541,0.5912158599121864
4.996655518394649,0.5512523483170841
5.016722408026756,0.5384453059626982
5.036789297658863,0.5547524224066591
5.056856187290969,0.5977591879039682
5.076923076923077,0.6621568908195956
5.096989966555184,0.7422019856751597
5.117056856187291,0.833147712630543
5.137123745819398,0.9315185206160632
5.157190635451505,1.0348815878518935
5.177257525083611,1.1415421212649361
5.197324414715719,1.250300697649753
5.217391304347826,1.3602863017085385
5.237458193979933,1.4708470519057668
5.257525083612039,1.5814795312089274
5.277591973244148,1.691782853182002
5.297658862876254,1.801428423080129
5.317725752508361,1.9101397114213923
5.337792642140468,2.017678494705493
5.357859531772575,2.1238353387059985
5.377926421404682,2.228422911698401
5.397993311036789,2.3312712171608814
5.418060200668896,2.4322241496940293
5.438127090301003,2.531136977316197
5.458193979933109,2.6278744817926665
5.478260869565218,2.7223095727579603
5.498327759197324,2.8143222472791933
5.518394648829431,2.903798804201702
5.538461538461538,2.9906312484020905
5.558528428093646,3.0747168379508256
5.578595317725752,3.155957739740472
5.598662207357859,3.234260768059279
5.618729096989966,3.3095371870057924
5.638795986622073,3.3817025623035692
5.65886287625418,3.450676651499472
5.678929765886288,3.516383324068517
5.698996655518394,3.578750504848521
5.719063545150501,3.6377101356630788
5.739130434782608,3.693198151083883
5.759197324414716,3.745154465122547
5.7792642140468224,3.7935229662910714
5.799331103678929,3.83825151897648
5.8193979933110365,3.879291969472994
5.839464882943144,3.9166001553300553
5.8595317725752505,3.9501359169262256
5.879598662207358,3.979863110381312
5.8996655518394645,4.005749621083616
5.919732441471571,4.027767377244044
5.9397993311036785,4.0458923630008545
5.959866220735786,4.060104630692744
5.9799331103678925,4.070388311998402
5.999999999999999,4.076731627710348
6.020066889632107,4.079126895972769
6.040133779264214,4.077570538869391
6.060200668896321,4.072063087300103
6.080267558528428,4.062609184135698
6.100334448160535,4.049217585690561
6.120401337792642,4.0319011616050275
6.1404682274247495,4.01067689328385
6.160535117056856,3.985565871097085
6.180602006688963,3.9565932906163828
6.200668896321069,3.923788448235784
6.2207357859531776,3.88718473661486
6.240802675585284,3.846819640486544
6.260869565217391,3.8027347334973864
6.280936454849498,3.754975676899682
6.301003344481605,3.7035922211006373
6.321070234113712,3.648638211302836
6.341137123745819,3.590171598755587
6.361204013377926,3.5282544594946286
6.381270903010033,3.4629530228999115
6.40133779264214,3.394337712977387
6.421404682274248,3.3224832060097267
6.441471571906354,3.247468509176413
6.461538461538461,3.1693770659885794
6.481605351170568,3.088296896018706
6.501672240802676,3.0043207785707238
6.521739130434782,2.9175464928284383
6.54180602006689,2.8280771309201067
6.561872909698996,2.736021505645208
6.581939799331103,2.6414946819086755
6.60200668896321,2.544618671051171
6.622073578595318,2.445523341519955
6.642140468227424,2.3443476195969994
6.662207357859531,2.2412410830892355
6.682274247491639,2.1363660934603717
6.702341137123746,2.0299006748281725
6.722408026755852,1.9220424426193974
6.742474916387959,1.8130140281691667
6.762541806020066,1.703070666821541
6.782608695652174,1.5925109628095737
6.80267558528428,1.4816923904315296
6.822742474916388,1.371053960204404
6.842809364548494,1.2611498601313724
6.862876254180601,1.152700039399538
6.882943143812709,1.0466668920607274
6.903010033444816,0.9443712435588535
6.9230769230769225,0.8476635356800853
6.94314381270903,0.7591583428605887
6.963210702341137,0.6824948666266938
6.983277591973244,0.6224475240014602
7.0033444816053505,0.5844602648396531
7.023411371237458,0.5731293843844824
7.0434782608695645,0.5900693677266776
7.063545150501672,0.6329838710021982
7.083612040133779,0.6969714481085293
7.103678929765886,0.7766509417213703
7.123745819397993,0.8674654527886022
7.143812709030099,0.9659954617589842
7.1638795986622075,1.0697965015531417
7.183946488294314,1.1771371667104422
7.204013377926421,1.2867767846446085
7.224080267558528,1.3978063490459416
7.2441471571906355,1.509541498208963
7.264214046822742,1.621451860307395
7.2842809364548495,1.7331143931734705
7.304347826086956,1.844182279691521
7.324414715719063,1.9543639113714466
7.34448160535117,2.06340847301556
7.364548494983278,2.1710959032979282
7.384615384615384,2.277229799315684
7.404682274247491,2.381632332231514
7.424749163879598,2.484140557640322
7.444816053511706,2.5846037073853134
7.464882943143812,2.6828811816177827
7.48494983277592,2.778841046993601
7.505016722408026,2.8723589051566014
7.525083612040134,2.963317035169781
7.545150501672239,3.0516037407131336
7.565217391304348,3.137112851776223
7.585284280936455,3.219743343902071
7.605351170568561,3.299399047544045
7.625418060200669,3.3759884269516687
7.645484949832775,3.449424412996184
7.665551839464882,3.519624278023276
7.685618729096991,3.586509543552409
7.705685618729096,3.6500059136908827
7.725752508361204,3.7100432286802696
7.74581939799331,3.7665554341747636
7.765886287625418,3.8194805627595914
7.785953177257525,3.8687607249216223
7.806020066889631,3.914342107234233
7.826086956521739,3.9561749759506784
7.846153846153847,3.9942136845433702
7.866220735785952,4.028416684000269
7.88628762541806,4.058746534910536
7.906354515050166,4.085169920550939
7.926421404682274,4.107657660331988
7.946488294314381,4.126184723085315
7.966555183946488,4.140730239776629
7.986622073578595,4.151277515316903
8.006688963210701,4.157814039220919
8.02675585284281,4.160331494930692
8.046822742474916,4.158825767683273
8.066889632107022,4.153296950861034
8.08695652173913,4.143749350818636
8.107023411371236,4.130191490237509
8.127090301003344,4.112636110116435
8.147157190635452,4.0911001705686845
8.167224080267557,4.065604850663465
8.187290969899665,4.0361755476248735
8.207357859531772,4.002841875787984
8.227424749163879,3.965637665812119
8.247491638795987,3.924600964770509
8.267558528428093,3.8797740378780374
8.2876254180602,3.831203372791542
8.307692307692307,3.778939687628671
8.327759197324415,3.723037944112236
8.347826086956522,3.6635573675719524
8.367892976588628,3.6005614759426927
8.387959866220736,3.5341181204132788
8.408026755852843,3.464299541034481
8.42809364548495,3.391182441434858
8.448160535117056,3.31484808787698
8.468227424749163,3.235382439297977
8.488294314381271,3.1528763168286353
8.508361204013378,3.067425623732536
8.528428093645484,2.9791316299698307
8.548494983277592,2.888101339981209
8.568561872909697,2.7944479682501226
8.588628762541806,2.6982915553790328
8.608695652173914,2.5997597687451703
8.628762541806019,2.4989889476687557
8.648829431438127,2.396125475499752
8.668896321070234,2.291327593233029
8.68896321070234,2.184767815973986
8.709030100334449,2.0766361821826087
8.729096989966555,1.9671446676643585
8.749163879598662,1.8565332499433738
8.769230769230768,1.7450783427952075
8.789297658862875,1.6331046810928942
8.809364548494983,1.521002294589655
8.82943143812709,1.4092510752551006
8.849498327759196,1.2984567704681818
8.869565217391303,1.1894041979031138
8.889632107023411,1.083136120298312
8.909698996655518,0.9810688853970242
8.929765886287624,0.8851555245634396
8.949832775919733,0.7980934448362116
8.96989966555184,0.7235221136415558
8.989966555183946,0.6660279735465693
9.010033444816054,0.6305932374295736
9.030100334448159,0.6211940261049828
9.050167224080267,0.639058089431675
9.070234113712376,0.6820203474475185
9.09030100334448,0.745641099154023
9.110367892976589,0.824970543579282
9.130434782608695,0.915696415694573
9.150501672240802,1.0144851932153824
9.17056856187291,1.118890695398132
9.190635451505017,1.2271431948291736
9.210702341137123,1.3379537366356293
9.23076923076923,1.4503665757513955
9.250836120401337,1.563656160603307
9.270903010033445,1.6772572176229745
9.290969899665551,1.790717581505044
9.311036789297658,1.903666213872822
9.331103678929765,2.015791296923109
9.351170568561873,2.1268250379129023
9.37123745819398,2.23653298661148
9.391304347826086,2.3447064248979466
9.411371237458194,2.4511568756959314
9.4314381270903,2.555712093918332
9.451505016722408,2.6582131076783937
9.471571906354516,2.7585120134293675
9.49163879598662,2.856470318954508
9.511705685618729,2.9519576890517696
9.531772575250837,3.0448509903995418
9.551839464882942,3.13503356090698
9.57190635451505,3.2223946490357083
9.591973244147155,3.3068289828804467
9.612040133779264,3.3882364390415045
9.632107023411372,3.4665217887406263
9.652173913043477,3.5415945040573584
9.672240802675585,3.613368611170282
9.692307692307692,3.6817625804737424
9.712374581939798,3.7466992456862416
9.732441471571907,3.8081057457690446
9.752508361204013,3.86591348477524
9.77257525083612,3.9200581057518025
9.792642140468226,3.9704794755957713
9.812709030100335,4.017121678374204
9.832775919732441,4.059933015097521
9.852842809364548,4.098866008316397
9.872909698996656,4.133877410217515
9.89297658862876,4.164928213139079
9.91304347826087,4.191983661627517
9.933110367892976,4.215013265321237
9.953177257525082,4.233990812084396
9.97324414715719,4.2488943809291
9.993311036789297,4.25970635436329
10.013377926421404,4.266413429887904
10.033444816053512,4.269006630443902
10.053511705685617,4.267481313680025
10.073578595317725,4.261837179978512
10.093645484949834,4.252078279240291
10.113712374581938,4.238213016495682
10.133779264214047,4.220254156473165
10.153846153846153,4.198218827330194
10.17391304347826,4.1721285238277614
10.193979933110368,4.1420091103180985
10.214046822742475,4.10789082401539
10.234113712374581,4.069808279136337
10.254180602006688,4.027800472636486
10.274247491638796,3.98191079243446
10.294314381270903,3.9321870292182233
10.31438127090301,3.8786813931743906
10.334448160535118,3.82145053728654
10.354515050167223,3.7605555892277907
10.37458193979933,3.696062194348156
10.394648829431437,3.6280405728574086
10.414715719063544,3.5565655950669264
10.434782608695652,3.481716879530913
10.454849498327757,3.403578920186966
10.474916387959865,3.3222412502328496
10.494983277591974,3.237798652618859
10.515050167224079,3.1503514298625594
10.535117056856187,3.0600057496542474
10.555183946488295,2.9668740877689173
10.5752508361204,2.8710757966340066
10.595317725752508,2.7727378372407205
10.615384615384615,2.671995724972621
10.635451505016722,2.568994757887063
10.65551839464883,2.4638916212853466
10.675585284280936,2.356856498430286
10.695652173913043,2.24807586912577
10.71571906354515,2.1377562533448127
10.735785953177256,2.026129268120711
10.755852842809364,1.9134585308861294
10.775919732441471,1.8000491896363675
10.795986622073578,1.6862612327276805
10.816053511705684,1.5725282923638852
10.836120401337793,1.4593844934918736
10.856187290969899,1.3475031145822973
