Time (s),Filtered Signal
0.0,0.03819360992032651
0.03337028824833703,-0.3257931019244116
0.06674057649667406,-0.6223999423641384
0.10011086474501109,-0.8059596355507005
0.13348115299334812,-0.8659245333216129
0.16685144124168516,-0.8264685997115456
0.20022172949002218,-0.7333599239986318
0.2335920177383592,-0.6341620707180919
0.26696230598669624,-0.5602509193431169
0.3003325942350333,-0.5178863533354954
0.3337028824833703,-0.49131347344677506
0.3670731707317073,-0.45545622241673506
0.40044345898004435,-0.39153543133616897
0.4338137472283814,-0.2977846035672636
0.4671840354767184,-0.19000415482112976
0.5005543237250555,-0.09195419612814389
0.5339246119733925,-0.021035091752699943
0.5672949002217295,0.022556724771767435
0.6006651884700666,0.05669871056414668
0.6340354767184035,0.10718983924113143
0.6674057649667406,0.19180993693423115
0.7007760532150776,0.30733401317967124
0.7341463414634146,0.4268860974381424
0.7675166297117517,0.5095409264540435
0.8008869179600887,0.5176345290609212
0.8342572062084257,0.4334202400913494
0.8676274944567628,0.26741154936356315
0.9009977827050998,0.05523938635594091
0.9343680709534368,-0.1546061858469135
0.9677383592017739,-0.3161497688921756
1.001108647450111,-0.39824699733304314
1.0344789356984478,-0.3904010026267937
1.067849223946785,-0.30220516368212463
1.101219512195122,-0.15878907545614102
1.134589800443459,0.005314161632278067
1.167960088691796,0.15284194160690986
1.2013303769401331,0.2511067503783203
1.23470066518847,0.2797182082092344
1.268070953436807,0.23702720673566494
1.3014412416851442,0.14237573582100954
1.3348115299334813,0.03173214725429591
1.3681818181818182,-0.053215659016300515
1.4015521064301553,-0.07915336380868179
1.4349223946784924,-0.032923375717027976
1.4682926829268292,0.07406681825611505
1.5016629711751663,0.21083219065415598
1.5350332594235034,0.3389800951559395
1.5684035476718403,0.42659104843441026
1.6017738359201774,0.4578181092185887
1.6351441241685145,0.4347383448692711
1.6685144124168514,0.3721074861268327
1.7018847006651885,0.2889502049703863
1.7352549889135256,0.2015209160094668
1.7686252771618625,0.12010249085298985
1.8019955654101996,0.049166484748573276
1.8353658536585367,-0.011251177173206752
1.8687361419068735,-0.064629744701096
1.9021064301552106,-0.11745661461013589
1.9354767184035477,-0.17787490517468935
1.9688470066518848,-0.2525865085659269
2.002217294900222,-0.34271440745848286
2.035587583148559,-0.4408352772407303
2.0689578713968957,-0.5315276803065719
2.102328159645233,-0.5962085151348523
2.13569844789357,-0.6205633080653145
2.1690687361419068,-0.6009956343021106
2.202439024390244,-0.5465061472583488
2.235809312638581,-0.4745184943737683
2.269179600886918,-0.4023624053068714
2.302549889135255,-0.33861761606644436
2.335920177383592,-0.27884974879009966
2.369290465631929,-0.20818360435691635
2.4026607538802662,-0.109762921896229
2.436031042128603,0.024800273243444748
2.46940133037694,0.18796589235572098
2.5027716186252773,0.3555908621756489
2.536141906873614,0.4939944032366695
2.569512195121951,0.5723944564458227
2.6028824833702884,0.5757952030296303
2.6362527716186253,0.512668658487392
2.6696230598669626,0.4134063592452422
2.7029933481152995,0.31922990867149315
2.7363636363636363,0.26566610193148454
2.7697339246119737,0.26768741660564005
2.8031042128603105,0.3133775931000299
2.8364745011086474,0.3692472437367975
2.8698447893569847,0.3948479500363662
2.9032150776053216,0.35998941089380954
2.9365853658536585,0.25692264751400745
2.969955654101996,0.10262842066009538
3.0033259423503327,-0.06885204386351766
3.0366962305986696,-0.21983630465139153
3.070066518847007,-0.32213104928728964
3.1034368070953438,-0.3648459176084908
3.1368070953436806,-0.35473976428412457
3.170177383592018,-0.3101474270538594
3.203547671840355,-0.2517945572215526
3.2369179600886917,-0.1945461248934941
3.270288248337029,-0.1433660852731439
3.303658536585366,-0.09484348237676586
3.337028824833703,-0.04314153878817623
3.37039911308204,0.012978790519107133
3.403769401330377,0.06622759618039227
3.437139689578714,0.10273878119910315
3.470509977827051,0.10937868602727485
3.503880266075388,0.08226650878600837
3.537250554323725,0.03081827448072057
3.5706208425720622,-0.026307138331491075
3.603991130820399,-0.07199407180917826
3.637361419068736,-0.1018750286360691
3.6707317073170733,-0.1282426200783896
3.70410199556541,-0.1726601293104643
3.737472283813747,-0.25022909099316193
3.7708425720620844,-0.3543926271220597
3.8042128603104213,-0.4520599269636341
3.8375831485587586,-0.4938069268208924
3.8709534368070955,-0.43569419008560906
3.9043237250554323,-0.26249318312165487
3.9376940133037697,-0.0005614601349698523
3.9710643015521065,0.2869153717230429
4.004434589800444,0.5213826010978686
4.037804878048781,0.638253251117792
4.071175166297118,0.6115193431480235
4.1045454545454545,0.4630975287324791
4.137915742793791,0.25319641024789896
4.171286031042128,0.05628444892108026
4.204656319290466,-0.06686072708585881
4.238026607538803,-0.08955463492435048
4.27139689578714,-0.024609455650699604
4.304767184035477,0.0858682982855978
4.3381374722838135,0.1904378791858661
4.371507760532151,0.24885271034047585
4.404878048780488,0.24486250841539736
4.438248337028825,0.18731781090554
4.471618625277162,0.10111587104371893
4.504988913525499,0.013648997339860835
4.538359201773836,-0.056539463359487514
4.571729490022173,-0.10430447663731829
4.60509977827051,-0.1349739910050781
4.638470066518847,-0.15696842632116143
4.671840354767184,-0.17481192650038804
4.705210643015521,-0.18662058641709134
4.738580931263858,-0.1872369453061337
4.771951219512196,-0.17458295166979634
4.8053215077605325,-0.15453198634737164
4.838691796008869,-0.14020400365688906
4.872062084257206,-0.1450463135884349
4.905432372505543,-0.17342076874055468
4.93880266075388,-0.2147918800792328
4.972172949002218,-0.24612307841876271
5.005543237250555,-0.2423496038146128
5.0389135254988915,-0.1896936619481927
5.072283813747228,-0.09441134107172999
5.105654101995565,0.018210451649720148
5.139024390243902,0.11446017557750748
5.17239467849224,0.16702275166672245
5.205764966740577,0.16649736570215848
5.239135254988914,0.12415166250692991
5.2725055432372505,0.0653302911980032
5.305875831485587,0.017739361950817677
5.339246119733925,0.0008588290585332549
5.372616407982262,0.02107984956702878
5.405986696230599,0.07321979508932279
5.439356984478936,0.14555885421043535
5.472727272727273,0.2246112306814427
5.5060975609756095,0.2975978509480369
5.539467849223947,0.353229137765734
5.572838137472284,0.38277037785935336
5.606208425720621,0.38254762842497325
5.639578713968958,0.35692296694002484
5.672949002217295,0.3191374504854345
5.706319290465632,0.28769475002266215
5.7396895787139695,0.27820730449980324
5.773059866962306,0.293588164179512
5.806430155210643,0.3173674217393001
5.83980044345898,0.3144967431574297
5.873170731707317,0.241226675896761
5.906541019955654,0.06163423048605832
5.939911308203992,-0.23506946093699327
5.9732815964523285,-0.6235408509335414
6.006651884700665,-1.0429094079490169
6.040022172949002,-1.4100535002512045
6.073392461197339,-1.6417608963799872
6.106762749445676,-1.678648644248317
6.140133037694014,-1.5031684261471074
6.173503325942351,-1.1460705111541596
6.2068736141906875,-0.6791387353738565
6.240243902439024,-0.19567741120083876
6.273614190687361,0.21641694865155345
6.306984478935698,0.5014352114070321
6.340354767184036,0.6535787929450171
6.373725055432373,0.7180089289351461
6.40709534368071,0.7723253112603166
6.4404656319290465,0.8929409305285819
6.473835920177383,1.118141874074983
6.507206208425721,1.4232721862491837
6.540576496674058,1.7207228942688608
6.573946784922395,1.8881611664525437
6.607317073170732,1.8160291499768881
6.640687361419069,1.4554438441013575
6.674057649667406,0.8455863927773205
6.707427937915743,0.10739664705041979
6.74079822616408,-0.5952264337876325
6.774168514412417,-1.1113124418575353
6.807538802660754,-1.3532166047850054
6.840909090909091,-1.3219242114989989
6.874279379157428,-1.0987949165820896
6.9076496674057655,-0.8090711771296348
6.941019955654102,-0.5729916969348504
6.974390243902439,-0.4637913604748965
7.007760532150776,-0.48762774366052597
7.041130820399113,-0.5908623069232531
7.07450110864745,-0.6892472175801412
7.107871396895788,-0.705719487742763
7.1412416851441245,-0.6014953764251462
7.174611973392461,-0.3892443241008994
7.207982261640798,-0.12507089037725516
7.241352549889135,0.11567541940494255
7.274722838137472,0.2682669644878449
7.30809312638581,0.3025659498120795
7.341463414634147,0.23258127417870406
7.3748337028824835,0.10879206856827593
7.40820399113082,-0.0032588333256581333
7.441574279379157,-0.04958533446568367
7.474944567627494,-0.009005048257985539
7.508314855875832,0.09974954973399197
7.541685144124169,0.22834448582831518
7.575055432372506,0.3225365297172388
7.6084257206208425,0.3489836793460031
7.641796008869179,0.31281440347923195
7.675166297117517,0.25708718219673593
7.708536585365854,0.2432626241526511
7.741906873614191,0.3208310350496193
7.775277161862528,0.49994177588853383
7.808647450110865,0.7402159283858389
7.842017738359202,0.9618699390783482
7.875388026607539,1.0750928515315339
7.908758314855876,1.015260238828889
7.942128603104213,0.7690618966780657
7.97549889135255,0.3809435891283832
8.008869179600888,-0.06201030706406477
8.042239467849225,-0.45981101371178873
8.075609756097561,-0.7319369008601869
8.108980044345898,-0.8407218839187849
8.142350332594235,-0.7988580495452139
8.175720620842572,-0.6604807286414097
8.209090909090909,-0.5005833089679597
8.242461197339246,-0.39017434533741285
8.275831485587583,-0.37460837280797366
8.30920177383592,-0.46074197912557746
8.342572062084257,-0.6158976207492031
8.375942350332595,-0.7786280788682001
8.409312638580932,-0.8783172582384932
8.442682926829269,-0.8581661817023807
8.476053215077606,-0.6947291173442219
8.509423503325943,-0.40754774702765223
8.54279379157428,-0.05494553141894108
8.576164079822616,0.2836235922777563
8.609534368070953,0.5333559445222246
8.64290465631929,0.6491075554013788
8.676274944567627,0.6302991573304096
8.709645232815964,0.5197484982164943
8.743015521064303,0.38652802302035216
8.77638580931264,0.2992607874588942
8.809756097560976,0.3001554041219143
8.843126385809313,0.38985254015918874
8.87649667405765,0.5288125315395635
8.909866962305987,0.6542243674948802
8.943237250554324,0.7050707597228864
8.97660753880266,0.6448522016493442
9.009977827050998,0.47304819538556925
9.043348115299334,0.22193805883049977
9.076718403547671,-0.05787464167075702
9.110088691796008,-0.31542125913221813
9.143458980044347,-0.512915963496169
9.176829268292684,-0.6308748365433556
9.21019955654102,-0.6659291486401291
9.243569844789358,-0.6256632181253805
9.276940133037694,-0.5244897744186668
9.310310421286031,-0.38169386419769047
9.343680709534368,-0.2199468302790116
9.377050997782705,-0.062060517703718565
9.410421286031042,0.07423269949168042
9.443791574279379,0.1809540308730864
9.477161862527716,0.26049468239145956
9.510532150776053,0.32061404198044674
9.543902439024391,0.36608762965476116
9.577272727272728,0.3922702866972507
9.610643015521065,0.3855465365449938
9.644013303769402,0.3317114299886708
9.677383592017739,0.22800608216895807
9.710753880266076,0.09129891459584472
9.744124168514412,-0.04383832631437219
9.77749445676275,-0.13800889537825053
9.810864745011086,-0.16515173181796863
9.844235033259423,-0.12656948134348012
9.87760532150776,-0.052827040745836766
9.910975609756099,0.008485547293610163
9.944345898004435,0.013779671416440827
9.977716186252772,-0.05679615336463281
10.01108647450111,-0.19054952286935703
10.044456762749446,-0.3485782243754558
10.077827050997783,-0.48385111666924774
10.11119733924612,-0.5618042939701218
10.144567627494457,-0.5731938559050391
10.177937915742794,-0.5332610375681366
10.21130820399113,-0.4686317446813387
10.244678492239467,-0.3998598851991939
10.278048780487804,-0.32963452573139823
10.311419068736143,-0.24323355158169171
10.34478935698448,-0.12068541050937551
10.378159645232817,0.046726232777684236
10.411529933481154,0.2455902127231237
10.44490022172949,0.44191264089923193
10.478270509977827,0.5946708598116355
10.511640798226164,0.6740066538197258
10.545011086474501,0.6741052904291083
10.578381374722838,0.6140816021463045
10.611751662971175,0.5271924441548748
10.645121951219512,0.44505967342756747
10.67849223946785,0.38556171880064627
10.711862527716187,0.34981867512982295
10.745232815964524,0.3277175831846831
10.778603104212861,0.30665924162979424
10.811973392461198,0.27748318841342273
10.845343680709535,0.23481279291132415
10.878713968957872,0.1737110090964937
10.912084257206208,0.08723185810561492
10.945454545454545,-0.03153213539018084
10.978824833702882,-0.18306179292963562
11.012195121951219,-0.35462730722336633
11.045565410199556,-0.5182761991365294
11.078935698447895,-0.6366258198694994
11.112305986696231,-0.6753218350907038
11.145676274944568,-0.617217754127296
11.179046563192905,-0.47190803597424125
11.212416851441242,-0.27587734923666496
11.245787139689579,-0.08238945151348884
11.279157427937916,0.055456394961636166
11.312527716186253,0.10222119917613437
11.34589800443459,0.05166694739751923
11.379268292682926,-0.07177875743070507
11.412638580931263,-0.22185835093329362
11.4460088691796,-0.3460662093105377
11.479379157427939,-0.40220253601315337
11.512749445676276,-0.37018910253730825
11.546119733924613,-0.2556230728626412
11.57949002217295,-0.08491748454791671
11.612860310421286,0.10496280629801874
11.646230598669623,0.2775622945759771
11.67960088691796,0.40481322781995416
11.712971175166297,0.4701477167318774
11.746341463414634,0.4679964615198358
11.77971175166297,0.4022878194756677
11.813082039911308,0.2859346255659788
11.846452328159646,0.14113885758654673
11.879822616407983,-0.0017083255850698406
11.91319290465632,-0.10902871083059487
11.946563192904657,-0.15340928069681148
11.979933481152994,-0.12444719932029213
12.01330376940133,-0.03579615397042613
12.046674057649668,0.07653975691677133
12.080044345898004,0.16608202967606342
12.113414634146341,0.19413096690145654
12.146784922394678,0.1465537644932384
12.180155210643015,0.04095055979744839
12.213525498891352,-0.07989233977316097
12.24689578713969,-0.16582210503749367
12.280266075388028,-0.18044044862211706
12.313636363636364,-0.11596505897431458
12.347006651884701,0.004645028095345499
12.380376940133038,0.13873319953651048
12.413747228381375,0.2426256976414142
12.447117516629712,0.28929430135330464
12.480487804878049,0.2773426661270467
12.513858093126386,0.22808592591011395
12.547228381374723,0.17309059334155827
12.58059866962306,0.13859646573537393
12.613968957871396,0.1339836807236421
12.647339246119735,0.14889780672824462
12.680709534368072,0.15939414805564772
12.714079822616409,0.1396152755540354
12.747450110864746,0.07360806347231509
12.780820399113082,-0.03762184121330489
12.81419068736142,-0.17634108739323906
12.847560975609756,-0.3149659770805723
12.880931263858093,-0.42628500906788713
12.91430155210643,-0.4926089731314548
12.947671840354767,-0.5102628031622732
12.981042128603104,-0.48815896582587365
13.014412416851442,-0.4418783140072925
13.04778270509978,-0.38647376014749896
13.081152993348116,-0.33134581125551227
13.114523281596453,-0.2790916643891581
13.14789356984479,-0.22801908539348628
13.181263858093127,-0.1761887708281778
13.214634146341464,-0.12433149647716052
13.2480044345898,-0.07600788060853265
13.281374722838137,-0.035287579208283314
13.314745011086474,-0.0038028038326896377
13.348115299334811,0.020753818220071822
13.381485587583148,0.04386039903571073
13.414855875831487,0.07201433114028036
13.448226164079824,0.1109064653878418
13.48159645232816,0.1649051083049989
13.514966740576497,0.23723351940705534
13.548337028824834,0.329245491991632
13.581707317073171,0.43791444399099577
13.615077605321508,0.5526805755641434
13.648447893569845,0.6544688464045727
13.681818181818182,0.7192944617431354
13.715188470066519,0.7261776295236927
13.748558758314855,0.6658042964554596
13.781929046563192,0.545036971149925
13.815299334811531,0.3843709133109267
13.848669623059868,0.20964068618575088
13.882039911308205,0.042759940168372805
13.915410199556542,-0.10352655891413919
13.948780487804878,-0.22507119490846453
13.982150776053215,-0.322176764522803
14.015521064301552,-0.3959829802150983
14.048891352549889,-0.44795635792440036
14.082261640798226,-0.4816389739299947
14.115631929046563,-0.5034602547247147
14.1490022172949,-0.5201047308606941
14.182372505543238,-0.5331297745853352
14.215742793791575,-0.5346397691328199
14.249113082039912,-0.5081943031042814
14.282483370288249,-0.43612521995997794
14.315853658536586,-0.310009223999756
14.349223946784923,-0.13834158626726192
14.38259423503326,0.05345053061085693
14.415964523281596,0.23116380526512595
14.449334811529933,0.363844040316633
14.48270509977827,0.43327678924330837
14.516075388026607,0.43649298704813033
14.549445676274944,0.3814783333359761
14.582815964523283,0.28043525417200504
14.61618625277162,0.14583450126724468
14.649556541019956,-0.00840202977462053
14.682926829268293,-0.16280356016981157
14.71629711751663,-0.29046409428401737
14.749667405764967,-0.3615276610618482
14.783037694013304,-0.35379574301340677
14.81640798226164,-0.2642588421212764
14.849778270509978,-0.11435651292366905
14.883148558758315,0.05557045843058357
14.916518847006651,0.2012020254570202
14.949889135254988,0.2914702224098353
14.983259423503327,0.31934276993984123
15.016629711751664,0.3007998707231528
15.05,0.26307912893551566
15.083370288248338,0.22889680436352502
15.116740576496674,0.20507976845097248
15.150110864745011,0.1812488059055271
15.183481152993348,0.1387265242031542
15.216851441241685,0.06461192007937908
15.250221729490022,-0.036612012303670914
15.283592017738359,-0.14046237570349562
15.316962305986696,-0.21111152955476425
15.350332594235034,-0.21805175832582466
15.383702882483371,-0.15316017412543
15.417073170731708,-0.03955967072776984
15.450443458980045,0.07319780558843708
15.483813747228382,0.1270410593914664
15.517184035476719,0.07957548244084808
15.550554323725056,-0.075634985404326
15.583924611973393,-0.30176967740961663
15.61729490022173,-0.5282877696847554
15.650665188470066,-0.6741481238910162
15.684035476718403,-0.6758771519234134
15.71740576496674,-0.5097991808865543
15.750776053215079,-0.2004600945549601
15.784146341463416,0.1869271590583392
15.817516629711752,0.5662228999837867
15.85088691796009,0.854971038799775
15.884257206208426,0.9962910602842966
15.917627494456763,0.9724136879917186
15.9509977827051,0.8068518086322384
15.984368070953437,0.5547995116800044
16.017738359201775,0.2841665375013636
16.05110864745011,0.05279456846158662
16.08447893569845,-0.11016854821944373
16.117849223946784,-0.21095829453925982
16.151219512195123,-0.2822488066285799
16.184589800443458,-0.36186518950992247
16.217960088691797,-0.46901999437422504
16.251330376940132,-0.590179858204294
16.28470066518847,-0.682599802027861
16.31807095343681,-0.6947614313016418
16.351441241685144,-0.5939482990302093
16.384811529933483,-0.3869506701620934
16.418181818181818,-0.12290502322168513
16.451552106430157,0.12392190314841
16.48492239467849,0.28360833811738395
16.51829268292683,0.31853434336140485
16.551662971175165,0.2370150893879876
16.585033259423504,0.08696825139616016
16.61840354767184,-0.06652694273385108
16.651773835920178,-0.16881321407323788
16.685144124168513,-0.1958783512519333
16.71851441241685,-0.15903560248935517
16.75188470066519,-0.093618205954633
16.785254988913525,-0.0385565692551556
16.818625277161864,-0.017164494556815305
16.8519955654102,-0.02769276500325815
16.885365853658538,-0.04656574721353556
16.918736141906873,-0.04097305106362286
16.95210643015521,0.01609586876995085
16.985476718403547,0.13484286650739524
17.018847006651885,0.3047943768278274
17.05221729490022,0.49750190941862754
17.08558758314856,0.67334913486633
17.118957871396898,0.7902824426398906
17.152328159645233,0.8133851844925426
17.18569844789357,0.7244727273420244
17.219068736141907,0.5297858180954372
17.252439024390245,0.26251361823934544
17.28580931263858,-0.0229065664150473
