Frequency (Hz),Amplitude
0.0,5.606978698012791
0.020066889632107024,5.605426892879154
0.04013377926421405,5.600775024804027
0.060200668896321065,5.593033741095746
0.0802675585284281,5.58222080505846
0.10033444816053512,5.568361122746294
0.12040133779264213,5.55148678055235
0.14046822742474915,5.531637093754181
0.1605351170568562,5.50885866615546
0.1806020066889632,5.483205460967828
0.20066889632107024,5.454738883063354
0.22073578595317725,5.423527872691061
0.24080267558528426,5.38964901068557
0.2608695652173913,5.353186635093819
0.2809364548494983,5.314232968999024
0.3010033444816054,5.272888259119737
0.3210702341137124,5.229260924493596
0.34113712374581934,5.183467714206763
0.3612040133779264,5.135633872685398
0.3812709030100334,5.085893310506573
0.4013377926421405,5.034388777993343
0.42140468227424743,4.981272038010652
0.4414715719063545,4.926704033352975
0.4615384615384615,4.870855042889085
0.4816053511705685,4.813904819183143
0.5016722408026756,4.756042698629141
0.5217391304347826,4.697467673208413
0.5418060200668896,4.638388410812546
0.5618729096989966,4.579023208687543
0.5819397993311036,4.519599861999439
0.6020066889632107,4.460355426877342
0.6220735785953176,4.40153585468549
0.6421404682274248,4.34339547189051
0.6622073578595318,4.286196277967788
0.6822742474916387,4.230207032642878
0.7023411371237458,4.1757021037688276
0.7224080267558528,4.122960048734983
0.7424749163879598,4.072261905955775
0.7625418060200668,4.023889179160741
0.7826086956521738,3.9781215062895
0.802675585284281,3.935234017026019
0.8227424749163879,3.8954943983750683
0.8428093645484949,3.859159705830924
0.862876254180602,3.8264729778215645
0.882943143812709,3.79765973195796
0.903010033444816,3.77292444144666
0.923076923076923,3.7524471067552185
0.9431438127090299,3.7363800490355725
0.963210702341137,3.724845055852007
0.983277591973244,3.717931004875037
1.0033444816053512,3.7156920766804378
1.0234113712374582,3.7181466440096353
1.0434782608695652,3.725276893349139
1.0635451505016722,3.7370291980698402
1.0836120401337792,3.753315223956637
1.1036789297658862,3.7740137113428642
1.1237458193979932,3.7989728465660506
1.1438127090301002,3.8280131116781666
1.1638795986622072,3.860930486818783
1.1839464882943145,3.897499874768621
1.2040133779264215,3.9374786212327337
1.2240802675585283,3.98061001580554
1.2441471571906353,4.026626675285621
1.2642140468227423,4.075253730820415
1.2842809364548495,4.126211761190294
1.3043478260869565,4.179219434659792
1.3244147157190636,4.233995839957989
1.3444816053511706,4.290262502308939
1.3645484949832773,4.3477450926570835
1.3846153846153846,4.406174847312248
1.4046822742474916,4.465289721410518
1.4247491638795986,4.524835303243003
1.4448160535117056,4.584565518102164
1.4648829431438126,4.644243150305594
1.4849498327759196,4.703640210914609
1.5050167224080266,4.76253817674816
1.5250836120401337,4.820728123913334
1.5451505016722407,4.878010776473959
1.5652173913043477,4.934196488239961
1.5852842809364547,4.989105173108179
1.605351170568562,5.0425661970029445
1.625418060200669,5.09441824229998
1.6454849498327757,5.1445091536927015
1.6655518394648827,5.192695772779452
1.6856187290969897,5.238843767206021
1.705685618729097,5.282827458973121
1.725752508361204,5.324529655493846
1.745819397993311,5.363841486138583
1.765886287625418,5.400662246312715
1.7859531772575248,5.434899250553665
1.806020066889632,5.4664676956895555
1.826086956521739,5.495290534752759
1.846153846153846,5.52129836207391
1.866220735785953,5.54442930978007
1.8862876254180598,5.564628955773926
1.9063545150501673,5.581850243168926
1.926421404682274,5.596053411089315
1.9464882943143813,5.607205936706921
1.966555183946488,5.61528248837302
1.9866220735785953,5.62026488970724
2.0066889632107023,5.622142094523511
2.026755852842809,5.620910172500522
2.0468227424749164,5.6165723055388215
2.0668896321070234,5.609138794785015
2.0869565217391304,5.598627078343228
2.1070234113712374,5.585061759732313
2.1270903010033444,5.568474647181532
2.1471571906354514,5.5489048038846445
2.1672240802675584,5.526398609349573
2.1872909698996654,5.501009831984
2.2073578595317724,5.4727997130425035
2.2274247491638794,5.441837062022625
2.2474916387959865,5.408198363530075
2.267558528428094,5.371967895529229
2.2876254180602005,5.333237858746327
2.3076923076923075,5.29210851678877
2.3277591973244145,5.248688346272754
2.3478260869565215,5.203094195899806
2.367892976588629,5.155451452974395
2.3879598662207355,5.105894215292103
2.408026755852843,5.0545654656308185
2.4280936454849495,5.00161724522525
2.4481605351170566,4.947210821574816
2.468227424749164,4.891516844705348
2.4882943143812706,4.834715484555476
2.508361204013378,4.776996540473668
2.5284280936454846,4.7185595118837425
2.548494983277592,4.659613617010106
2.568561872909699,4.600377744172024
2.5886287625418056,4.541080317608038
2.608695652173913,4.481959057160531
2.6287625418060196,4.42326060856394
2.648829431438127,4.365240018719384
2.668896321070234,4.30816002844733
2.688963210702341,4.252290154099005
2.709030100334448,4.197905529454873
2.7290969899665547,4.145285480977566
2.749163879598662,4.094711813183899
2.769230769230769,4.046466787110329
2.789297658862876,4.000830783953025
2.809364548494983,3.9580796581982685
2.82943143812709,3.918481799903411
2.849498327759197,3.8822949438786303
2.869565217391304,3.8497627835592856
2.8896321070234112,3.821111468078137
2.9096989966555182,3.79654608072376
2.9297658862876252,3.77624721354154
2.9498327759197323,3.7603677641010735
2.9698996655518393,3.7490300843826914
2.9899665551839463,3.7423236067984615
3.0100334448160533,3.7403030578653804
3.0301003344481603,3.742987346372353
3.0501672240802673,3.7503591815669117
3.0702341137123748,3.762365440507125
3.0903010033444813,3.7789182655731786
3.1103678929765888,3.7998968367613557
3.1304347826086953,3.825149732082734
3.1505016722408024,3.8544977657287163
3.1705685618729094,3.8877371791788344
3.1906354515050164,3.924643055490091
3.210702341137124,3.9649728309239034
3.2307692307692304,4.008469789308116
3.250836120401338,4.054866441064026
3.270903010033445,4.10388770845902
3.2909698996655514,4.15525385931548
3.311036789297659,4.208683151397473
3.3311036789297654,4.263894167743538
3.351170568561873,4.320607838523022
3.3712374581939795,4.3785491572023
3.391304347826087,4.437448607897975
3.411371237458194,4.497043326997466
3.4314381270903005,4.55707802582543
3.451505016722408,4.617305702781199
3.471571906354515,4.677488173431613
3.491638795986622,4.737396445947393
3.511705685618729,4.7968109673958
3.531772575250836,4.855521764058091
3.551839464882943,4.9133284963691
3.5719063545150496,4.970040446459848
3.591973244147157,5.025476453748676
3.612040133779264,5.079464811655922
3.632107023411371,5.131843136360155
3.652173913043478,5.182458216593869
3.672240802675585,5.231165851798169
3.692307692307692,5.277830684511822
3.712374581939799,5.322326031644164
3.732441471571906,5.364533718254553
3.752508361204013,5.404343916611059
3.7725752508361197,5.441654992605591
3.7926421404682276,5.476373361041181
3.8127090301003346,5.508413350859502
3.832775919732441,5.537697081024983
3.852842809364548,5.5641543475111845
3.872909698996655,5.587722521630908
3.8929765886287626,5.608346459802053
3.9130434782608696,5.625978424737477
3.933110367892976,5.640578017978802
3.953177257525083,5.652112123655689
3.9732441471571907,5.660554863336622
3.9933110367892977,5.665887561839664
4.013377926421405,5.6680987238880824
4.033444816053511,5.667184021522157
4.053511705685618,5.66314629221155
4.073578595317726,5.655995547649873
4.093645484949833,5.645748993251423
4.113712374581939,5.632431058406822
4.133779264214047,5.616073437586982
4.153846153846153,5.59671514241033
4.173913043478261,5.5744025648034805
4.193979933110368,5.5491895513862035
4.214046822742475,5.521137489194415
4.234113712374581,5.490315402813507
4.254180602006689,5.456800062923675
4.274247491638796,5.42067610615054
4.294314381270903,5.382036165961589
4.314381270903009,5.340981014138921
4.334448160535117,5.297619712082116
4.354515050167224,5.252069770836916
4.374581939799331,5.204457318289287
4.394648829431437,5.154917271394292
4.414715719063545,5.10359351060409
4.434782608695651,5.050639052798415
4.454849498327759,4.9962162179830205
4.474916387959866,4.940496783784194
4.494983277591973,4.883662120312148
4.5150501672240795,4.825903296277422
4.535117056856188,4.767421145316342
4.555183946488294,4.708426279319636
4.575250836120401,4.64913903318791
4.595317725752508,4.5897893229089535
4.615384615384615,4.530616396250596
4.635451505016722,4.471868452817975
4.655518394648829,4.413802107918216
4.6755852842809364,4.356681672852549
4.695652173913043,4.3007782232262
4.71571906354515,4.246368427004907
4.735785953177258,4.193733105782048
4.7558528428093645,4.143155506510033
4.775919732441471,4.094919267237871
4.795986622073578,4.049306069554344
4.816053511705686,4.006592982677749
4.8361204013377925,3.967049519427475
4.856187290969899,3.9309344422818238
4.8762541806020065,3.8984923775711495
4.896321070234113,3.8699503163096143
4.916387959866221,3.8455140995290344
4.936454849498328,3.8253650022110004
4.956521739130435,3.809656540865852
4.976588628762541,3.798511633492397
4.996655518394649,3.792020235589559
5.016722408026756,3.790237561420221
5.036789297658863,3.7931829762438456
5.056856187290969,3.8008396142629213
5.076923076923077,3.8131547411026547
5.096989966555184,3.8300408419966145
5.117056856187291,3.8513773809629326
5.137123745819398,3.877013145349992
5.157190635451505,3.9067690667285033
5.177257525083611,3.94044139471537
5.197324414715719,3.9778050953138067
5.217391304347826,4.018617349072546
5.237458193979933,4.062621035317346
5.257525083612039,4.109548104905475
5.277591973244148,4.159122763250592
5.297658862876254,4.211064405738071
5.317725752508361,4.265090267405839
5.337792642140468,4.320917766646938
5.357859531772575,4.3782665379057715
5.377926421404682,4.436860160517865
5.397993311036789,4.496427599953356
5.418060200668896,4.556704383983617
5.438127090301003,4.61743354006624
5.458193979933109,4.678366321978783
5.478260869565218,4.73926275388062
5.498327759197324,4.799892018970015
5.518394648829431,4.860032718103338
5.538461538461538,4.919473021461897
5.558528428093646,4.978010733832566
5.578595317725752,5.0354532914911365
5.598662207357859,5.0916177061717445
5.618729096989966,5.146330469255042
5.638795986622073,5.199427427164226
5.65886287625418,5.250753637044623
5.678929765886288,5.300163210126925
5.698996655518394,5.3475191487290745
5.719063545150501,5.392693181622846
5.739130434782608,5.435565601459819
5.759197324414716,5.4760251070955475
5.7792642140468224,5.513968652949483
5.799331103678929,5.549301306970528
5.8193979933110365,5.581936118324105
5.839464882943144,5.611793995559695
5.8595317725752505,5.638803595741306
5.879598662207358,5.662901224814313
5.8996655518394645,5.684030749328513
5.919732441471571,5.702143519528791
5.9397993311036785,5.717198303753536
5.959866220735786,5.729161234038837
5.9799331103678925,5.738005762808152
5.999999999999999,5.743712630527008
6.020066889632107,5.746269844216123
6.040133779264214,5.745672666740496
6.060200668896321,5.7419236168227465
6.080267558528428,5.735032479764315
6.100334448160535,5.725016328893631
6.120401337792642,5.711899557795328
6.1404682274247495,5.695713923404332
6.160535117056856,5.676498600071384
6.180602006688963,5.654300244718457
6.200668896321069,5.62917307319991
6.2207357859531776,5.601178947963441
6.240802675585284,5.570387477058984
6.260869565217391,5.536876124467142
6.280936454849498,5.500730331604957
6.301003344481605,5.46204364970517
6.321070234113712,5.420917882548647
6.341137123745819,5.377463238742681
6.361204013377926,5.331798492369688
6.381270903010033,5.284051150363887
6.40133779264214,5.2343576243911425
6.421404682274248,5.182863404289356
6.441471571906354,5.129723229253496
6.461538461538461,5.075101251898734
6.481605351170568,5.019171189086811
6.501672240802676,4.9621164519364775
6.521739130434782,4.904130245745363
6.54180602006689,4.845415628622279
6.561872909698996,4.786185515475647
6.581939799331103,4.726662611650984
6.60200668896321,4.667079258012661
6.622073578595318,4.607677166710697
6.642140468227424,4.548707024393042
6.662207357859531,4.49042793740319
6.682274247491639,4.433106691785726
6.702341137123746,4.377016800018192
6.722408026755852,4.322437306667044
6.742474916387959,4.269651327049022
6.762541806020066,4.21894429691329
6.782608695652174,4.1706019175709
6.80267558528428,4.124907790137157
6.822742474916388,4.082140744811785
6.842809364548494,4.042571886345549
6.862876254180601,4.00646139463742
6.882943143812709,3.9740551389635166
6.903010033444816,3.945581184400185
6.9230769230769225,3.921246287890005
6.94314381270903,3.9012324971241767
6.963210702341137,3.8856939758860287
6.983277591973244,3.874754182805525
7.0033444816053505,3.8685035251995603
7.023411371237458,3.866997595210568
7.0434782608695645,3.8702560722230768
7.063545150501672,3.878262345041281
7.083612040133779,3.890963872028633
7.103678929765886,3.908273260488525
7.123745819397993,3.930070011381499
7.143812709030099,3.9562028451566222
7.1638795986622075,3.9864925014699097
7.183946488294314,4.02073489133927
7.204013377926421,4.0587044752239025
7.224080267558528,4.10015774397859
7.2441471571906355,4.144836690190946
7.264214046822742,4.19247217314408
7.2842809364548495,4.242787099475867
7.304347826086956,4.295499361556651
7.324414715719063,4.350324495022384
7.34448160535117,4.406978034539936
7.364548494983278,4.465177561955146
7.384615384615384,4.524644453099847
7.404682274247491,4.585105338664349
7.424749163879598,4.646293300873562
7.444816053511706,4.707948831585956
7.464882943143812,4.769820579291779
7.48494983277592,4.831665912759917
7.505016722408026,4.893251328189112
7.525083612040134,4.954352725024009
7.545150501672239,5.014755573405014
7.565217391304348,5.074254993774089
7.585284280936455,5.132655766638321
7.605351170568561,5.189772288029082
7.625418060200669,5.2454284838734875
7.645484949832775,5.299457694369313
7.665551839464882,5.351702537551915
7.685618729096991,5.4020147595693615
7.705685618729096,5.450255077735818
7.725752508361204,5.496293021200254
7.74581939799331,5.540006773028622
7.765886287625418,5.581283016634464
7.785953177257525,5.620016788782663
7.806020066889631,5.65611134081413
7.826086956521739,5.689478009277053
7.846153846153847,5.720036096784727
7.866220735785952,5.747712763635721
7.88628762541806,5.77244293051618
7.906354515050166,5.794169192443742
7.926421404682274,5.812841743998537
7.946488294314381,5.828418315809756
7.966555183946488,5.840864122220057
7.986622073578595,5.85015182002691
8.006688963210701,5.856261478196324
8.02675585284281,5.859180558454632
8.046822742474916,5.8589039066845645
8.066889632107022,5.855433755079873
8.08695652173913,5.848779735044303
8.107023411371236,5.838958900853522
8.127090301003344,5.825995764129888
8.147157190635452,5.809922339206002
8.167224080267557,5.790778199471925
8.187290969899665,5.7686105448082765
8.207357859531772,5.743474280199383
8.227424749163879,5.715432105593405
8.247491638795987,5.684554617023611
8.267558528428093,5.650920418920738
8.2876254180602,5.614616247423386
8.307692307692307,5.5757371043226645
8.327759197324415,5.534386401048146
8.347826086956522,5.490676111803721
8.367892976588628,5.444726934578741
8.387959866220736,5.396668458277871
8.408026755852843,5.346639333614104
8.42809364548495,5.29478744467401
8.448160535117056,5.2412700771735885
8.468227424749163,5.1862540783553
8.488294314381271,5.129916002213215
8.508361204013378,5.072442232256307
8.528428093645484,5.014029072319537
8.548494983277592,4.954882794004012
8.568561872909697,4.89521962718471
8.588628762541806,4.835265677695786
8.608695652173914,4.775256753847644
8.628762541806019,4.715438080938039
8.648829431438127,4.656063880527215
8.668896321070234,4.597396789141055
8.68896321070234,4.539707089492523
8.709030100334449,4.483271726577526
8.729096989966555,4.428373081471628
8.749163879598662,4.375297477740605
8.769230769230768,4.324333399509042
8.789297658862875,4.275769406813875
8.809364548494983,4.229891743226679
8.82943143812709,4.186981643021346
8.849498327759196,4.147312360308605
8.869565217391303,4.111145960137125
8.889632107023411,4.078729930752915
8.909698996655518,4.050293695763097
8.929765886287624,4.026045123220821
8.949832775919733,4.006167143704912
8.96989966555184,3.9908145992995343
8.989966555183946,3.98011144816483
9.010033444816054,3.974148443804198
9.030100334448159,3.972981393639664
9.050167224080267,3.976630078550636
9.070234113712376,3.985077885101758
9.09030100334448,3.9982721676945565
9.110367892976589,4.016125321862456
9.130434782608695,4.03851651564202
9.150501672240802,4.06529399639913
9.17056856187291,4.096277868019356
9.190635451505017,4.1312632194019825
9.210702341137123,4.170023480102805
9.23076923076923,4.212313882151917
9.250836120401337,4.257874917169645
9.270903010033445,4.3064356930795995
9.290969899665551,4.357717112970629
9.311036789297658,4.411434818084389
9.331103678929765,4.467301855888558
9.351170568561873,4.525031051523015
9.37123745819398,4.5843370757895405
9.391304347826086,4.644938214902334
9.411371237458194,4.706557856360033
9.4314381270903,4.768925711711065
9.451505016722408,4.831778800990189
9.471571906354516,4.894862225607113
9.49163879598662,4.957929756894539
9.511705685618729,5.020744266774542
9.531772575250837,5.0830780254393
9.551839464882942,5.144712888863102
9.57190635451505,5.20544039660811
9.591973244147155,5.265061797938492
9.612040133779264,5.323388021847252
9.632107023411372,5.3802396043168805
9.652173913043477,5.435446584034031
9.672240802675585,5.488848375889226
9.692307692307692,5.540293629925998
9.712374581939798,5.5896400819565235
9.732441471571907,5.636754400822491
9.752508361204013,5.681512036233304
9.77257525083612,5.723797070239716
9.792642140468226,5.763502074680138
9.812709030100335,5.800527976348743
9.832775919732441,5.834783931160815
9.852842809364548,5.866187208214736
9.872909698996656,5.89466308435595
9.89297658862876,5.920144749622647
9.91304347826087,5.94257322378463
9.933110367892976,5.961897284065025
9.953177257525082,5.978073404050761
9.97324414715719,5.991065703745279
9.993311036789297,6.0008459106885255
10.013377926421404,6.0073933320601185
10.033444816053512,6.010694837687617
10.053511705685617,6.010744853897844
10.073578595317725,6.0075453681727895
10.093645484949834,6.0011059445994945
10.113712374581938,5.991443750131455
10.133779264214047,5.9785835917061085
10.153846153846153,5.962557964284317
10.17391304347826,5.943407109891161
10.193979933110368,5.921179087738967
10.214046822742475,5.895929855498816
10.234113712374581,5.867723361751634
10.254180602006688,5.8366316495885275
10.274247491638796,5.802734971235916
10.294314381270903,5.766121913446063
10.31438127090301,5.726889533210139
10.334448160535118,5.685143503106837
10.354515050167223,5.6409982652840505
10.37458193979933,5.594577192670119
10.394648829431437,5.546012755508371
10.414715719063544,5.495446690688258
10.434782608695652,5.443030170588502
10.454849498327757,5.388923967233394
10.474916387959865,5.333298606473543
10.494983277591974,5.276334505617938
10.515050167224079,5.218222086451224
10.535117056856187,5.159161853858913
10.555183946488295,5.099364428354821
10.5752508361204,5.039050518674062
10.595317725752508,4.978450818296725
10.615384615384615,4.917805807362812
10.635451505016722,4.857365439026327
10.65551839464883,4.797388687013712
10.675585284280936,4.738142929190953
10.695652173913043,4.679903140550774
10.71571906354515,4.622950868511778
10.735785953177256,4.567572964135351
10.755852842809364,4.514060045210151
10.775919732441471,4.462704671539429
10.795986622073578,4.413799219573671
10.816053511705684,4.3676334530467615
10.836120401337793,4.324491798627292
10.856187290969899,4.2846503506629965
10.876254180602006,4.24837364643013
10.896321070234114,4.215911272064528
10.916387959866219,4.187494378303778
10.936454849498327,4.163332202700569
10.956521739130435,4.143608709211922
10.97658862876254,4.128479465111233
10.996655518394649,4.118068877296722
