Time (s),Filtered Signal
0.0,-0.002290178610396942
0.03337028824833703,0.022764554280826844
0.06674057649667406,0.031931297619010174
0.10011086474501109,0.022818686763985383
0.13348115299334812,0.012173670987295203
0.16685144124168516,0.029771721756198084
0.20022172949002218,0.10315535073490523
0.2335920177383592,0.2411176486627612
0.26696230598669624,0.4249828346078942
0.3003325942350333,0.6129754932581947
0.3337028824833703,0.7561487250061875
0.3670731707317073,0.8181505326169388
0.40044345898004435,0.78904140362786
0.4338137472283814,0.6866284975064496
0.4671840354767184,0.5454610332707349
0.5005543237250555,0.39990043819877896
0.5339246119733925,0.2701098793277023
0.5672949002217295,0.1573868715260526
0.6006651884700666,0.049780191323758424
0.6340354767184035,-0.06634398318935977
0.6674057649667406,-0.19548127937855883
0.7007760532150776,-0.3283061356210257
0.7341463414634146,-0.4448178096215012
0.7675166297117517,-0.5230981635110762
0.8008869179600887,-0.549164300117169
0.8342572062084257,-0.5234020086553326
0.8676274944567628,-0.4609488158341438
0.9009977827050998,-0.386080839614775
0.9343680709534368,-0.32297235546971276
0.9677383592017739,-0.2863412783696506
1.001108647450111,-0.2753090015113902
1.0344789356984478,-0.2726902876773973
1.067849223946785,-0.250416301013736
1.101219512195122,-0.18011516177203651
1.134589800443459,-0.046032387192022815
1.167960088691796,0.144229587512845
1.2013303769401331,0.3562866289603063
1.23470066518847,0.5363655139371366
1.268070953436807,0.6288694265255381
1.3014412416851442,0.5982369366322497
1.3348115299334813,0.44568646289664665
1.3681818181818182,0.21221961767843434
1.4015521064301553,-0.035108218366037676
1.4349223946784924,-0.2285339773164098
1.4682926829268292,-0.3251875257530031
1.5016629711751663,-0.32101061901949174
1.5350332594235034,-0.24692063209283685
1.5684035476718403,-0.15035515807205008
1.6017738359201774,-0.07263059940253441
1.6351441241685145,-0.03375218677017695
1.6685144124168514,-0.03099075318729689
1.7018847006651885,-0.04922676168084272
1.7352549889135256,-0.07486386749797787
1.7686252771618625,-0.10441644840487335
1.8019955654101996,-0.14340870196286742
1.8353658536585367,-0.19766076385228493
1.8687361419068735,-0.2634125712239823
1.9021064301552106,-0.3228638385535651
1.9354767184035477,-0.3481239779606646
1.9688470066518848,-0.31173167715510075
2.002217294900222,-0.19853367512830367
2.035587583148559,-0.013325240558904182
2.0689578713968957,0.2189657474522929
2.102328159645233,0.46016482005090975
2.13569844789357,0.669485352835648
2.1690687361419068,0.8135924850246415
2.202439024390244,0.8728449216315436
2.235809312638581,0.8427059667114264
2.269179600886918,0.7314457949044818
2.302549889135255,0.5563008010883882
2.335920177383592,0.33996688527519997
2.369290465631929,0.10812801046948296
2.4026607538802662,-0.11254221649890733
2.436031042128603,-0.29705792802070485
2.46940133037694,-0.4261421141201461
2.5027716186252773,-0.4908957723656855
2.536141906873614,-0.4960328163885309
2.569512195121951,-0.45927843314488037
2.6028824833702884,-0.4058621266576683
2.6362527716186253,-0.35953163071809574
2.6696230598669626,-0.3337418670385771
2.7029933481152995,-0.32714046502332544
2.7363636363636363,-0.325649058044176
2.7697339246119737,-0.3102191815350452
2.8031042128603105,-0.2665372548018672
2.8364745011086474,-0.19214131148719923
2.8698447893569847,-0.09792808925458743
2.9032150776053216,-0.0038434324449999127
2.9365853658536585,0.06894646798190386
2.969955654101996,0.10605208135273553
3.0033259423503327,0.1051850742821376
3.0366962305986696,0.07733035024498457
3.070066518847007,0.04364532014055087
3.1034368070953438,0.028938863255511125
3.1368070953436806,0.053318443781265046
3.170177383592018,0.12431482847035595
3.203547671840355,0.23227778995991694
3.2369179600886917,0.3514319989714788
3.270288248337029,0.4472388288975199
3.303658536585366,0.48804525495213963
3.337028824833703,0.45671527234740544
3.37039911308204,0.35744046296486814
3.403769401330377,0.21473967270618186
3.437139689578714,0.0649766828470572
3.470509977827051,-0.05614062239907137
3.503880266075388,-0.12519495673655284
3.537250554323725,-0.13770988667704748
3.5706208425720622,-0.10795472184468755
3.603991130820399,-0.06257861438668327
3.637361419068736,-0.03062811181347246
3.6707317073170733,-0.03338393526210458
3.70410199556541,-0.07736211943616413
3.737472283813747,-0.15283947535751624
3.7708425720620844,-0.23848813671435462
3.8042128603104213,-0.31049238365830883
3.8375831485587586,-0.35260429235644
3.8709534368070955,-0.3628691893588841
3.9043237250554323,-0.3537984809776733
3.9376940133037697,-0.3454175455132713
3.9710643015521065,-0.35386789873546526
4.004434589800444,-0.38063233574700084
4.037804878048781,-0.40773327381778557
4.071175166297118,-0.4020508566604337
4.1045454545454545,-0.32798604020075295
4.137915742793791,-0.16371076843892882
4.171286031042128,0.08593564898456478
4.204656319290466,0.38600481292400407
4.238026607538803,0.6797894716271441
4.27139689578714,0.906190576173183
4.304767184035477,1.019280219430121
4.3381374722838135,1.002280896673857
4.371507760532151,0.8707892465852721
4.404878048780488,0.66487683572946
4.438248337028825,0.43424988869507214
4.471618625277162,0.22279929913495367
4.504988913525499,0.05794805367590869
4.538359201773836,-0.05277627672475324
4.571729490022173,-0.11867190073726763
4.60509977827051,-0.15887944328766282
4.638470066518847,-0.1943301250351731
4.671840354767184,-0.24082603262401742
4.705210643015521,-0.30470543832643004
4.738580931263858,-0.381925877683977
4.771951219512196,-0.460629093778097
4.8053215077605325,-0.5261758113610429
4.838691796008869,-0.5666438493284448
4.872062084257206,-0.5765591018650885
4.905432372505543,-0.5574990921927251
4.93880266075388,-0.515749351440971
4.972172949002218,-0.4585170081866188
5.005543237250555,-0.39062815519357996
5.0389135254988915,-0.31310393387419105
5.072283813747228,-0.2239904832104968
5.105654101995565,-0.12085350634293962
5.139024390243902,-0.0037471347656402596
5.17239467849224,0.12268995962990845
5.205764966740577,0.24906300131900116
5.239135254988914,0.363304412600412
5.2725055432372505,0.4543602257100484
5.305875831485587,0.5159639809125022
5.339246119733925,0.5487097573547195
5.372616407982262,0.5592348035038149
5.405986696230599,0.5566215100476583
5.439356984478936,0.5475080385451004
5.472727272727273,0.5321262672733726
5.5060975609756095,0.5031855245622976
5.539467849223947,0.44837997512337213
5.572838137472284,0.35587591109206695
5.606208425720621,0.22096387803140216
5.639578713968958,0.05141992555580082
5.672949002217295,-0.13087411139518954
5.706319290465632,-0.29372754007718055
5.7396895787139695,-0.4038975234646001
5.773059866962306,-0.43956385169514467
5.806430155210643,-0.4015887377832437
5.83980044345898,-0.318197287791224
5.873170731707317,-0.23909187721158826
5.906541019955654,-0.2188768987712456
5.939911308203992,-0.29480018439747674
5.9732815964523285,-0.46778798307719716
6.006651884700665,-0.6960323059140966
6.040022172949002,-0.9059458833342989
6.073392461197339,-1.0176548031849673
6.106762749445676,-0.9750167625681937
6.140133037694014,-0.7673101000075806
6.173503325942351,-0.43302493296932393
6.2068736141906875,-0.044155385327932124
6.240243902439024,0.3218803775645113
6.273614190687361,0.6103072512195911
6.306984478935698,0.8052015532702604
6.340354767184036,0.9277548901806403
6.373725055432373,1.0185831880428333
6.40709534368071,1.1128127527650806
6.4404656319290465,1.2193380089385648
6.473835920177383,1.313381489633374
6.507206208425721,1.3454769771136084
6.540576496674058,1.2628527619326815
6.573946784922395,1.0339019169800547
6.607317073170732,0.6651762340582946
6.640687361419069,0.20361357969890492
6.674057649667406,-0.27694078713777537
6.707427937915743,-0.699206902420242
6.74079822616408,-1.0061906656453714
6.774168514412417,-1.1757573536125774
6.807538802660754,-1.2211592421471098
6.840909090909091,-1.1790333036064204
6.874279379157428,-1.0915685353403222
6.9076496674057655,-0.9910873584794556
6.941019955654102,-0.8928143092308479
6.974390243902439,-0.7968356675588325
7.007760532150776,-0.6958566631041553
7.041130820399113,-0.5834389712929965
7.07450110864745,-0.4584886931862575
7.107871396895788,-0.32479249635299356
7.1412416851441245,-0.18744822359289373
7.174611973392461,-0.04944988321872552
7.207982261640798,0.08906209488025316
7.241352549889135,0.22853234551216683
7.274722838137472,0.3664772218846069
7.30809312638581,0.4953657058655149
7.341463414634147,0.603752505851265
7.3748337028824835,0.6806257813754941
7.40820399113082,0.7209743246740952
7.441574279379157,0.729563898362407
7.474944567627494,0.7203726354375068
7.508314855875832,0.7109783044293098
7.541685144124169,0.7137335054576739
7.575055432372506,0.7276858614909598
7.6084257206208425,0.7356895044411871
7.641796008869179,0.7093355075878001
7.675166297117517,0.6206746030728808
7.708536585365854,0.45591944177838767
7.741906873614191,0.22457133922437744
7.775277161862528,-0.040950196842472565
7.808647450110865,-0.295638070315551
7.842017738359202,-0.4977110757181538
7.875388026607539,-0.6227836911942226
7.908758314855876,-0.670329346141968
7.942128603104213,-0.6603443034327587
7.97549889135255,-0.6226317966530716
8.008869179600888,-0.5838902288976463
8.042239467849225,-0.5578959429092868
8.075609756097561,-0.5421319577716026
8.108980044345898,-0.5215138117761666
8.142350332594235,-0.4774115008272956
8.175720620842572,-0.3984018597928425
8.209090909090909,-0.28834144561534264
8.242461197339246,-0.16782439811869643
8.275831485587583,-0.06725249397788531
8.30920177383592,-0.01330604216228315
8.342572062084257,-0.014247205546199107
8.375942350332595,-0.051291353569169904
8.409312638580932,-0.08178108216617405
8.442682926829269,-0.055095035650571084
8.476053215077606,0.06407471005138551
8.509423503325943,0.2752277712337933
8.54279379157428,0.5349181051111039
8.576164079822616,0.7685402698341639
8.609534368070953,0.897895585203699
8.64290465631929,0.8731268952410736
8.676274944567627,0.6943444369449309
8.709645232815964,0.41232135695673366
8.743015521064303,0.10744074074116292
8.77638580931264,-0.1432857646484759
8.809756097560976,-0.29547335372134903
8.843126385809313,-0.34940615695706906
8.87649667405765,-0.3404464884739898
8.909866962305987,-0.3145070989491057
8.943237250554324,-0.30249030729011206
8.97660753880266,-0.3071249543532099
9.009977827050998,-0.30797215899440983
9.043348115299334,-0.27997189415569834
9.076718403547671,-0.21359576235092403
9.110088691796008,-0.12435610482101747
9.143458980044347,-0.04598476577755953
9.176829268292684,-0.011184683546955992
9.21019955654102,-0.03112349919748066
9.243569844789358,-0.08578587133645997
9.276940133037694,-0.131374507685586
9.310310421286031,-0.12139838789354168
9.343680709534368,-0.030302615858804272
9.377050997782705,0.13301518315235378
9.410421286031042,0.32879630862925097
9.443791574279379,0.5046343008111647
9.477161862527716,0.6181041070035401
9.510532150776053,0.6520171541218227
9.543902439024391,0.6156078337517902
9.577272727272728,0.5332872977374293
9.610643015521065,0.42906512334198804
9.644013303769402,0.3158063095569704
9.677383592017739,0.19420678617975445
9.710753880266076,0.0599524406635284
9.744124168514412,-0.08697524608996364
9.77749445676275,-0.2371373819129287
9.810864745011086,-0.3734377363417559
9.844235033259423,-0.47812620295043295
9.87760532150776,-0.5404027685282712
9.910975609756099,-0.5602620619039221
9.944345898004435,-0.546900979020225
9.977716186252772,-0.5132304762631501
10.01108647450111,-0.46993668681008255
10.044456762749446,-0.4223075927033216
10.077827050997783,-0.3710964465336727
10.11119733924612,-0.31624355029417023
10.144567627494457,-0.2606476715614301
10.177937915742794,-0.2112000345841776
10.21130820399113,-0.17594960958009973
10.244678492239467,-0.15868368231441635
10.278048780487804,-0.1540527578866787
10.311419068736143,-0.14654190494295827
10.34478935698448,-0.11484604505405066
10.378159645232817,-0.04036432467082386
10.411529933481154,0.08389803152190169
10.44490022172949,0.24834078321229
10.478270509977827,0.4283374662444921
10.511640798226164,0.5918694035073722
10.545011086474501,0.7098399384433842
10.578381374722838,0.7646260970078101
10.611751662971175,0.7536842248339107
10.645121951219512,0.6876882342382544
10.67849223946785,0.585091577326075
10.711862527716187,0.46591615060583896
10.745232815964524,0.3468956092906177
10.778603104212861,0.23875469948101455
10.811973392461198,0.14544990722154932
10.845343680709535,0.06501403879693647
10.878713968957872,-0.008186489391576497
10.912084257206208,-0.08011416945349555
10.945454545454545,-0.15358989355488475
10.978824833702882,-0.22619491236453007
11.012195121951219,-0.2908228816473294
11.045565410199556,-0.33894765229251184
11.078935698447895,-0.3650967636107177
11.112305986696231,-0.3701085666134512
11.145676274944568,-0.3612037056049921
11.179046563192905,-0.34860376786645
11.212416851441242,-0.34046858115827794
11.245787139689579,-0.33905965851403147
11.279157427937916,-0.340427117207425
11.312527716186253,-0.33774861930232014
11.34589800443459,-0.3260169950161128
11.379268292682926,-0.30474788291165594
11.412638580931263,-0.27663517674629706
11.4460088691796,-0.24295280474713693
11.479379157427939,-0.1990904345033459
11.512749445676276,-0.13403911036204824
11.546119733924613,-0.03538907742677224
11.57949002217295,0.10222122297551216
11.612860310421286,0.2699068757203424
11.646230598669623,0.443135155330642
11.67960088691796,0.5876966622599326
11.712971175166297,0.6706482920296469
11.746341463414634,0.6712708396193379
11.77971175166297,0.5873880741105465
11.813082039911308,0.43512121559473654
11.846452328159646,0.24338810070998831
11.879822616407983,0.04620735961046606
11.91319290465632,-0.12455070098742313
11.946563192904657,-0.24494587837415707
11.979933481152994,-0.3033990529055495
12.01330376940133,-0.30358477346043045
12.046674057649668,-0.2644215063923035
12.080044345898004,-0.21534439905437847
12.113414634146341,-0.18652703971980977
12.146784922394678,-0.19673893300098966
12.180155210643015,-0.2441120356950482
12.213525498891352,-0.3050580935898703
12.24689578713969,-0.34325077740400955
12.280266075388028,-0.32550856591748994
12.313636363636364,-0.23746190018764915
12.347006651884701,-0.09142860016600217
12.380376940133038,0.07762785181558042
12.413747228381375,0.22651773635753938
12.447117516629712,0.32202525503498747
12.480487804878049,0.3543680369486721
12.513858093126386,0.3396326949258144
12.547228381374723,0.31027923795155854
12.58059866962306,0.2986315886313374
12.613968957871396,0.3215253422431782
12.647339246119735,0.3732908756672946
12.680709534368072,0.4296666815455248
12.714079822616409,0.459683453652067
12.747450110864746,0.4390748973924897
12.780820399113082,0.35903470949150423
12.81419068736142,0.22752982110772782
12.847560975609756,0.06450910202953253
12.880931263858093,-0.10526962128923906
12.91430155210643,-0.2583848571308934
12.947671840354767,-0.37649828161561305
12.981042128603104,-0.44823307570799814
13.014412416851442,-0.4702253505355894
13.04778270509978,-0.44764041179672637
13.081152993348116,-0.3935237728109001
13.114523281596453,-0.3262515270555565
13.14789356984479,-0.26517423434516413
13.181263858093127,-0.22562799631614866
13.214634146341464,-0.21500960652768347
13.2480044345898,-0.2312708636191412
13.281374722838137,-0.26425570685912136
13.314745011086474,-0.299294967750728
13.348115299334811,-0.3217771284059792
13.381485587583148,-0.32119026086107166
13.414855875831487,-0.293386857685511
13.448226164079824,-0.24047406188397027
13.48159645232816,-0.16858620214246367
13.514966740576497,-0.08456051437944799
13.548337028824834,0.007089711121136173
13.581707317073171,0.10567903367311375
13.615077605321508,0.2137206065264132
13.648447893569845,0.33432370122433364
13.681818181818182,0.46740808136717776
13.715188470066519,0.6059138234688357
13.748558758314855,0.7334230359557088
13.781929046563192,0.8247279586636708
13.815299334811531,0.8505902307405644
13.848669623059868,0.7867521568462288
13.882039911308205,0.6250817659154144
13.915410199556542,0.382412003856785
13.948780487804878,0.10181663717133571
13.982150776053215,-0.1568878046820234
14.015521064301552,-0.3359221175624077
14.048891352549889,-0.40091039498131825
14.082261640798226,-0.35546843907521697
14.115631929046563,-0.2415394447129125
14.1490022172949,-0.1240057176773604
14.182372505543238,-0.06537714277198793
14.215742793791575,-0.10118247294957665
14.249113082039912,-0.22655349125559138
14.282483370288249,-0.39944085740937385
14.315853658536586,-0.5584636897168441
14.349223946784923,-0.6472001555362742
14.38259423503326,-0.6346134180049695
14.415964523281596,-0.523934351248153
14.449334811529933,-0.3479705167531597
14.48270509977827,-0.15448339224207802
14.516075388026607,0.011562417774739053
14.549445676274944,0.12222719089478837
14.582815964523283,0.17317229123650818
14.61618625277162,0.18168586276680299
14.649556541019956,0.17793674073802918
14.682926829268293,0.19287431871431043
14.71629711751663,0.24676481323203717
14.749667405764967,0.3419063276523258
14.783037694013304,0.46168032584755986
14.81640798226164,0.5760691441055398
14.849778270509978,0.6516534924011811
14.883148558758315,0.6625755215720357
14.916518847006651,0.5985924890030918
14.949889135254988,0.467416502241723
14.983259423503327,0.29076439897025463
15.016629711751664,0.09605975292399457
15.05,-0.0926101414838626
15.083370288248338,-0.2606657742919358
15.116740576496674,-0.40428279985707133
15.150110864745011,-0.5269345699244249
15.183481152993348,-0.6333375444744257
15.216851441241685,-0.7237093025130502
15.250221729490022,-0.7908608656830057
15.283592017738359,-0.821380903545971
15.316962305986696,-0.8005054790376179
15.350332594235034,-0.7187397748800031
15.383702882483371,-0.5774716038806844
15.417073170731708,-0.39110822044648835
15.450443458980045,-0.18464135639191953
15.483813747228382,0.012623173184975326
15.517184035476719,0.17503621130534228
15.550554323725056,0.2877283490566147
15.583924611973393,0.3507913702126337
15.61729490022173,0.37924457106914744
15.650665188470066,0.3984094057659337
15.684035476718403,0.4354040007241817
15.71740576496674,0.5088394132912344
15.750776053215079,0.6200349058978499
15.784146341463416,0.749356909464608
15.817516629711752,0.8600503008377977
15.85088691796009,0.9093460925198135
15.884257206208426,0.8636131924055185
15.917627494456763,0.7121408955956663
15.9509977827051,0.4739102188927042
15.984368070953437,0.1938947649582818
16.017738359201775,-0.07056489184773712
16.05110864745011,-0.2685553136223635
16.08447893569845,-0.3723427994083059
16.117849223946784,-0.3854854422516858
16.151219512195123,-0.3392324686232005
16.184589800443458,-0.27899799789713964
16.217960088691797,-0.24667486183975199
16.251330376940132,-0.26591814950521814
16.28470066518847,-0.3358227387183303
16.31807095343681,-0.43458958859757124
16.351441241685144,-0.5306249450258554
16.384811529933483,-0.5958204694032949
16.418181818181818,-0.6154895874926133
16.451552106430157,-0.5914274979713076
16.48492239467849,-0.5377587715875954
16.51829268292683,-0.472243082980552
16.551662971175165,-0.40737071860691615
16.585033259423504,-0.34532906912283723
16.61840354767184,-0.2789093233806214
16.651773835920178,-0.1974893821827407
16.685144124168513,-0.09468978087067982
16.71851441241685,0.026553326411553807
16.75188470066519,0.1543386516798518
16.785254988913525,0.27335886477112564
16.818625277161864,0.37244217914615196
16.8519955654102,0.44969060677435635
16.885365853658538,0.5122542713880173
16.918736141906873,0.5708961619318472
16.95210643015521,0.6323833487009167
16.985476718403547,0.6937506112307948
17.018847006651885,0.7412696940446869
17.05221729490022,0.7544805834868478
17.08558758314856,0.7133722132691549
17.118957871396898,0.6057895113431193
17.152328159645233,0.4325439469655242
17.18569844789357,0.20891905369473482
17.219068736141907,-0.037513456373222745
17.252439024390245,-0.27210065269994227
17.28580931263858,-0.46035364741336393
