Frequency (Hz),Amplitude
0.0,0.18433066741904502
0.019867549668874173,0.1842617089293726
0.039735099337748346,0.18405495506152886
0.059602649006622516,0.18371077087719487
0.07947019867549669,0.1832297656772431
0.09933774834437085,0.18261279431366106
0.11920529801324503,0.18186095905622013
0.13907284768211922,0.1809756120441297
0.15894039735099338,0.1799583583623304
0.17880794701986755,0.17881105979186906
0.1986754966887417,0.17753583929394134
0.2185430463576159,0.1761350862982848
0.23841059602649006,0.17461146287790255
0.2582781456953642,0.1729679109047101
0.27814569536423844,0.1712076602932654
0.2980132450331126,0.16933423845336645
0.31788079470198677,0.16735148108620296
0.33774834437086093,0.1652635444722689
0.3576158940397351,0.16307491941293098
0.3774834437086093,0.1607904469992888
0.3973509933774834,0.15841533639156077
0.4172185430463576,0.1559551847974274
0.4370860927152318,0.15341599983716095
0.45695364238410596,0.15080422447186373
0.4768211920529801,0.1481267646469569
0.49668874172185434,0.14539101975854563
0.5165562913907285,0.14260491597833988
0.5364238410596026,0.13977694236407345
0.5562913907284769,0.1369161895243706
0.5761589403973509,0.13403239038360842
0.5960264900662252,0.13113596228695645
0.6158940397350993,0.12823804927587584
0.6357615894039735,0.1253505628291161
0.6556291390728477,0.12248621868210467
0.6754966887417219,0.11965856649362044
0.695364238410596,0.11688200812103924
0.7152317880794702,0.11417179911619954
0.7350993377483444,0.111544026824866
0.7549668874172186,0.10901555728296147
0.7748344370860927,0.10660394214746384
0.7947019867549668,0.10432727646643318
0.8145695364238411,0.1022039985567929
0.8344370860927152,0.10025262505551825
0.8543046357615894,0.09849141775961448
0.8741721854304636,0.09693798444261591
0.8940397350993378,0.0956088233804926
0.9139072847682119,0.09451883027391747
0.9337748344370861,0.09368079543357892
0.9536423841059603,0.09310492674615947
0.9735099337748344,0.09279843804254805
0.9933774834437087,0.09276524130629824
1.0132450331125828,0.0930057738749361
1.033112582781457,0.09351697898737722
1.0529801324503312,0.09429244177862536
1.0728476821192052,0.09532266616562261
1.0927152317880795,0.09659546417617791
1.1125827814569538,0.09809642051244025
1.1324503311258278,0.09980939247891064
1.1523178807947019,0.10171700834057774
1.1721854304635762,0.10380113413936198
1.1920529801324504,0.1060432879790887
1.2119205298013245,0.1084249899326472
1.2317880794701985,0.1109280436918937
1.2516556291390728,0.11353475216129763
1.271523178807947,0.11622807322860434
1.2913907284768211,0.11899172413924901
1.3112582781456954,0.12181024365321103
1.3311258278145695,0.12466902091305646
1.3509933774834437,0.12755429909546853
1.370860927152318,0.13045316076568825
1.390728476821192,0.13335350062118662
1.410596026490066,0.13624399013487976
1.4304635761589404,0.13911403756241728
1.4503311258278146,0.14195374589343598
1.4701986754966887,0.14475387060568395
1.4900662251655628,0.147505778511325
1.5099337748344372,0.15020140854613012
1.5298013245033113,0.1528332350229364
1.5496688741721854,0.15539423362926058
1.5695364238410596,0.15787785027602694
1.5894039735099337,0.16027797278496259
1.609271523178808,0.16258890532196596
1.6291390728476822,0.16480534543373548
1.6490066225165563,0.16692236351548614
1.6688741721854303,0.16893538452423995
1.6887417218543048,0.17084017174866278
1.7086092715231789,0.17263281245077772
1.728476821192053,0.17430970520310063
1.7483443708609272,0.1758675487566918
1.7682119205298013,0.1773033322883058
1.7880794701986755,0.17861432688884993
1.8079470198675496,0.17979807816906695
1.8278145695364238,0.18085239987189994
1.847682119205298,0.18177536839418248
1.8675496688741722,0.18256531813267152
1.8874172185430464,0.18322083758094235
1.9072847682119205,0.18374076611517168
1.9271523178807946,0.1841241914168243
1.9470198675496688,0.1843704474904358
1.9668874172185429,0.18447911324385652
1.9867549668874174,0.18445001160749583
2.0066225165562916,0.18428320917767765
2.0264900662251657,0.1839790163778321
2.0463576158940397,0.18353798813958352
2.066225165562914,0.18296092511440676
2.086092715231788,0.18224887543488966
2.1059602649006623,0.18140313705359612
2.1258278145695364,0.1804252606966022
2.1456953642384105,0.1793170534782225
2.165562913907285,0.1780805832335311
2.185430463576159,0.17671818363594263
2.205298013245033,0.1752324601780502
2.2251655629139075,0.17362629710605548
2.2450331125827816,0.17190286541028305
2.2649006622516556,0.17006563198733707
2.2847682119205297,0.16811837010264738
2.3046357615894038,0.16606517129531875
2.324503311258278,0.16391045887993025
2.3443708609271523,0.16165900321146087
2.364238410596027,0.15931593888828643
2.384105960264901,0.15688678407362686
2.403973509933775,0.15437746211457024
2.423841059602649,0.1517943256278091
2.443708609271523,0.14914418319792028
2.463576158940397,0.14643432879233595
2.4834437086092715,0.14367257392975694
2.5033112582781456,0.14086728253696165
2.52317880794702,0.13802740828068769
2.543046357615894,0.1351625339530773
2.562913907284768,0.1322829122033299
2.5827814569536423,0.1293995065259729
2.6026490066225163,0.12652403091655393
2.622516556291391,0.12366898596844653
2.642384105960265,0.12084768839573531
2.662251655629139,0.1180742900226306
2.6821192052980134,0.1153637811982306
2.7019867549668874,0.11273197242938182
2.7218543046357615,0.1101954468786632
2.741721854304636,0.10777147542312555
2.76158940397351,0.10547788547008723
2.781456953642384,0.1033328750216546
2.801324503311258,0.10135476497396742
2.821192052980132,0.09956168573252357
2.8410596026490067,0.09797119920915949
2.8609271523178808,0.09659986415279163
2.8807947019867552,0.09546276112131606
2.9006622516556293,0.09457300221974092
2.9205298013245033,0.09394125844883877
2.9403973509933774,0.09357534224589677
2.9602649006622515,0.09347988281949662
2.9801324503311255,0.09365612618901224
3.0,0.09410188068641005
3.0198675496688745,0.09481161371205288
3.0397350993377485,0.09577668947359165
3.0596026490066226,0.09698572331208072
3.0794701986754967,0.09842501850669046
3.0993377483443707,0.1000790474131003
3.119205298013245,0.10193094029151376
3.1390728476821192,0.10396295095422085
3.1589403973509933,0.1061568765745452
3.1788079470198674,0.1084944178193974
3.198675496688742,0.11095747347994539
3.218543046357616,0.11352837014157602
3.23841059602649,0.11619003186571841
3.2582781456953644,0.1189260974601739
3.2781456953642385,0.1217209940272318
3.2980132450331126,0.12455997551018158
3.3178807947019866,0.12742913430154013
3.3377483443708607,0.1303153929482055
3.3576158940397347,0.13320648182415887
3.3774834437086096,0.1360909074918504
3.3973509933774837,0.13895791542791952
3.4172185430463577,0.14179744988834636
3.437086092715232,0.14460011294374966
3.456953642384106,0.1473571241194975
3.47682119205298,0.15006028161142748
3.4966887417218544,0.15270192569497057
3.5165562913907285,0.15527490468381572
3.5364238410596025,0.1577725436045031
3.556291390728477,0.16018861561967918
3.576158940397351,0.16251731614156467
3.596026490066225,0.1647532395180766
3.615894039735099,0.16689135813800282
3.6357615894039736,0.16892700378259265
3.6556291390728477,0.17085585104380013
3.6754966887417218,0.17267390263022656
3.695364238410596,0.1743774763883106
3.7152317880794703,0.1759631938761096
3.7350993377483444,0.17742797033877478
3.754966887417219,0.178769005947968
3.774834437086093,0.17998377818038158
3.794701986754967,0.18107003522388845
3.814569536423841,0.18202579031265775
3.834437086092715,0.18284931690457673
3.854304635761589,0.18353914462622078
3.8741721854304636,0.1840940559214657
3.8940397350993377,0.18451308335014052
3.9139072847682117,0.18479550749330245
3.9337748344370858,0.18494085543064226
3.9536423841059607,0.18494889976486706
3.9735099337748347,0.18481965817638027
3.993377483443709,0.1845533935000995
4.013245033112583,0.1841506143246638
4.033112582781457,0.18361207612241395
4.052980132450331,0.18293878292725263
4.072847682119205,0.1821319895858015
4.0927152317880795,0.1811932046162659
4.112582781456953,0.1801241937186312
4.132450331125828,0.17892698398936016
4.152317880794702,0.17760386890394247
4.172185430463576,0.17615741414116828
4.19205298013245,0.17459046433431508
4.211920529801325,0.1729061508457282
4.231788079470199,0.17110790067365259
4.251655629139073,0.16919944661188516
4.271523178807947,0.16718483879507023
4.291390728476821,0.1650684577735657
4.311258278145695,0.16285502927176237
4.33112582781457,0.16054964079074174
4.3509933774834435,0.1581577602198727
4.370860927152318,0.15568525661857735
4.390728476821192,0.15313842331808164
4.410596026490066,0.15052400346790565
4.43046357615894,0.1478492181096838
4.450331125827815,0.14512179679384307
4.470198675496689,0.14235001065505432
4.490066225165563,0.13954270771927726
4.509933774834438,0.1367093500162619
4.529801324503311,0.13386005180018384
4.549668874172186,0.13100561782240336
4.569536423841059,0.12815758013325698
4.589403973509934,0.12532823130004844
4.6092715231788075,0.12253065120146932
4.629139072847682,0.11977872369440255
4.649006622516556,0.1170871384648549
4.66887417218543,0.1144713723191762
4.688741721854305,0.11194764314044557
4.708609271523179,0.10953282888165186
4.728476821192054,0.10724434352132678
4.748344370860927,0.10509996216871467
4.768211920529802,0.1031175888301465
4.788079470198675,0.10131496308906458
4.80794701986755,0.09970930636969706
4.827814569536423,0.09831691457647579
4.847682119205298,0.09715271137821256
4.867549668874172,0.09622978439793782
4.887417218543046,0.09555893374372997
4.9072847682119205,0.09514826703407721
4.927152317880794,0.09500287576046475
4.947019867549669,0.09512462349495639
4.966887417218543,0.09551206711997491
4.986754966887418,0.09616051918393406
5.006622516556291,0.09706224492576697
5.026490066225166,0.09820677414049427
5.04635761589404,0.09958129821586865
5.066225165562914,0.10117111774103844
5.086092715231788,0.1029601062375061
5.105960264900662,0.10493115989101275
5.125827814569536,0.10706661013890012
5.14569536423841,0.10934858393626457
5.1655629139072845,0.11175930410791346
5.185430463576159,0.11428132849261723
5.205298013245033,0.11689773120013228
5.225165562913908,0.11959223222313271
5.245033112582782,0.12234928311546878
5.264900662251656,0.12515411681353095
5.28476821192053,0.12799276929734382
5.304635761589404,0.1308520799703027
5.324503311258278,0.13371967661758885
5.344370860927152,0.13658394974669602
5.364238410596027,0.13943402011889838
5.3841059602649,0.14225970240213273
5.403973509933775,0.1450514671340195
5.4238410596026485,0.14780040257875973
5.443708609271523,0.15049817758253506
5.463576158940397,0.15313700616130158
5.483443708609272,0.15570961427529445
5.503311258278146,0.15820920903810076
5.52317880794702,0.16062945045919455
5.543046357615895,0.16296442571495795
5.562913907284768,0.16520862587292756
5.582781456953643,0.16735692494912124
5.602649006622516,0.16940456115162233
5.622516556291391,0.17134712015067663
5.642384105960264,0.17318052021160682
5.662251655629139,0.1749009990295213
5.682119205298013,0.17650510211167275
5.701986754966887,0.17798967256278456
5.7218543046357615,0.1793518421399946
5.741721854304636,0.1805890234556069
5.7615894039735105,0.1816989032182453
5.781456953642384,0.18267943641480944
5.801324503311259,0.18352884134723835
5.821192052980132,0.18424559544938146
5.841059602649007,0.184828431819848
5.860927152317881,0.1852763364167182
5.880794701986755,0.18558854586992038
5.900662251655629,0.18576454587589328
5.920529801324503,0.18580407014832495
5.940397350993377,0.18570709990703352
5.960264900662251,0.18547386389545226
5.980132450331126,0.18510483892539478
6.0,0.18460075095582024
6.0198675496688745,0.18396257672058666
6.039735099337749,0.18319154592836565
6.059602649006623,0.1822891440665919
6.079470198675497,0.18125711584980347
6.099337748344371,0.18009746936205667
6.119205298013245,0.17881248095243915
6.139072847682119,0.1774047009525439
6.158940397350993,0.1758769602949407
6.178807947019867,0.17423237812206943
6.198675496688741,0.17247437048572292
6.218543046357616,0.170606660247415
6.23841059602649,0.16863328830037203
6.258278145695365,0.1665586262423306
6.2781456953642385,0.16438739063575303
6.298013245033113,0.16212465899624862
6.317880794701987,0.15977588764938097
6.337748344370861,0.1573469315897007
6.357615894039735,0.1548440664592533
6.377483443708609,0.15227401273401966
6.397350993377484,0.1496439621599471
6.417218543046357,0.14696160640930195
6.437086092715232,0.14423516782626772
6.456953642384105,0.14147343198743384
6.47682119205298,0.13868578160700643
6.496688741721854,0.1358822310559732
6.516556291390729,0.13307346042266052
6.5364238410596025,0.130270847606692
6.556291390728477,0.12748649639441262
6.5761589403973515,0.12473325780555944
6.596026490066225,0.12202474123018064
6.6158940397351,0.11937531101341069
6.635761589403973,0.11680006324257282
6.655629139072848,0.11431477663484908
6.675496688741721,0.1119358307541936
6.695364238410596,0.1096800845016143
6.715231788079469,0.10756470817931162
6.735099337748344,0.10560696371894449
6.754966887417219,0.10382393017066464
6.774834437086093,0.1022321754680537
6.794701986754967,0.1008473808128855
6.814569536423841,0.09968393045168591
6.8344370860927155,0.09875448643504868
6.854304635761589,0.09806957406695589
6.874172185430464,0.09763720782397599
6.894039735099337,0.0974625882680264
6.913907284768212,0.09754789704897503
6.933774834437086,0.09789220946009376
6.95364238410596,0.09849153310629429
6.973509933774834,0.09933896884622906
6.993377483443709,0.10042497844816861
7.013245033112583,0.10173773434717208
7.033112582781457,0.10326352179904712
7.052980132450331,0.10498716292749251
7.072847682119205,0.1068924350869677
7.0927152317880795,0.10896246145256794
7.112582781456954,0.11118005843845884
7.132450331125828,0.11352803122498588
7.152317880794702,0.11598941447809567
7.172185430463576,0.1185476598168522
7.19205298013245,0.12118677461771954
7.211920529801324,0.12389141847065747
7.231788079470198,0.1266469642835106
7.251655629139073,0.12943953096166652
7.271523178807947,0.13225599404407057
7.291390728476822,0.13508397987484508
7.311258278145695,0.13791184799378683
7.33112582781457,0.14072866554551328
7.3509933774834435,0.1435241766993527
7.370860927152318,0.14628876937032564
7.390728476821192,0.1490134409450843
7.410596026490066,0.15168976424132918
7.430463576158941,0.15430985455363586
7.450331125827814,0.15686633834875532
7.470198675496689,0.15935232395450208
7.490066225165562,0.16176137442434585
7.509933774834438,0.16408748264342654
7.52980132450331,0.16632504865954037
7.549668874172186,0.16846885916779777
7.569536423841059,0.17051406904196406
7.589403973509934,0.17245618478507452
7.6092715231788075,0.17429104976163584
7.629139072847682,0.17601483107117172
7.649006622516557,0.17762400792549113
7.66887417218543,0.17911536139814752
7.6887417218543055,0.18048596542272183
7.708609271523178,0.18173317892636262
7.728476821192054,0.18285463899499066
7.748344370860927,0.18384825497751697
7.768211920529802,0.184712203446392
7.788079470198675,0.18544492394246512
7.80794701986755,0.18604511544178545
7.827814569536423,0.18651173349153302
7.847682119205298,0.18684398797148638
7.8675496688741715,0.18704134144617565
7.887417218543046,0.1871035080811989
7.907284768211921,0.18703045310562386
7.927152317880795,0.1868223928101941
7.9470198675496695,0.18647979507891657
7.966887417218543,0.1860033804596148
7.986754966887418,0.18539412378652814
8.006622516556291,0.18465325637615432
8.026490066225167,0.18378226882544244
8.046357615894038,0.18278291444940686
8.066225165562914,0.181657213403925
8.086092715231787,0.18040745754766876
8.105960264900663,0.17903621610607676
8.125827814569536,0.1775463422088904
8.14569536423841,0.17594098038178227
8.165562913907285,0.17422357508103775
8.185430463576159,0.17239788036837972
8.205298013245034,0.1704679708300797
8.225165562913906,0.16843825385022201
8.245033112582782,0.16631348335060625
8.264900662251655,0.1640987751098203
8.28476821192053,0.16179962376766485
8.304635761589404,0.1594219216083826
8.324503311258278,0.15697197919288683
8.344370860927151,0.15445654787356813
8.364238410596027,0.15188284417038608
8.3841059602649,0.14925857590862426
8.403973509933774,0.14659196990961185
8.42384105960265,0.1438918008778129
8.443708609271523,0.14116742093149992
8.463576158940398,0.13842878896882685
8.483443708609272,0.1356864987357876
8.503311258278146,0.1329518040573401
8.52317880794702,0.13023663919998504
8.543046357615895,0.12755363175371914
8.562913907284768,0.12491610476207907
8.582781456953642,0.12233806411916243
8.602649006622515,0.11983416654349302
8.62251655629139,0.11741966281553491
8.642384105960264,0.11511031055372484
8.66225165562914,0.11292225077159475
8.682119205298013,0.1108718430108435
8.701986754966887,0.10897545520313004
8.721854304635762,0.10724920677284103
8.741721854304636,0.1057086669612272
8.76158940397351,0.10436851486932694
8.781456953642383,0.10324217297689443
8.801324503311259,0.10234143129978758
8.821192052980132,0.1016760840326897
8.841059602649008,0.10125360347465498
8.86092715231788,0.10107887631684313
8.880794701986755,0.10115402440296554
8.90066225165563,0.10147832587356469
8.920529801324504,0.10204824389960422
8.940397350993377,0.1028575603260681
8.960264900662251,0.10389760210598083
8.980132450331126,0.10515754092003335
9.0,0.10662474187391212
9.019867549668875,0.10828513598775895
9.039735099337747,0.1101235930095062
9.059602649006623,0.11212427509035061
9.079470198675496,0.11427095704661036
9.099337748344372,0.1165473043439511
9.119205298013245,0.11893710484820376
9.139072847682119,0.12142445435509133
9.158940397350994,0.12399389877400657
9.178807947019868,0.12663053763953228
9.198675496688743,0.12932009452183396
9.218543046357615,0.13204896011914302
9.23841059602649,0.13480421355774316
9.258278145695364,0.13757362688386585
9.27814569536424,0.1403456570519403
9.298013245033111,0.1431094289986502
9.317880794701987,0.1458547127066364
9.33774834437086,0.148571896544785
9.357615894039736,0.15125195863927468
9.37748344370861,0.15388643758567427
9.397350993377483,0.15646740345153032
9.417218543046358,0.15898742973372798
9.437086092715232,0.16143956671221996
9.456953642384107,0.16381731647360068
9.47682119205298,0.1661146097518806
9.496688741721854,0.16832578464213183
9.516556291390728,0.17044556717806997
9.536423841059603,0.17246905371971738
9.556291390728477,0.17439169506869
9.57615894039735,0.17620928221094068
9.596026490066224,0.17791793357802213
9.6158940397351,0.17951408371508137
9.635761589403973,0.1809944732451499
9.655629139072847,0.18235614002379294
9.675496688741722,0.18359641138459531
9.695364238410596,0.18471289738356889
9.715231788079471,0.1857034849586769
9.735099337748345,0.18656633292967126
9.754966887417218,0.18729986777175087
9.774834437086092,0.18790278010564876
9.794701986754967,0.18837402185478433
9.814569536423841,0.1887128040287392
9.834437086092716,0.18891859510027684
9.854304635761588,0.1889911199506315
9.874172185430464,0.1889303593658917
9.894039735099337,0.18873655007438198
9.913907284768213,0.18841018532230897
9.933774834437086,0.18795201599236636
9.95364238410596,0.18736305227692593
9.973509933774835,0.18664456592470482
9.993377483443709,0.1857980930871965
10.013245033112582,0.18482543779796293
10.033112582781456,0.1837286761254774
10.052980132450331,0.18251016104717546
10.072847682119205,0.1811725280996477
10.09271523178808,0.17971870186649436
10.112582781456952,0.17815190337219738
10.132450331125828,0.17647565845571647
10.152317880794701,0.17469380720237615
10.172185430463577,0.1728105145155421
10.192052980132452,0.17083028191030572
10.211920529801324,0.1687579606084944
10.2317880794702,0.16659876600723936
10.251655629139073,0.16435829357966428
10.271523178807948,0.16204253624414
10.29139072847682,0.1596579032058599
10.311258278145695,0.15721124022662114
10.331125827814569,0.15470985121296313
10.350993377483444,0.15216152092312457
10.370860927152318,0.14957453847449934
10.390728476821192,0.1469577211782889
10.410596026490065,0.14432043803025119
10.43046357615894,0.1416726319376288
