Frequency (Hz),Amplitude
0.0,18.399764937912536
0.019823788546255508,18.40725406225546
0.039647577092511016,18.429673676764427
0.059471365638766524,18.466881201181483
0.07929515418502203,18.518641294789802
0.09911894273127755,18.584629211416782
0.11894273127753305,18.664435332962604
0.13876651982378857,18.757570730596697
0.15859030837004406,18.863473576255625
0.17841409691629956,18.981516210747245
0.1982378854625551,19.111012668741143
0.2180616740088106,19.25122646453865
0.2378854625550661,19.401378454445346
0.25770925110132165,19.56065461006073
0.27753303964757714,19.728213559886225
0.29735682819383263,19.903193782363093
0.31718061674008813,20.084720359975368
0.3370044052863437,20.271911229865427
0.3568281938325991,20.463882890328488
0.37665198237885467,20.659755543758994
0.3964757709251102,20.858657674640995
0.41629955947136565,21.059730075824692
0.4361233480176212,21.262129347666626
0.4559471365638767,21.465030902862853
0.4757709251101322,21.667631515306265
0.49559471365638774,21.869151454458994
0.5154185022026433,22.068836247959496
0.5352422907488987,22.26595811489359
0.5550660792951543,22.4598171107229
0.5748898678414097,22.649742022607754
0.5947136563876653,22.835091051069
0.6145374449339208,23.015252310829144
0.6343612334801763,23.18964418043819
0.6541850220264318,23.357715527060776
0.6740088105726874,23.518945829679275
0.6938325991189428,23.67284522102035
0.7136563876651982,23.818954465782646
0.7334801762114539,23.956844890259138
0.7533039647577093,24.08611827621223
0.7731277533039648,24.20640672987657
0.7929515418502204,24.317372535220674
0.8127753303964759,24.418707999079913
0.8325991189427313,24.51013529446303
0.8524229074889869,24.59140630721116
0.8722466960352424,24.662302490231863
0.8920704845814978,24.722634728723513
0.9118942731277534,24.77224321912296
0.931718061674009,24.81099736393872
0.9515418502202644,24.83879568415261
0.9713656387665199,24.855565750465985
0.9911894273127755,24.86126413432516
1.0110132158590308,24.855876379359483
1.0308370044052866,24.839416993599844
1.0506607929515421,24.811929462596773
1.0704845814977975,24.77348628331613
1.090308370044053,24.72418901844042
1.1101321585903086,24.664168370438
1.1299559471365639,24.593584274459563
1.1497797356828194,24.51262600877646
1.1696035242290752,24.42151232106639
1.1894273127753305,24.320491568369874
1.209251101321586,24.2098418679639
1.2290748898678416,24.089871255712676
1.248898678414097,23.960917847642012
1.2687224669603525,23.823349999518506
1.288546255506608,23.677566458085145
1.3083700440528636,23.523996496282656
1.3281938325991192,23.363100023257967
1.3480176211453747,23.19536765820362
1.36784140969163,23.02132075507634
1.3876651982378856,22.841511362992296
1.4074889867841411,22.65652210459734
1.4273127753303965,22.46696595196382
1.4471365638766522,22.273485876604227
1.4669603524229078,22.076754347052898
1.4867841409691631,21.87747264422721
1.5066079295154187,21.67636996153282
1.5264317180616742,21.474202253570386
1.5462555066079295,21.271750794508154
1.5660792951541853,21.069820404941844
1.5859030837004409,20.869237304647232
1.6057268722466962,20.67084654837832
1.6255506607929517,20.475509003145014
1.6453744493392073,20.284097828635083
1.6651982378854626,20.097494428038512
1.6850220264317182,19.916583844894642
1.7048458149779737,19.742249593047
1.7246696035242293,19.575367921585524
1.7444933920704848,19.41680153482626
1.7643171806167404,19.26739280873662
1.7841409691629957,19.12795656927349
1.8039647577092512,18.999272524024914
1.8237885462555068,18.88207746514389
1.8436123348017623,18.77705738728591
1.863436123348018,18.684839687299277
1.8832599118942732,18.60598563077687
1.9030837004405288,18.540983282302122
1.9229074889867843,18.490241099553394
1.9427312775330399,18.45408238507127
1.9625550660792954,18.432740772789376
1.982378854625551,18.42635689954533
2.002202643171806,18.43497637577742
2.0220264317180616,18.45854912637634
2.041850220264317,18.496930124824527
2.061674008810573,18.549881494403333
2.0814977973568287,18.61707590262527
2.1013215859030843,18.698101132219186
2.1211453744493394,18.79246567653918
2.140969162995595,18.89960518103541
2.1607929515418505,19.018889536404536
2.180616740088106,19.14963042333641
2.2004405286343616,19.291089112692642
2.220264317180617,19.442484337148464
2.2400881057268722,19.60300006903862
2.2599118942731278,19.771793062388742
2.2797356828193833,19.948000042920714
2.299559471365639,20.130744456383997
2.319383259911895,20.319142711371242
2.3392070484581504,20.51230987665091
2.3590308370044055,20.709364814187637
2.378854625550661,20.909434746955764
2.3986784140969166,21.11165927520871
2.418502202643172,21.315193866113614
2.4383259911894277,21.519212849824125
2.4581497797356833,21.722911960492834
2.4779735682819384,21.92551046381597
2.497797356828194,22.12625291387995
2.5176211453744495,22.324410581745177
2.537444933920705,22.51928259673358
2.5572687224669606,22.710196839107944
2.577092511013216,22.89651062002134
2.5969162995594717,23.077611181503187
2.6167400881057272,23.25291604600735
2.6365638766519828,23.421873241820155
2.6563876651982383,23.5839614275054
2.676211453744494,23.73868993562105
2.6960352422907494,23.88559875321823
2.715859030837005,24.02425845415429
2.73568281938326,24.15427009602441
2.7555066079295156,24.275265092538056
2.775330396475771,24.38690507042984
2.7951541850220267,24.488881718481906
2.8149779735682823,24.580916634929753
2.834801762114538,24.66276117840496
2.854625550660793,24.73419632661727
2.874449339207049,24.79503254617399
2.8942731277533045,24.845109676256815
2.91409691629956,24.88429682830777
2.9339207048458156,24.912492303398885
2.953744493392071,24.92962352855652
2.9735682819383262,24.935647012969586
2.993392070484582,24.930548324712085
3.0132158590308373,24.914342088344387
3.033039647577093,24.88707200351017
3.0528634361233484,24.848810884402223
3.072687224669604,24.799660719722407
3.092511013215859,24.739752752490247
3.1123348017621146,24.669247578751598
3.1321585903083706,24.588335263890254
3.151982378854626,24.497235474831854
3.1718061674008817,24.39619762594274
3.1916299559471373,24.28550103584205
3.2114537444933924,24.165455091653318
3.231277533039648,24.036399416396517
3.2511013215859035,23.898704034248322
3.270925110132159,23.75276952725359
3.2907488986784146,23.599027175736076
3.31057268722467,23.437939073110073
3.3303964757709252,23.269998204020048
3.350220264317181,23.095728472716104
3.3700440528634363,22.915684666300795
3.389867841409692,22.730452334956773
3.4096916299559474,22.54064756849161
3.4295154185022034,22.346916645545633
3.4493392070484585,22.149935528642708
3.469162995594714,21.95040917499416
3.4889867841409696,21.74907062969825
3.508810572687225,21.546679864847764
3.5286343612334807,21.344022325255597
3.5484581497797363,21.1419071392637
3.5682819383259914,20.941164951698656
3.588105726872247,20.742645335816704
3.6079295154185025,20.54721374241801
3.627753303964758,20.355747947621474
3.6475770925110136,20.169133966497505
3.667400881057269,19.988261408261437
3.6872246696035247,19.814018260371583
3.7070484581497802,19.64728510387453
3.726872246696036,19.48892878074146
3.7466960352422913,19.339795555539133
3.7665198237885464,19.200703838081548
3.7863436123348024,19.07243655985726
3.8061674008810575,18.95573332381117
3.8259911894273135,18.851282472912118
3.8458149779735686,18.75971324601538
3.8656387665198246,18.68158820784058
3.8854625550660797,18.6173961514423
3.905286343612335,18.567545674609203
3.925110132158591,18.53235962489035
3.9449339207048464,18.51207059078498
3.964757709251102,18.506817589240715
3.9845814977973575,18.516644063074075
4.004405286343612,18.541497258201378
4.024229074889869,18.581229002313723
4.044052863436123,18.635597856962235
4.06387665198238,18.704272567207266
4.083700440528634,18.786836690102803
4.103524229074891,18.882794247906062
4.123348017621146,18.991576225856942
4.143171806167401,19.11254771862867
4.162995594713657,19.24501552417798
4.182819383259912,19.38823598799622
4.2026431718061685,19.541422913304807
4.222466960352423,19.70375537176301
4.242290748898679,19.874385272767206
4.262114537444934,20.052444575439814
4.28193832599119,20.23705205412369
4.301762114537445,20.427319554101594
4.321585903083701,20.622357698182704
4.3414096916299565,20.821281025944025
4.361233480176212,21.023212565322375
4.381057268722468,21.22728785076785
4.400881057268723,21.432658413352346
4.420704845814979,21.63849477632706
4.440528634361234,21.84398899498206
4.46035242290749,22.048356782689137
4.4801762114537445,22.250839266124522
4.500000000000001,22.450704412284406
4.5198237885462555,22.64724816838882
4.539647577092512,22.839795353456164
4.559471365638767,23.0277003374893
4.579295154185023,23.210347541077237
4.599118942731278,23.387151784958363
4.618942731277533,23.557558515848466
4.63876651982379,23.721043931706106
4.658590308370044,23.877115026658725
4.678414096916301,24.02530957308459
4.6982378854625555,24.16519605586417
4.718061674008811,24.296373571585523
4.737885462555067,24.41847170351162
4.757709251101322,24.531150381380506
4.777533039647578,24.634099733598212
4.797356828193833,24.727039938080846
4.817180616740089,24.80972107688656
4.837004405286344,24.88192299882736
4.856828193832599,24.94345519344901
4.876651982378855,24.994156679091635
4.896475770925111,25.03389590717583
4.9162995594713665,25.0625706843835
4.936123348017622,25.080108114001266
4.955947136563877,25.086464557351476
4.975770925110133,25.08162561593921
4.995594713656388,25.06560613467681
5.015418502202644,25.03845022629955
5.035242290748899,25.000231316842058
5.055066079295155,24.95105221179447
5.07488986784141,24.891045182285
5.094713656387666,24.82037207032924
5.114537444933921,24.739224411832733
5.134361233480177,24.647823575616
5.154185022026432,24.546420916236055
5.174008810572688,24.435297937786462
5.193832599118943,24.314766465156275
5.213656387665199,24.185168818388732
5.2334801762114544,24.046877984794992
5.25330396475771,23.900297782314368
5.2731277533039655,23.74586300625823
5.292951541850221,23.584039550005066
5.312775330396477,23.415324488411937
5.332599118942731,23.240246110659957
5.352422907488988,23.0593638869437
5.372246696035242,22.873268350852353
5.392070484581499,22.682580876477466
5.4118942731277535,22.487953326249265
5.43171806167401,22.290067542294366
5.451541850220265,22.089634650795563
5.47136563876652,21.887394145526596
5.491189427312777,21.684112713569256
5.511013215859031,21.480582763394175
5.530837004405288,21.277620613227263
5.550660792951542,21.076064296231035
5.570484581497798,20.876770938837506
5.5903083700440535,20.680613669969848
5.610132158590309,20.48847802229687
5.6299559471365646,20.301257792510853
5.64977973568282,20.119850336309103
5.669603524229076,19.945151285633337
5.689427312775331,19.778048690998308
5.709251101321586,19.619416610460927
5.729074889867842,19.47010818872831
5.748898678414098,19.330948294564713
5.768722466960353,19.20272581115618
5.788546255506609,19.086185701184146
5.808370044052864,18.982020994454743
5.82819383259912,18.890864869150892
5.848017621145375,18.81328301609839
5.867841409691631,18.749766486863336
5.887665198237886,18.70072522926543
5.907488986784142,18.6664825067132
5.927312775330397,18.647270380031056
5.9471365638766525,18.64322640238701
5.966960352422908,18.654391640679183
5.986784140969164,18.680710092301922
6.00660792951542,18.722029517306495
6.026431718061675,18.77810365576338
6.04625550660793,18.848595751933015
6.066079295154186,18.933083263749747
6.085903083700441,19.031063600702822
6.105726872246697,19.141960707275473
6.125550660792952,19.26513229361963
6.145374449339208,19.399877510135468
6.1651982378854635,19.545444867319826
6.185022026431718,19.701040215239306
6.204845814977975,19.86583461644312
6.224669603524229,20.038971970039608
6.244493392070486,20.219576271019637
6.264317180616741,20.406758415901802
6.284140969162996,20.599622491882286
6.303964757709252,20.797271510733598
6.323788546255507,20.9988125699216
6.3436123348017635,21.20336144135146
6.363436123348018,21.410046602659737
6.3832599118942746,21.618012737118864
6.403083700440529,21.82642373626836
6.422907488986785,22.034465244680217
6.44273127753304,22.241346789226537
6.462555066079296,22.446303536263823
6.482378854625551,22.648597719698245
6.502202643171807,22.84751978131868
6.5220264317180625,23.042389262417235
6.541850220264318,23.23255548282725
6.561674008810574,23.41739804033319
6.581497797356829,23.59632716011299
6.601321585903085,23.768783920603703
6.62114537444934,23.934240379028278
6.640969162995596,24.092199616852472
6.6607929515418505,24.242195722699584
6.680616740088107,24.383793727757965
6.700440528634362,24.51658950647779
6.720264317180618,24.640209653372757
6.740088105726873,24.754311344998555
6.759911894273129,24.858582194668312
6.779735682819384,24.9527401061583
6.799559471365639,25.03653313154044
6.819383259911895,25.10973933732811
6.83920704845815,25.17216668231917
6.859030837004407,25.223652909844212
6.8788546255506615,25.26406545656253
6.898678414096917,25.29330137947115
6.918502202643173,25.311287302392703
6.938325991189428,25.317979382864763
6.958149779735684,25.313363300056878
6.977973568281939,25.297454264074197
6.997797356828195,25.27029704675765
7.01762114537445,25.23196603384525
7.037444933920705,25.18256529810694
7.0572687224669615,25.122228692788376
7.077092511013216,25.051119964390125
7.096916299559473,24.969432883448743
7.116740088105728,24.877391391561304
7.136563876651983,24.775249762391677
7.156387665198239,24.66329277379456
7.176211453744494,24.541835887475763
7.19603524229075,24.411225431755017
7.215859030837005,24.27183878198961
7.235682819383261,24.12408453203302
7.255506607929516,23.96840264871993
7.275330396475772,23.805264599769107
7.295154185022027,23.635173443658402
7.314977973568283,23.45866386793615
7.334801762114538,23.276302160082487
7.354625550660794,23.088686092420122
7.374449339207049,22.89644469970797
7.394273127753305,22.700237924959296
7.4140969162995605,22.50075610575728
7.433920704845816,22.298719269968696
7.453744493392072,22.094876206390566
7.473568281938327,21.890003272648165
7.493392070484583,21.68490289979598
7.513215859030838,21.480401750790463
7.533039647577093,21.277348488609974
7.552863436123348,21.076611109636772
7.572687224669605,20.87907379938536
7.59251101321586,20.685633271188397
7.612334801762115,20.49719455447139
7.6321585903083715,20.31466620817367
7.651982378854627,20.13895494704901
7.671806167400882,19.970959684223708
7.691629955947137,19.811565012533585
7.711453744493394,19.661634169580655
7.731277533039649,19.522001556604078
7.751101321585904,19.393464908249054
7.7709251101321595,19.276777237858152
7.790748898678416,19.172638709371025
7.81057268722467,19.081688610381512
7.830396475770926,19.004497619304605
7.850220264317182,18.94156057091584
7.870044052863436,18.89328992696842
7.889867841409693,18.86001015087678
7.909691629955948,18.841953166995456
7.929515418502204,18.839255056089982
7.9493392070484585,18.851954100385985
7.969162995594715,18.87999024617373
7.9889867841409705,18.92320600212162
8.008810572687224,18.981348740458696
8.02863436123348,19.05407431937996
8.048458149779737,19.140951901544813
8.068281938325994,19.24146980796513
8.088105726872246,19.35504222073206
8.107929515418503,19.481016532816074
8.12775330396476,19.618681138588443
8.147577092511014,19.767273463932845
8.167400881057269,19.925988048382997
8.187224669603525,20.093984511762926
8.207048458149782,20.2703952622619
8.226872246696036,20.454332829719547
8.246696035242293,20.64489673529411
8.266519823788547,20.841179835112367
8.286343612334802,21.0422740997941
8.306167400881058,21.247275813121576
8.325991189427315,21.45529019115177
8.345814977973568,21.66543543760169
8.365638766519824,21.876846262474835
8.38546255506608,22.08867689889517
8.405286343612337,22.300103658344888
8.42511013215859,22.510327067381194
8.444933920704846,22.71857362987272
8.464757709251103,22.924097258259668
8.484581497797357,23.126180415687354
8.504405286343614,23.32413500841946
8.524229074889869,23.517303064982524
8.544052863436125,23.705057235258327
8.56387665198238,23.886801139396432
8.583700440528636,24.06196959310686
8.60352422907489,24.230028732701868
8.623348017621145,24.39047606025928
8.643171806167402,24.542840426512285
8.662995594713658,24.686681966558076
8.682819383259913,24.821592001225806
8.702643171806168,24.947192914947127
8.722466960352424,25.06313801922397
8.74229074889868,25.16911140926522
8.762114537444935,25.26482782005512
8.78193832599119,25.350032486993253
8.801762114537446,25.424501015295277
8.821585903083701,25.488039261537647
8.841409691629957,25.540483230054612
8.861233480176212,25.581698986327375
8.881057268722468,25.61158258903084
8.900881057268723,25.630060042000675
8.92070484581498,25.63708726704279
8.940528634361234,25.63265009820836
8.960352422907489,25.61676429789121
8.980176211453745,25.58947559485308
9.000000000000002,25.55085974403576
9.019823788546258,25.50102260776286
9.039647577092511,25.44010025765467
9.059471365638768,25.368259096264126
9.079295154185024,25.28569599707502
9.099118942731279,25.192638461070487
9.118942731277533,25.089344787564674
9.13876651982379,24.97610425637456
9.158590308370046,24.85323731767407
9.1784140969163,24.721095785000884
9.198237885462555,24.58006302585198
9.218061674008812,24.430554143091648
9.237885462555067,24.273016138978342
9.257709251101323,24.10792805197646
9.27753303964758,23.93580105463539
9.297356828193834,23.757178498676005
9.317180616740089,23.5726358910149
9.337004405286345,23.382780781775907
9.356828193832602,23.188252542401948
9.376651982378855,22.989722008810645
9.396475770925111,22.78789096118919
9.416299559471367,22.58349140857072
9.436123348017622,22.3772846428894
9.455947136563877,22.170060023926265
9.475770925110133,21.962633453631128
9.49559471365639,21.75584549598819
9.515418502202644,21.55055909719167
9.5352422907489,21.34765686077036
9.555066079295155,21.148037833852698
9.57488986784141,20.95261376443738
9.594713656387666,20.762304795772497
9.614537444933923,20.578034573173465
9.634361233480178,20.400724751173154
9.654185022026432,20.231288905016715
9.674008810572689,20.070625870211053
9.693832599118945,19.91961255687658
9.713656387665198,19.779096311457206
9.733480176211454,19.649886925988472
9.75330396475771,19.532748423273794
9.773127753303967,19.42839077328777
9.792951541850222,19.337461719942237
9.812775330396477,19.260538915896888
9.832599118942733,19.198122574299173
9.852422907488988,19.15062884839436
9.872246696035244,19.118384141566313
9.892070484581499,19.101620530989912
9.911894273127754,19.1004724580189
9.93171806167401,19.114974798974377
9.951541850220266,19.145062383299074
9.971365638766521,19.190570974995133
9.991189427312776,19.25123968119482
10.011013215859032,19.32671470206542
10.030837004405289,19.416554292203983
10.050660792951543,19.520234767845928
10.070484581497798,19.63715736840382
10.090308370044054,19.766655765939795
10.11013215859031,19.908004012102236
10.129955947136565,20.060424717937995
10.14977973568282,20.2230972762989
10.169603524229077,20.395165957361026
10.189427312775331,20.575747732956003
10.209251101321588,20.76393971290951
10.229074889867842,20.958826104534843
10.248898678414099,21.159484633299527
10.268722466960353,21.364992387311087
10.28854625550661,21.574431069875136
10.308370044052865,21.786891662542395
10.32819383259912,22.001478515656462
10.348017621145376,22.217312894549764
10.367841409691632,22.433536017490464
10.387665198237887,22.649311626636194
10.407488986784141,22.86382813603586
10.427312775330398,23.076300401579612
10.447136563876654,23.285971157156172
10.466960352422909,23.492112159516118
10.486784140969164,23.694025081799065
10.50660792951542,23.891042192639468
10.526431718061675,24.08252685444961
10.546255506607931,24.26787387106523
10.566079295154186,24.44650971156581
10.585903083700442,24.617892633840302
10.605726872246697,24.781512728428385
10.625550660792953,24.9368919003656
10.645374449339208,25.083583804218186
10.665198237885463,25.22117374521835
10.685022026431719,25.349278557395294
10.704845814977975,25.467546467833433
