Frequency (Hz),Amplitude
0.0,1.1614080919027951
0.020066889632107024,1.1608227135810103
0.04013377926421405,1.159067169901784
0.060200668896321065,1.1561432341449842
0.0802675585284281,1.1520538598494554
0.10033444816053512,1.1468031779249996
0.12040133779264213,1.1403964926157748
0.14046822742474915,1.1328402763219942
0.1605351170568562,1.124142163288791
0.1806020066889632,1.114310942173348
0.20066889632107024,1.1033565475039384
0.22073578595317725,1.091290050047035
0.24080267558528426,1.0781236461015897
0.2608695652173913,1.063870645743135
0.2809364548494983,1.0485454600440811
0.3010033444816054,1.0321635873010693
0.3210702341137124,1.0147415983059842
0.34113712374581934,0.9962971207034615
0.3612040133779264,0.9768488224861928
0.3812709030100334,0.9564163946893721
0.4013377926421405,0.9350205333586528
0.42140468227424743,0.9126829208826448
0.4414715719063545,0.8894262068028586
0.4615384615384615,0.8652739882427912
0.4816053511705685,0.8402507901363541
0.5016722408026756,0.8143820454885851
0.5217391304347826,0.7876940759733244
0.5418060200668896,0.7602140732731821
0.5618729096989966,0.7319700817093204
0.5819397993311036,0.7029909829124997
0.6020066889632107,0.6733064835844492
0.6220735785953176,0.6429471078403594
0.6421404682274248,0.6119441962913111
0.6622073578595318,0.5803299150560669
0.6822742474916387,0.5481372795188433
0.7023411371237458,0.515400200282281
0.7224080267558528,0.48215356314381197
0.7424749163879598,0.4484333624379368
0.7625418060200668,0.4142769204415064
0.7826086956521738,0.37972325024471076
0.802675585284281,0.3448136673581017
0.8227424749163879,0.30959285320886226
0.8428093645484949,0.27411078702091674
0.862876254180602,0.23842646462578837
0.882943143812709,0.20261562078193912
0.903010033444816,0.16678844914915178
0.923076923076923,0.13113613145406652
0.9431438127090299,0.09607844008587595
0.963210702341137,0.06288010020242218
0.983277591973244,0.03723899831241566
1.0033444816053512,0.03924520161291347
1.0234113712374582,0.06643701943404173
1.0434782608695652,0.0999824563397157
1.0635451505016722,0.1351509445505834
1.0836120401337792,0.17084686570247556
1.1036789297658862,0.20669137850493854
1.1237458193979932,0.24250667641450796
1.1438127090301002,0.2781879166355467
1.1638795986622072,0.31366182937971804
1.1839464882943145,0.34887067739003114
1.2040133779264215,0.38376517591318227
1.2240802675585283,0.41830105034522674
1.2441471571906353,0.4524372348315244
1.2642140468227423,0.48613487507798486
1.2842809364548495,0.5193567525494538
1.3043478260869565,0.5520669419425404
1.3244147157190636,0.5842306038526325
1.3444816053511706,0.615813858871278
1.3645484949832773,0.6467837123502652
1.3846153846153846,0.6771080115619309
1.4046822742474916,0.7067554240435592
1.4247491638795986,0.7356954300426582
1.4448160535117056,0.7638983244704992
1.4648829431438126,0.7913352253144841
1.4849498327759196,0.8179780864408027
1.5050167224080266,0.8437997133554981
1.5250836120401337,0.8687737809143141
1.5451505016722407,0.8928748522564885
1.5652173913043477,0.9160783984336388
1.5852842809364547,0.9383608183411107
1.605351170568562,0.9596994586562432
1.625418060200669,0.9800726335572185
1.6454849498327757,0.99945964404706
1.6655518394648827,1.0178407967442757
1.6856187290969897,1.0351974220301507
1.705685618729097,1.0515118914631223
1.725752508361204,1.066767634387569
1.745819397993311,1.0809491536764895
1.765886287625418,1.0940420405577083
1.7859531772575248,1.10603298848119
1.806020066889632,1.1169098059914087
1.826086956521739,1.1266614285742211
1.846153846153846,1.1352779294520057
1.866220735785953,1.1427505293047024
1.8862876254180598,1.1490716048978966
1.9063545150501673,1.1542346966015742
1.926421404682274,1.1582345147864612
1.9464882943143813,1.1610669450865336
1.966555183946488,1.162729052519185
1.9866220735785953,1.163219084456212
2.0066889632107023,1.1625364724410971
2.026755852842809,1.160681832849741
2.0468227424749164,1.1576569663940965
2.0668896321070234,1.1534648564697823
2.0869565217391304,1.1481096663508743
2.1070234113712374,1.1415967352371892
2.1270903010033444,1.1339325731612557
2.1471571906354514,1.1251248547644404
2.1672240802675584,1.115182411954522
2.1872909698996654,1.1041152254587552
2.2073578595317724,1.0919344152902228
2.2274247491638794,1.0786522301480992
2.2474916387959865,1.0642820357760199
2.267558528428094,1.048838302307674
2.2876254180602005,1.0323365906331683
2.3076923076923075,1.014793537826494
2.3277591973244145,0.9962268416816816
2.3478260869565215,0.9766552444146386
2.367892976588629,0.9560985155996253
2.3879598662207355,0.934577434424274
2.408026755852843,0.9121137713665687
2.4280936454849495,0.8887302694227593
2.4481605351170566,0.8644506250490802
2.468227424749164,0.8392994690253945
2.4882943143812706,0.8133023475110773
2.508361204013378,0.7864857036483033
2.5284280936454846,0.7588768601871708
2.548494983277592,0.7305040037756405
2.568561872909699,0.7013961717998676
2.5886287625418056,0.6715832430149137
2.608695652173913,0.6410959337330876
2.6287625418060196,0.6099658021358939
2.648829431438127,0.5782252645114312
2.668896321070234,0.5459076291739766
2.688963210702341,0.5130471569947915
2.709030100334448,0.47967916276549966
2.7290969899665547,0.4458401807263806
2.749163879598662,0.4115682338458426
2.769230769230769,0.37690327663182543
2.789297658862876,0.3418879400397067
2.809364548494983,0.3065688279076814
2.82943143812709,0.27099887946794776
2.849498327759197,0.23524194103946788
2.869565217391304,0.19938232943861203
2.8896321070234112,0.16354699049002808
2.9096989966555182,0.1279644103407177
2.9297658862876252,0.09315431034297685
2.9498327759197323,0.060728379581008775
2.9698996655518393,0.03776798454510424
2.9899665551839463,0.04362428122895262
3.0100334448160533,0.07153156253984069
3.0301003344481603,0.10514417333006416
3.0501672240802673,0.14034065845860558
3.0702341137123748,0.176077531208699
3.0903010033444813,0.21197604494863195
3.1103678929765888,0.24785421027731014
3.1304347826086953,0.28360376920431635
3.1505016722408024,0.31914903885649776
3.1705685618729094,0.3544305916894823
3.1906354515050164,0.389397932873473
3.210702341137124,0.42400589525010507
3.2307692307692304,0.4582127337402621
3.250836120401338,0.49197906134760705
3.270903010033445,0.5252672298539472
3.2909698996655514,0.5580409584039053
3.311036789297659,0.5902651065999445
3.3311036789297654,0.6219055350842987
3.351170568561873,0.6529290208049398
3.3712374581939795,0.6833032073952435
3.391304347826087,0.7129965786098497
3.411371237458194,0.7419784471738199
3.4314381270903005,0.7702189540743011
3.451505016722408,0.7976890749864127
3.471571906354515,0.8243606315837638
3.491638795986622,0.8502063061740329
3.511705685618729,0.8751996585581676
3.531772575250836,0.8993151443217546
3.551839464882943,0.9225281339804275
3.5719063545150496,0.9448149325505454
3.591973244147157,0.9661527992218465
3.612040133779264,0.9865199668850811
3.632107023411371,1.0058956613230323
3.652173913043478,1.0242601199142887
3.672240802675585,1.0415946097298314
3.692307692307692,1.0578814449256053
3.712374581939799,1.0731040033520822
3.732441471571906,1.087246742315714
3.752508361204013,1.1002952134380004
3.7725752508361197,1.1122360765666404
3.7926421404682276,1.1230571127001272
3.8127090301003346,1.1327472358934463
3.832775919732441,1.1412965041166145
3.852842809364548,1.14869612904283
3.872909698996655,1.1549384847457156
3.8929765886287626,1.1600171152890753
3.9130434782608696,1.1639267411948
3.933110367892976,1.1666632647775592
3.953177257525083,1.168223774337056
3.9732441471571907,1.1686065472010663
3.9933110367892977,1.1678110516145543
4.013377926421405,1.1658379474722824
4.033444816053511,1.1626890858945012
4.053511705685618,1.1583675076474096
4.073578595317726,1.1528774404120854
4.093645484949833,1.1462242949081751
4.113712374581939,1.138414659880449
4.133779264214047,1.129456295959493
4.153846153846153,1.119358128410007
4.173913043478261,1.108130238783553
4.193979933110368,1.0957838554957704
4.214046822742475,1.0823313433522634
4.234113712374581,1.0677861920515197
4.254180602006689,1.0521630036989649
4.274247491638796,1.0354774793721797
4.294314381270903,1.0177464047856501
4.314381270903009,0.998987635112448
4.334448160535117,0.9792200790327862
4.354515050167224,0.9584636820940671
4.374581939799331,0.9367394094871626
4.394648829431437,0.9140692283685408
4.414715719063545,0.8904760898915306
4.434782608695651,0.8659839111543828
4.454849498327759,0.8406175573325839
4.474916387959866,0.8144028243444823
4.494983277591973,0.787366422512278
4.5150501672240795,0.7595359618377948
4.535117056856188,0.7309399397371001
4.555183946488294,0.7016077324004377
4.575250836120401,0.6715695914173592
4.595317725752508,0.6408566480111234
4.615384615384615,0.6095009282973162
4.635451505016722,0.577535384640235
4.655518394648829,0.5449939508129196
4.6755852842809364,0.5119116329472714
4.695652173913043,0.47832465542425384
4.71571906354515,0.44427069322488644
4.735785953177258,0.40978924440724346
4.7558528428093645,0.37492223767137295
4.775919732441471,0.3397150507102564
4.795986622073578,0.304218281824997
4.816053511705686,0.26849098499177887
4.8361204013377925,0.23260695521280134
4.856187290969899,0.1966679507084337
4.8762541806020065,0.16083453681170165
4.896321070234113,0.12540864192997353
4.916387959866221,0.0910999310822012
4.936454849498328,0.060121565810603246
4.956521739130435,0.04115489997784975
4.976588628762541,0.050453964711278575
4.996655518394649,0.07853713669201703
5.016722408026756,0.1120171001438996
5.036789297658863,0.14717467406985468
5.056856187290969,0.18294874343060005
5.076923076923077,0.21893151214461895
5.096989966555184,0.2549226678542631
5.117056856187291,0.2908028959552017
5.137123745819398,0.32648961104578567
5.157190635451505,0.3619188746266965
5.177257525083611,0.39703710857748314
5.197324414715719,0.4317969493983248
5.217391304347826,0.4661550278102929
5.237458193979933,0.5000707144885265
5.257525083612039,0.5335053817164626
5.277591973244148,0.5664219551518348
5.297658862876254,0.5987846359696178
5.317725752508361,0.6305587268185943
5.337792642140468,0.6617105230482189
5.357859531772575,0.6922072460810154
5.377926421404682,0.7220170046147325
5.397993311036789,0.7511087745425244
5.418060200668896,0.7794523916445877
5.438127090301003,0.8070185530815094
5.458193979933109,0.8337788249840342
5.478260869565218,0.859705654259991
5.498327759197324,0.8847723832894837
5.518394648829431,0.9089532665529774
5.538461538461538,0.9322234884941464
5.558528428093646,0.9545591821001863
5.578595317725752,0.9759374478099342
5.598662207357859,0.9963363724528014
5.618729096989966,1.015735047988724
5.638795986622073,1.0341135898690865
5.65886287625418,1.051453154875926
5.678929765886288,1.0677359583246486
5.698996655518394,1.082945290537394
5.719063545150501,1.097065532510631
5.739130434782608,1.110082170713903
5.759197324414716,1.121981810967091
5.7792642140468224,1.1327521913518879
5.799331103678929,1.142382194120323
5.8193979933110365,1.1508618565687168
5.839464882943144,1.1581823808504255
5.8595317725752505,1.164336142704922
5.879598662207358,1.169316699084384
5.8996655518394645,1.1731187946622281
5.919732441471571,1.175738367211058
5.9397993311036785,1.177172551840108
5.959866220735786,1.1774196840849893
5.9799331103678925,1.1764793018449315
5.999999999999999,1.1743521461651694
6.020066889632107,1.171040160864499
6.040133779264214,1.1665464910105363
6.060200668896321,1.1608754802476593
6.080267558528428,1.154032666985313
6.100334448160535,1.1460247794571619
6.120401337792642,1.1368597296645315
6.1404682274247495,1.1265466062212222
6.160535117056856,1.1150956661202898
6.180602006688963,1.1025183254479782
6.200668896321069,1.0888271490748167
6.2207357859531776,1.0740358393601417
6.240802675585284,1.058159223913095
6.260869565217391,1.0412132424621332
6.280936454849498,1.0232149328954308
6.301003344481605,1.0041824165480828
6.321070234113712,0.9841348828286384
6.341137123745819,0.9630925732988169
6.361204013377926,0.9410767653479614
6.381270903010033,0.9181097556397912
6.40133779264214,0.8942148435565311
6.421404682274248,0.8694163149291547
6.441471571906354,0.8437394264283858
6.461538461538461,0.8172103911085036
6.481605351170568,0.7898563657588824
6.501672240802676,0.761705440946101
6.521739130434782,0.7327866349548317
6.54180602006689,0.7031298933040986
6.561872909698996,0.6727660962047384
6.581939799331103,0.6417270773512416
6.60200668896321,0.6100456590067337
6.622073578595318,0.5777557107717046
6.642140468227424,0.5448922432944778
6.662207357859531,0.5114915544895757
6.682274247491639,0.4775914564159804
6.702341137123746,0.4432316293053078
6.722408026755852,0.4084541821663491
6.742474916387959,0.3733045610302131
6.762541806020066,0.33783306685190834
6.782608695652174,0.302097495886678
6.80267558528428,0.2661679703505127
6.822742474916388,0.23013635444913857
6.842809364548494,0.19413613829161463
6.862876254180601,0.1583889584506053
6.882943143812709,0.12332890827694462
6.903010033444816,0.08999634168782111
6.9230769230769225,0.061526423700757
6.94314381270903,0.04782976629373986
6.963210702341137,0.06011423641445965
6.983277591973244,0.0880910056167906
7.0033444816053505,0.1212914857376988
7.023411371237458,0.15634003845873387
7.0434782608695645,0.19213075348534758
7.063545150501672,0.22820833203954685
7.083612040133779,0.264342808148048
7.103678929765886,0.300396836450287
7.123745819397993,0.3362764888111837
7.143812709030099,0.37191037438134567
7.1638795986622075,0.4072398070438331
7.183946488294314,0.44221378337824935
7.204013377926421,0.4767862474958465
7.224080267558528,0.5109145232795382
7.2441471571906355,0.5445583786371607
7.264214046822742,0.5776794491727215
7.2842809364548495,0.6102408749510955
7.304347826086956,0.642207068177961
7.324414715719063,0.673543563800864
7.34448160535117,0.7042169240252386
7.364548494983278,0.7341946786772157
7.384615384615384,0.7634452898506686
7.404682274247491,0.79193813325871
7.424749163879598,0.8196434912095637
7.444816053511706,0.8465325537342584
7.464882943143812,0.8725774254474377
7.48494983277592,0.8977511364279964
7.505016722408026,0.9220276558862851
7.525083612040134,0.9453819077163408
7.545150501672239,0.9677897872652437
7.565217391304348,0.9892281788172422
7.585284280936455,1.0096749734103243
7.605351170568561,1.0291090866904606
7.625418060200669,1.047510476573377
7.645484949832775,1.0648601605321284
7.665551839464882,1.0811402323655177
7.685618729096991,1.0963338783304997
7.705685618729096,1.1104253925428091
7.725752508361204,1.1234001915683856
7.74581939799331,1.1352448281401102
7.765886287625418,1.145947003946326
7.785953177257525,1.1554955814460426
7.806020066889631,1.1638805946729693
7.826086956521739,1.171093258996731
7.846153846153847,1.177125979814899
7.866220735785952,1.1819723601538414
7.88628762541806,1.1856272071605638
7.906354515050166,1.1880865374711442
7.926421404682274,1.1893475814450067
7.946488294314381,1.1894087862568814
7.966555183946488,1.188269817841931
7.986622073578595,1.1859315616918793
8.006688963210701,1.1823961225032802
8.02675585284281,1.1776668226819291
8.046822742474916,1.1717481997105148
8.066889632107022,1.1646460023900465
8.08695652173913,1.1563671859691431
8.107023411371236,1.146919906179095
8.127090301003344,1.136313512197514
8.147157190635452,1.1245585385679668
8.167224080267557,1.1116666961095
8.187290969899665,1.0976508618564134
8.207357859531772,1.0825250680777576
8.227424749163879,1.0663044904355603
8.247491638795987,1.049005435353667
8.267558528428093,1.0306453266848503
8.2876254180602,1.011242691783013
8.307692307692307,0.9908171471125534
8.327759197324415,0.9693893835588471
8.347826086956522,0.9469811516453851
8.367892976588628,0.9236152469176426
8.387959866220736,0.8993154958260688
8.408026755852843,0.8741067425372901
8.42809364548495,0.848014837234399
8.448160535117056,0.8210666266468555
8.468227424749163,0.7932899478008405
8.488294314381271,0.7647136263326272
8.508361204013378,0.735367481209105
8.528428093645484,0.7052823384258502
8.548494983277592,0.6744900573212861
8.568561872909697,0.6430235747451408
8.588628762541806,0.6109169747598355
8.608695652173914,0.5782055953564676
8.628762541806019,0.5449261897311811
8.648829431438127,0.5111171695877712
8.668896321070234,0.47681897462900513
8.68896321070234,0.442074641414884
8.709030100334449,0.4069306970444778
8.729096989966555,0.37143860126072775
8.749163879598662,0.3356571537253564
8.769230769230768,0.29965668467467393
8.789297658862875,0.263526736666015
8.809364548494983,0.2273910701487191
8.82943143812709,0.19143937690201537
8.849498327759196,0.1560011986440096
8.869565217391303,0.1217401772094147
8.889632107023411,0.09023632968765406
8.909698996655518,0.0658130790784787
8.929765886287624,0.0583489778094962
8.949832775919733,0.07326866248389524
8.96989966555184,0.10107784358018293
8.989966555183946,0.13391236117749195
9.010033444816054,0.16877996344936488
9.030100334448159,0.20454512904695563
9.050167224080267,0.24070063420083776
9.070234113712376,0.2769800904203972
9.09030100334448,0.31322258269843795
9.110367892976589,0.3493187647956371
9.130434782608695,0.38518684817835647
9.150501672240802,0.42076089299834313
9.17056856187291,0.4559846666346141
9.190635451505017,0.49080822690231607
9.210702341137123,0.5251859279149473
9.23076923076923,0.5590752101975739
9.250836120401337,0.5924358434584827
9.270903010033445,0.6252294410975513
9.290969899665551,0.6574191434545137
9.311036789297658,0.6889694089512057
9.331103678929765,0.7198458759940373
9.351170568561873,0.7500152723106557
9.37123745819398,0.779445356685672
9.391304347826086,0.808104883176644
9.411371237458194,0.8359635811278107
9.4314381270903,0.8629921463916803
9.451505016722408,0.8891622405501243
9.471571906354516,0.914446495854855
9.49163879598662,0.9388185242421676
9.511705685618729,0.962252929217882
9.531772575250837,0.9847253197190118
9.551839464882942,1.006212325280906
9.57190635451505,1.0266916119989273
9.591973244147155,1.0461418988916493
9.612040133779264,1.0645429743596693
9.632107023411372,1.0818757124990552
9.652173913043477,1.0981220890784795
9.672240802675585,1.1132651970262462
9.692307692307692,1.127289261303418
9.712374581939798,1.1401796530613242
9.732441471571907,1.1519229030007903
9.752508361204013,1.1625067138639449
9.77257525083612,1.1719199720020665
9.792642140468226,1.1801527579719941
9.812709030100335,1.1871963561220358
9.832775919732441,1.1930432631348897
9.852842809364548,1.1976871955012065
9.872909698996656,1.2011230959023405
9.89297658862876,1.203347138485722
9.91304347826087,1.204356733020236
9.933110367892976,1.2041505279233744
9.953177257525082,1.2027284121552424
9.97324414715719,1.200091515978832
9.993311036789297,1.1962422105892
10.013377926421404,1.1911841066185889
10.033444816053512,1.184922051528362
10.053511705685617,1.1774621259032305
10.073578595317725,1.1688116386681215
10.093645484949834,1.1589791212536418
10.113712374581938,1.1479743207424016
10.133779264214047,1.135808192035765
10.153846153846153,1.1224928890895667
10.17391304347826,1.1080417552773365
10.193979933110368,1.092469312952712
10.214046822742475,1.0757912522978395
10.234113712374581,1.058024419564041
10.254180602006688,1.0391868048350943
10.274247491638796,1.0192975294739892
10.294314381270903,0.998376833453303
10.31438127090301,0.9764460628195571
10.334448160535118,0.9535276576082748
10.354515050167223,0.929645140612635
10.37458193979933,0.9048231075248682
10.394648829431437,0.879087219124193
10.414715719063544,0.8524641963969576
10.434782608695652,0.8249818197646076
10.454849498327757,0.7966689339999542
10.474916387959865,0.7675554609823333
10.494983277591974,0.7376724232579399
10.515050167224079,0.707051982555932
10.535117056856187,0.6757274991568614
10.555183946488295,0.6437336206334746
10.5752508361204,0.6111064124964252
10.595317725752508,0.577883549550539
10.615384615384615,0.5441045968004908
10.635451505016722,0.5098114252083829
10.65551839464883,0.4750488354034316
10.675585284280936,0.43986551089591763
10.695652173913043,0.4043155098840306
10.71571906354515,0.36846066943781525
10.735785953177256,0.3323746203611575
