Time (s),Filtered Signal
0.0,0.01107730647894891
0.033370165745856356,0.22118398640765086
0.06674033149171271,0.39538559151430414
0.10011049723756907,0.5053926292881206
0.13348066298342542,0.5355507146882916
0.16685082872928178,0.4854383678227138
0.20022099447513814,0.3691151399873952
0.2335911602209945,0.21136227396941948
0.26696132596685085,0.041918002744996324
0.30033149171270723,-0.11093144934184337
0.33370165745856356,-0.22599947312536384
0.3670718232044199,-0.29289476055672437
0.4004419889502763,-0.31300115525613226
0.43381215469613266,-0.29757724556006776
0.467182320441989,-0.2635060136391416
0.5005524861878453,-0.22786857412593445
0.5339226519337017,-0.20291307586079474
0.5672928176795581,-0.19295305666850515
0.6006629834254145,-0.194169551183778
0.6340331491712707,-0.19731165608293988
0.6674033149171271,-0.19221702831079257
0.7007734806629835,-0.1723528925752918
0.7341436464088398,-0.13756358736137816
0.7675138121546962,-0.0939595947268455
0.8008839779005525,-0.05109075278590248
0.8342541436464089,-0.01767983711057059
0.8676243093922653,0.002243766284536669
0.9009944751381216,0.011193743334029399
0.934364640883978,0.017313437565710684
0.9677348066298344,0.031079340243522054
1.0011049723756906,0.060935781784482564
1.0344751381215471,0.10957925690772177
1.0678453038674034,0.17235454629046013
1.1012154696132597,0.2384159586799053
1.1345856353591162,0.2942545171656766
1.1679558011049724,0.3282936899424627
1.201325966850829,0.33484520070387314
1.2346961325966852,0.31594040244885857
1.2680662983425415,0.28033802169228617
1.301436464088398,0.24008967465995973
1.3348066298342542,0.2060237662401337
1.3681767955801105,0.1839659261002551
1.401546961325967,0.17318224440794736
1.4349171270718233,0.16748932310424136
1.4682872928176796,0.1582119556572026
1.501657458563536,0.1373791354061525
1.5350276243093923,0.09970407243539745
1.5683977900552488,0.042882595726592136
1.601767955801105,-0.03310396707601786
1.6351381215469614,-0.12646007148383845
1.6685082872928179,-0.23301824953971412
1.7018784530386741,-0.34489106210437676
1.7352486187845306,-0.4494998626812025
1.768618784530387,-0.5303326249738954
1.8019889502762432,-0.5700797969856184
1.8353591160220997,-0.5555720924538201
1.868729281767956,-0.48282287222964626
1.9020994475138122,-0.3600254408367156
1.9354696132596687,-0.20684743781179982
1.968839779005525,-0.04968911356945793
2.0022099447513813,0.08574758759890569
2.0355801104972375,0.18190765962887717
2.0689502762430942,0.2338957227178511
2.1023204419889505,0.24916872201319062
2.135690607734807,0.24259830026464888
2.169060773480663,0.22921103195866177
2.2024309392265193,0.21797291505621622
2.235801104972376,0.2093759951447009
2.2691712707182323,0.1975923883461315
2.3025414364640886,0.17562224325049333
2.335911602209945,0.14040568002487366
2.369281767955801,0.09505881531347325
2.402651933701658,0.047129978561390756
2.436022099447514,0.004123081316852784
2.4693922651933704,-0.03080599208679181
2.5027624309392267,-0.06010854724241234
2.536132596685083,-0.08902198779913822
2.5695027624309392,-0.1203177164857569
2.602872928176796,-0.15021093062117782
2.636243093922652,-0.1688625498548748
2.6696132596685085,-0.16636908953591237
2.7029834254143648,-0.14141967318942403
2.736353591160221,-0.10707299054406717
2.7697237569060777,-0.08836720434998353
2.803093922651934,-0.11027814317539913
2.8364640883977903,-0.18036564487592768
2.8698342541436466,-0.2751816835576355
2.903204419889503,-0.3399859090991656
2.936574585635359,-0.30620145580686825
2.969944751381216,-0.12208605369426075
3.003314917127072,0.21629977293887634
3.0366850828729284,0.6496312829092904
3.0700552486187846,1.0659692522334472
3.103425414364641,1.3365532798416901
3.1367955801104976,1.3633576752163505
3.170165745856354,1.1182649660321649
3.20353591160221,0.6564300091417741
3.2369060773480665,0.09758118020151581
3.2702762430939227,-0.41677071700752105
3.3036464088397794,-0.7719281166591863
3.3370165745856357,-0.9146033693403002
3.370386740331492,-0.861318027378776
3.4037569060773483,-0.6808283040334834
3.4371270718232045,-0.4616035164645766
3.4704972375690613,-0.2796102270812548
3.5038674033149175,-0.1783471801204718
3.537237569060774,-0.16524135240473525
3.57060773480663,-0.22082586940221566
3.6039779005524863,-0.31311128112373904
3.6373480662983426,-0.4100732095409449
3.6707182320441993,-0.48662685349468965
3.7040883977900556,-0.5262928473866003
3.737458563535912,-0.5200155454897941
3.770828729281768,-0.4647099555425867
3.8041988950276244,-0.3627883158352041
3.837569060773481,-0.22236977271067737
3.8709392265193374,-0.05705218643899661
3.9043093922651937,0.11570278826816811
3.93767955801105,0.2776770010501563
3.9710497237569062,0.41367328085342214
4.0044198895027625,0.5146368119044379
4.037790055248619,0.5789433695684983
4.071160220994475,0.6113819661496125
4.104530386740332,0.6202753126434283
4.1379005524861885,0.6138945346339988
4.171270718232044,0.5975449183622119
4.204640883977901,0.5723738971146135
4.238011049723757,0.5362453293835313
4.271381215469614,0.4862089369848232
4.30475138121547,0.42144722119017713
4.338121546961326,0.3453285558393823
4.371491712707183,0.26546903823071094
4.404861878453039,0.1914858820166597
4.438232044198895,0.13116956531328516
4.471602209944752,0.086676195212891
4.504972375690608,0.05259007429368969
4.538342541436465,0.01709901435195462
4.5717127071823205,-0.0337686600881604
4.605082872928177,-0.1103301014971096
4.638453038674034,-0.21423251377553706
4.67182320441989,-0.3364806501864248
4.7051933701657465,-0.45957872904452013
4.738563535911602,-0.5631215395153987
4.771933701657459,-0.6306430452276579
4.805303867403316,-0.6549354542698611
4.8386740331491715,-0.6397047240476714
4.872044198895028,-0.5970564620484993
4.905414364640884,-0.542143165724329
4.938784530386741,-0.48746439830254257
4.972154696132597,-0.4392546028669355
5.005524861878453,-0.39720420936585116
5.03889502762431,-0.35708482582488993
5.072265193370166,-0.3145378761989977
5.105635359116023,-0.2679584023291592
5.1390055248618784,-0.21916469474312472
5.172375690607735,-0.17193663947269996
5.205745856353592,-0.12973558322851525
5.239116022099448,-0.09424843153438607
5.272486187845304,-0.06558707970347238
5.30585635359116,-0.04351300230391813
5.339226519337017,-0.027981880657615664
5.372596685082874,-0.01756813546048124
5.4059668508287295,-0.006065995826270226
5.439337016574586,0.02024103097008896
5.472707182320442,0.08119201299411681
5.506077348066299,0.19533584619758199
5.5394475138121555,0.36838698467448217
5.572817679558011,0.5834850753368733
5.606187845303868,0.800651727196118
5.639558011049724,0.9697944807948551
5.672928176795581,1.0545721836375805
5.706298342541437,1.0566423660687645
5.739668508287293,1.0259044229983338
5.77303867403315,1.0459085309622334
5.806408839779006,1.194681205908174
5.839779005524862,1.4953982611721872
5.873149171270718,1.8811555744627624
5.906519337016575,2.196718827021215
5.939889502762432,2.2456261855770254
5.9732596685082875,1.868685422244808
6.006629834254144,1.0208442223737246
6.04,-0.19095392920152215
6.073370165745857,-1.5311789976063868
6.1067403314917135,-2.714024733316435
6.140110497237569,-3.5029516862303556
6.173480662983426,-3.7871265561253313
6.206850828729282,-3.6026816617482584
6.240220994475139,-3.0948935614442954
6.273591160220995,-2.4454863801087385
6.306961325966851,-1.8023272222055506
6.340331491712708,-1.2415576992954651
6.373701657458564,-0.7711921172176467
6.40707182320442,-0.3634754170668445
6.440441988950277,0.007765238004430867
6.473812154696133,0.34519826449936697
6.50718232044199,0.6288187642990474
6.5405524861878455,0.8329195978216449
6.573922651933702,0.9453283138270165
6.607292817679559,0.9768227706545125
6.640662983425415,0.9565648989780033
6.674033149171271,0.917981766495157
6.707403314917127,0.8841334723396055
6.740773480662984,0.8605777008796028
6.774143646408841,0.8385624110616452
6.8075138121546965,0.8053592662039437
6.840883977900553,0.7549484570900195
6.874254143646409,0.6927466711757182
6.907624309392266,0.6320425865786544
6.9409944751381225,0.5848544586535601
6.974364640883978,0.5531613364823943
7.007734806629835,0.5261064443717328
7.041104972375691,0.48513297327200333
7.074475138121548,0.4142663697583928
7.107845303867403,0.3096861761694589
7.14121546961326,0.18311174460873406
7.174585635359117,0.05709105033986052
7.207955801104973,-0.045124922705443916
7.241325966850829,-0.10955157979074624
7.274696132596685,-0.136164384315098
7.308066298342542,-0.13654227296906496
7.341436464088399,-0.12674956312365163
7.3748066298342545,-0.1200500258527866
7.408176795580111,-0.12336899148487199
7.441546961325967,-0.13846827364182104
7.474917127071824,-0.16564431460165277
7.5082872928176805,-0.20644061638593864
7.541657458563536,-0.2630987140419038
7.575027624309393,-0.3352629755089462
7.608397790055249,-0.41679915245909227
7.641767955801106,-0.49580179320115686
7.675138121546962,-0.5587226919656544
7.708508287292818,-0.5964849275019607
7.741878453038675,-0.6086333756168618
7.775248618784531,-0.6024360248814896
7.808618784530387,-0.5869995513382136
7.841988950276244,-0.5658723281711326
7.8753591160221,-0.5329623127484608
7.908729281767957,-0.4748620337185156
7.9420994475138125,-0.37881765835991305
7.975469613259669,-0.24197834776278318
8.008839779005525,-0.0764841833180333
8.042209944751383,0.09288817917808022
8.075580110497238,0.237689552289051
8.108950276243094,0.33692407996322676
8.14232044198895,0.38483048570565415
8.175690607734808,0.3917522339775064
8.209060773480664,0.3781715704225891
8.24243093922652,0.3652293049656818
8.275801104972377,0.36628647901945904
8.309171270718233,0.38297229488432427
8.342541436464089,0.4066246280801402
8.375911602209946,0.42354454893670157
8.409281767955802,0.4212269492550465
8.442651933701658,0.3930064482551593
8.476022099447514,0.339829891307942
8.509392265193371,0.2692324806821683
8.542762430939227,0.19240817779034808
8.576132596685083,0.12045908783267248
8.60950276243094,0.06083501894333047
8.642872928176796,0.014948579872393876
8.676243093922652,-0.022087367907252527
8.709613259668508,-0.05905800341306226
8.742983425414366,-0.10402385968968578
8.776353591160222,-0.15918023137846524
8.809723756906077,-0.2176730247106792
8.843093922651935,-0.2644239248719031
8.87646408839779,-0.2813356906306083
8.909834254143647,-0.25504875676105787
8.943204419889504,-0.1838744279267775
8.97657458563536,-0.08055040548909892
9.009944751381216,0.030841568464304112
9.043314917127072,0.12286521178965862
9.07668508287293,0.17445213002969384
9.110055248618785,0.17834795693070096
9.143425414364641,0.14320900069553824
9.176795580110499,0.08952345081166146
9.210165745856354,0.04108210196567938
9.24353591160221,0.015501098193339422
9.276906077348068,0.017603271000791607
9.310276243093924,0.03822413147718438
9.34364640883978,0.05877296902801449
9.377016574585635,0.05957097897074893
9.410386740331493,0.028520496766839643
9.443756906077349,-0.03341984518929075
9.477127071823205,-0.11218057182137038
9.510497237569062,-0.18602973142878354
9.543867403314918,-0.23443763359823871
9.577237569060774,-0.24687417900320396
9.610607734806631,-0.2279369196639844
9.643977900552487,-0.19644439159624552
9.677348066298343,-0.17834450926563575
9.710718232044199,-0.19574765233633648
9.744088397790057,-0.2562030062712049
9.777458563535912,-0.34671936831888267
9.810828729281768,-0.4356351542396722
9.844198895027626,-0.4825601267647948
9.877569060773482,-0.4532178452458244
9.910939226519337,-0.3335222438977053
9.944309392265193,-0.1369226636259607
9.97767955801105,0.09855545654949115
10.011049723756907,0.32284747082984006
10.044419889502763,0.49095027189517754
10.07779005524862,0.5774612861520955
10.111160220994476,0.5826748853771204
10.144530386740332,0.5283776538650277
10.17790055248619,0.44620034046629226
10.211270718232045,0.3643956527718929
10.244640883977901,0.298854911460599
10.278011049723757,0.2513932426954324
10.311381215469615,0.21451397212300694
10.34475138121547,0.17901065138952482
10.378121546961326,0.14012887687461775
10.411491712707184,0.09955797494420263
10.44486187845304,0.06313892635251975
10.478232044198895,0.03637877924087112
10.511602209944753,0.020614941143921785
10.544972375690609,0.011845846967162036
10.578342541436465,0.0025372769197372475
10.61171270718232,-0.014852405926547478
10.645082872928178,-0.04455280380127402
10.678453038674034,-0.08590181925148062
10.71182320441989,-0.13398143212143132
10.745193370165747,-0.18185243188068717
10.778563535911603,-0.22316573131158296
10.811933701657459,-0.2539924263742358
10.845303867403315,-0.2732843400515988
10.878674033149172,-0.2820902322133131
10.912044198895028,-0.2821629071021188
10.945414364640884,-0.2747194059136604
10.978784530386742,-0.259888980363177
11.012154696132598,-0.236975837444089
11.045524861878453,-0.20528251333802863
11.078895027624311,-0.16502722661785948
11.112265193370167,-0.11788739085185662
11.145635359116023,-0.06688210353385386
11.179005524861878,-0.015605738748556466
11.212375690607736,0.03285232806032371
11.245745856353592,0.07676367011778547
11.279116022099448,0.1159204837551705
11.312486187845305,0.15099442141906805
11.345856353591161,0.18247284203231334
11.379226519337017,0.20982066756991619
11.412596685082875,0.23135120999980854
11.44596685082873,0.2447898247726414
11.479337016574586,0.24805685728531857
11.512707182320442,0.23973325011200108
11.5460773480663,0.21903398335753796
11.579447513812156,0.18558668099330689
11.612817679558011,0.13950177018185897
11.646187845303869,0.08197097394526251
11.679558011049725,0.016133515537088784
11.71292817679558,-0.05241874782580731
11.746298342541436,-0.11608185619574038
11.779668508287294,-0.16675563682957634
11.81303867403315,-0.1979696015798669
11.846408839779006,-0.2067691105225915
11.879779005524863,-0.19454978511804982
11.91314917127072,-0.16645447871697208
11.946519337016575,-0.12954071370099293
11.979889502762433,-0.09042620974593167
12.013259668508288,-0.053341103039224666
12.046629834254144,-0.019376084373416126
12.08,0.012768723310559244
12.113370165745858,0.044913404715809443
12.146740331491714,0.07736747527704711
12.18011049723757,0.10782907821788798
12.213480662983427,0.1318306359722277
12.246850828729283,0.14449951547919368
12.280220994475139,0.14268676744411662
12.313591160220996,0.12636938059474795
12.346961325966852,0.09870624439944403
12.380331491712708,0.06488115328279237
12.413701657458564,0.030424064301908187
12.447071823204421,-0.0002152729978449602
12.480441988950277,-0.024402330663329527
12.513812154696133,-0.04138221114863066
12.54718232044199,-0.05197626630656749
12.580552486187846,-0.05819388004016424
12.613922651933702,-0.06281896658575951
12.64729281767956,-0.06882855341819126
12.680662983425416,-0.07850838723484764
12.714033149171271,-0.09237237237372424
12.747403314917127,-0.1083116142349648
12.780773480662985,-0.12155284368419918
12.81414364640884,-0.12581796342754012
12.847513812154697,-0.11555680276130806
12.880883977900554,-0.08850327742647512
12.91425414364641,-0.04743391365165022
12.947624309392266,-0.00016318680254049405
12.980994475138122,0.042504103937060424
13.01436464088398,0.07024023365985427
13.047734806629835,0.07680044406684944
13.081104972375691,0.06240591983300124
13.114475138121549,0.03404929930690738
13.147845303867404,0.003666497632294382
13.18121546961326,-0.015184489078848338
13.214585635359118,-0.011151719245197434
13.247955801104974,0.021555047392131783
13.28132596685083,0.08106347737313184
13.314696132596685,0.15752346130051573
13.348066298342543,0.23480283643117514
13.381436464088399,0.2939895364050951
13.414806629834255,0.31796432333335994
13.448176795580112,0.2958627539995563
13.481546961325968,0.22613103344265767
13.514917127071824,0.1172173765431382
13.548287292817681,-0.014368588538325277
13.581657458563537,-0.14809981526028299
13.615027624309393,-0.2644139635831362
13.648397790055249,-0.3491752047846999
13.681767955801106,-0.3962909649640796
13.715138121546962,-0.40771296321203226
13.748508287292818,-0.3909182350222682
13.781878453038676,-0.35490082407267887
13.815248618784532,-0.30634295765352776
13.848618784530387,-0.2476202776424205
13.881988950276245,-0.17750534776554444
13.9153591160221,-0.09413843015534178
13.948729281767957,0.0013521899187422175
13.982099447513813,0.10261664846862069
14.01546961325967,0.19861235973461414
14.048839779005526,0.27681805861743813
14.082209944751382,0.32759802004191907
14.11558011049724,0.3475575021426102
14.148950276243095,0.3402974045318915
14.182320441988951,0.3143734592680745
14.215690607734807,0.2796602715173904
14.249060773480664,0.24394911495288998
14.28243093922652,0.21122004201027852
14.315801104972376,0.18196378826447243
14.349171270718234,0.15484319249319953
14.38254143646409,0.12844593429182816
14.415911602209945,0.102086424840654
14.449281767955803,0.07535159157726101
14.482651933701659,0.04690860952265835
14.516022099447515,0.013577086310099308
14.54939226519337,-0.02940730487331634
14.582762430939228,-0.08660172172307753
14.616132596685084,-0.15954477166502373
14.64950276243094,-0.2441561869419889
14.682872928176797,-0.3298315020556957
14.716243093922653,-0.40127885965319016
14.749613259668509,-0.44304341261270985
14.782983425414367,-0.4452547541541051
14.816353591160222,-0.40808392555613043
14.849723756906078,-0.34244106333526175
14.883093922651934,-0.26591164086601266
14.916464088397792,-0.19533535250000508
14.949834254143648,-0.13952140071235597
14.983204419889503,-0.09598890466537514
15.016574585635361,-0.0537587716538712
15.049944751381217,-0.0009215880543431865
15.083314917127073,0.06716117288608135
15.116685082872928,0.14379111216430718
15.150055248618786,0.21361463345668694
15.183425414364642,0.2608752843419932
15.216795580110498,0.2787923256173299
15.250165745856355,0.2747368070215465
15.283535911602211,0.26788721301232216
15.316906077348067,0.27991557259635813
15.350276243093925,0.3230178357217927
15.38364640883978,0.3913561390864069
15.417016574585636,0.46075269825459925
15.450386740331492,0.49768001235675113
15.48375690607735,0.4739331701226961
15.517127071823205,0.3801540576476342
15.550497237569061,0.2314170397136722
15.583867403314919,0.061662793789471794
15.617237569060775,-0.09072886290014645
15.65060773480663,-0.19932500432033104
15.683977900552488,-0.2599047136847696
15.717348066298344,-0.28956073888889877
15.7507182320442,-0.3153189948250498
15.784088397790056,-0.35832075740388486
15.817458563535913,-0.4217558235084555
15.85082872928177,-0.4885879199089063
15.884198895027625,-0.5299386327359821
15.917569060773483,-0.5195971143045696
15.950939226519338,-0.447262040772547
15.984309392265194,-0.32408992214246946
16.01767955801105,-0.17819813470283274
16.051049723756908,-0.0427374898567364
16.084419889502765,0.05748680850866285
16.11779005524862,0.11462099979522693
16.151160220994477,0.13810208851064285
16.18453038674033,0.14736748881862213
16.21790055248619,0.16101389288831233
16.251270718232046,0.18771765332387585
16.2846408839779,0.2229384111965022
16.318011049723758,0.25246468625166246
16.351381215469615,0.26068563449909055
16.38475138121547,0.239454282220472
16.418121546961327,0.1932973952905329
16.451491712707185,0.13846464127893776
16.48486187845304,0.09611267834362787
16.518232044198896,0.08259764465775055
16.551602209944754,0.10125712802300581
16.584972375690608,0.13956493052510144
16.618342541436466,0.17329961397445792
16.651712707182323,0.176300562929099
16.685082872928177,0.13181132360936323
16.718453038674035,0.04049969115319346
16.751823204419892,-0.07850603422002447
16.785193370165747,-0.19427504758059208
16.818563535911604,-0.275768183129221
16.851933701657458,-0.30366691632122866
16.885303867403316,-0.2773750889172145
16.918674033149173,-0.21437850611415407
16.952044198895027,-0.14247600604216248
16.985414364640885,-0.08835533916062493
17.018784530386743,-0.06728991061070903
17.052154696132597,-0.07794952522856963
17.085524861878454,-0.1039877197418928
17.118895027624312,-0.12131816138815925
17.152265193370166,-0.10795521226867658
17.185635359116024,-0.05263998753973432
17.21900552486188,0.040750957496640657
