Frequency (Hz),Amplitude
0.0,4.555536687585715
0.019823788546255508,4.5537740488453355
0.039647577092511016,4.548488993635369
0.059471365638766524,4.5396901108323
0.07929515418502203,4.5273917348154
0.09911894273127755,4.511613975226691
0.11894273127753305,4.492382759406004
0.13876651982378857,4.469729888287411
0.15859030837004406,4.443693106790534
0.17841409691629956,4.414316190003352
0.1982378854625551,4.381649046738257
0.2180616740088106,4.3457478423519955
0.2378854625550661,4.306675143059336
0.25770925110132165,4.264500084341328
0.27753303964757714,4.2192985664576765
0.29735682819383263,4.171153480521131
0.31718061674008813,4.120154969081304
0.3370044052863437,4.066400725697566
0.3568281938325991,4.00999633855149
0.37665198237885467,3.951055683751879
0.3964757709251102,3.889701374606216
0.41629955947136565,3.8260652737477074
0.4361233480176212,3.7602890755795304
0.4559471365638767,3.6925249669714812
0.4757709251101322,3.6229363744347824
0.49559471365638774,3.551698805987041
0.5154185022026433,3.4790007954301165
0.5352422907488987,3.4050449555592524
0.5550660792951543,3.3300491445740215
0.5748898678414097,3.2542477462309374
0.5947136563876653,3.177893058482945
0.6145374449339208,3.1012567767502954
0.6343612334801763,3.024631545639265
0.6541850220264318,2.9483325357794437
0.6740088105726874,2.8726989792847144
0.6938325991189428,2.7980955669785215
0.7136563876651982,2.7249135720749766
0.7334801762114539,2.6535715183411415
0.7533039647577093,2.5845151572137186
0.7731277533039648,2.518216461695439
0.7929515418502204,2.4551712925714746
0.8127753303964759,2.395895356885115
0.8325991189427313,2.3409180775069274
0.8524229074889869,2.29077404849678
0.8722466960352424,2.2459918874736178
0.8920704845814978,2.2070805311491486
0.9118942731277534,2.1745133547335604
0.931718061674009,2.1487109027204734
0.9515418502202644,2.1300234338365933
0.9713656387665199,2.118714810197784
0.9911894273127755,2.1149493916280906
1.0110132158590308,2.1187834471455447
1.0308370044052866,2.1301621477680603
1.0506607929515421,2.1489225260242315
1.0704845814977975,2.174802021464329
1.090308370044053,2.2074515517678246
1.1101321585903086,2.24645159962841
1.1299559471365639,2.2913296549012334
1.1497797356828194,2.3415774809236067
1.1696035242290752,2.3966670002085095
1.1894273127753305,2.4560640096008597
1.209251101321586,2.519239341873269
1.2290748898678416,2.5856774256766624
1.248898678414097,2.6548824312107477
1.2687224669603525,2.7263823259944737
1.288546255506608,2.7997312213999623
1.3083700440528636,2.874510389817448
1.3281938325991192,2.9503282969230686
1.3480176211453747,3.026819941356921
1.36784140969163,3.103645737528789
1.3876651982378856,3.1804901237344527
1.4074889867841411,3.2570600310918265
1.4273127753303965,3.333083310337236
1.4471365638766522,3.4083071831323695
1.4669603524229078,3.4824967613409643
1.4867841409691631,3.5554336605646744
1.5066079295154187,3.6269147218786513
1.5264317180616742,3.6967508470886794
1.5462555066079295,3.764765947023096
1.5660792951541853,3.8307959986296196
1.5859030837004409,3.8946882043906803
1.6057268722466962,3.95630024635878
1.6255506607929517,4.0154996266183955
1.6453744493392073,4.072163085962779
1.6651982378854626,4.126176092861157
1.6850220264317182,4.177432395262486
1.7048458149779737,4.225833628352451
1.7246696035242293,4.2712889719941325
1.7444933920704848,4.313714852202187
1.7643171806167404,4.353034681602136
1.7841409691629957,4.389178634396542
1.8039647577092512,4.42208345189122
1.8237885462555068,4.4516922751241745
1.8436123348017623,4.477954501587847
1.863436123348018,4.500825663443567
1.8832599118942732,4.520267324998556
1.9030837004405288,4.536246997554412
1.9229074889867843,4.548738070045559
1.9427312775330399,4.557719754170908
1.9625550660792954,4.563177042985674
1.982378854625551,4.565100682167813
2.002202643171806,4.5634871534073564
2.0220264317180616,4.558338669592662
2.041850220264317,4.549663181686991
2.061674008810573,4.537474397407558
2.0814977973568287,4.52179181203928
2.1013215859030843,4.5026407519413345
2.1211453744493394,4.480052431540613
2.140969162995595,4.4540640248546355
2.1607929515418505,4.424718752852863
2.180616740088106,4.39206598825315
2.2004405286343616,4.35616137966339
2.220264317180617,4.317066997321849
2.2400881057268722,4.274851503067163
2.2599118942731278,4.229590347585019
2.2797356828193833,4.181365998435454
2.299559471365639,4.130268202866337
2.319383259911895,4.076394289964018
2.3392070484581504,4.0198495172803135
2.3590308370044055,3.9607474676985244
2.378854625550661,3.899210502947555
2.3986784140969166,3.8353702808197774
2.418502202643172,3.769368343758917
2.4383259911894277,3.7013567870029074
2.4581497797356833,3.631499014811834
2.4779735682819384,3.559970593360966
2.497797356828194,3.486960208462736
2.5176211453744495,3.4126707351594607
2.537444933920705,3.3373204240690635
2.5572687224669606,3.2611442057243805
2.577092511013216,3.1843951084316098
2.5969162995594717,3.1073457766262145
2.6167400881057272,3.0302900643761235
2.6365638766519828,2.95354466144307
2.6563876651982383,2.877450685901801
2.676211453744494,2.8023751464759425
2.6960352422907494,2.7287121384932713
2.715859030837005,2.6568835894418985
2.73568281938326,2.5873393147419113
2.7555066079295156,2.520556085249681
2.775330396475771,2.4570353526779902
2.7951541850220267,2.397299240098429
2.8149779735682823,2.3418844003578347
2.834801762114538,2.2913333990244764
2.854625550660793,2.246183415432433
2.874449339207049,2.2069522948586124
2.8942731277533045,2.1741223292822425
2.91409691629956,2.1481225663039636
2.9339207048458156,2.129310880032163
2.953744493392071,2.1179573833764342
2.9735682819383262,2.114230904042022
2.993392070484582,2.1181900975047543
3.0132158590308373,2.1297803077415685
3.033039647577093,2.148836580786413
3.0528634361233484,2.1750924379028724
3.072687224669604,2.2081933071475013
3.092511013215859,2.2477130456942165
3.1123348017621146,2.2931718319187
3.1321585903083706,2.3440538453473567
3.151982378854626,2.399823495736205
3.1718061674008817,2.4599393957330813
3.1916299559471373,2.5238656938501145
3.2114537444933924,2.5910807297906846
3.231277533039648,2.6610832148687362
3.2511013215859035,2.733396278440081
3.270925110132159,2.807569776093374
3.2907488986784146,2.8831812518023976
3.31057268722467,2.959835907760865
3.3303964757709252,3.037165880615104
3.350220264317181,3.1148290638837377
3.3700440528634363,3.192507661053572
3.389867841409692,3.2699066059200512
3.4096916299559474,3.3467519474493614
3.4295154185022034,3.422789265546179
3.4493392070484585,3.4977821606427515
3.469162995594714,3.571510842730839
3.4889867841409696,3.6437708330803527
3.508810572687225,3.714371783297952
3.5286343612334807,3.783136410628666
3.5484581497797363,3.849899544731331
3.5682819383259914,3.9145072789762843
3.588105726872247,3.9768162181712827
3.6079295154185025,4.036692814190855
3.627753303964758,4.094012781021684
3.6475770925110136,4.148660581071965
3.667400881057269,4.2005289751038655
3.6872246696035247,4.249518628752888
3.7070484581497802,4.295537769239553
3.726872246696036,4.338501886521564
3.7466960352422913,4.378333473755405
3.7665198237885464,4.414961802521842
3.7863436123348024,4.448322728813915
3.8061674008810575,4.47835852628606
3.8259911894273135,4.505017743718947
3.8458149779735686,4.528255084070394
3.8656387665198246,4.548031302859183
3.8854625550660797,4.5643131239725125
3.905286343612335,4.577073171301128
3.925110132158591,4.586289914894074
3.9449339207048464,4.591947630592255
3.964757709251102,4.594036372349465
3.9845814977973575,4.592551956686689
4.004405286343612,4.587495958952706
4.024229074889869,4.578875721286776
4.044052863436123,4.566704372400089
4.06387665198238,4.55100085951549
4.083700440528634,4.531789993034711
4.103524229074891,4.509102504741632
4.123348017621146,4.48297512060317
4.143171806167401,4.453450649501514
4.162995594713657,4.420578089525468
4.182819383259912,4.384412753770045
4.2026431718061685,4.3450164179468524
4.222466960352423,4.30245749249733
4.242290748898679,4.25681122233147
4.262114537444934,4.208159917790323
4.28193832599119,4.156593220954336
4.301762114537445,4.102208411992823
4.321585903083701,4.045110760872206
4.3414096916299565,3.985413930405791
4.361233480176212,3.9232404373256085
4.381057268722468,3.8587221787656754
4.400881057268723,3.792001032231825
4.420704845814979,3.723229537743453
4.440528634361234,3.652571671284882
4.46035242290749,3.580203718880949
4.4801762114537445,3.506315260341036
4.500000000000001,3.4311102707562253
4.5198237885462555,3.3548083458499005
4.539647577092512,3.2776460538150887
4.559471365638767,3.1998784107119556
4.579295154185023,3.121780468050741
4.599118942731278,3.04364898884643
4.618942731277533,2.96580417098791
4.63876651982379,2.888591352835808
4.658590308370044,2.8123826041297515
4.678414096916301,2.7375780643536807
4.6982378854625555,2.664606840189725
4.718061674008811,2.5939272145700962
4.737885462555067,2.52602585568136
4.757709251101322,2.461415652651498
4.777533039647578,2.400631758612364
4.797356828193833,2.3442254109096923
4.817180616740089,2.2927551479065795
4.837004405286344,2.2467751800470928
4.856828193832599,2.206820922273752
4.876651982378855,2.1733920605706754
4.896475770925111,2.146933980265036
4.9162995594713665,2.1278188580412745
4.936123348017622,2.11632810353263
4.955947136563877,2.11263800299323
4.975770925110133,2.1168102660388115
4.995594713656388,2.128788680067169
5.015418502202644,2.148402311760965
5.035242290748899,2.175374827522566
5.055066079295155,2.2093387375628466
5.07488986784141,2.2498528686948807
5.094713656387666,2.2964212155641888
5.114537444933921,2.3485114832292333
5.134361233480177,2.4055720153945535
5.154185022026432,2.467046275550959
5.174008810572688,2.5323845028148493
5.193832599118943,2.601052530373562
5.213656387665199,2.6725380047353586
5.2334801762114544,2.7463543832135344
5.25330396475771,2.822043137712235
5.2731277533039655,2.8991745827743123
5.292951541850221,2.9773477004419298
5.312775330396477,3.0561892733051157
5.332599118942731,3.1353525732554117
5.352422907488988,3.214515794521103
5.372246696035242,3.293380369137799
5.392070484581499,3.371669262114581
5.4118942731277535,3.449125311724492
5.43171806167401,3.525509656400292
5.451541850220265,3.6006002722425507
5.47136563876652,3.6741906327731613
5.491189427312777,3.7460884940842667
5.511013215859031,3.8161148029393126
5.530837004405288,3.8841027218859074
5.550660792951542,3.9498967634294804
5.570484581497798,4.013352024333912
5.5903083700440535,4.07433351082591
5.610132158590309,4.1327155456397735
5.6299559471365646,4.188381248278409
5.64977973568282,4.241222080464514
5.669603524229076,4.29113744943258
5.689427312775331,4.338034362413185
5.709251101321586,4.38182712635222
5.729074889867842,4.422437087567783
5.748898678414098,4.459792406665201
5.768722466960353,4.493827864600792
5.788546255506609,4.524484696305659
5.808370044052864,4.551710448754485
5.82819383259912,4.575458860793346
5.848017621145375,4.595689762428913
5.867841409691631,4.612368991634263
5.887665198237886,4.625468327047696
5.907488986784142,4.634965435235423
5.927312775330397,4.640843831461643
5.9471365638766525,4.6430928531643
5.966960352422908,4.6417076455756225
5.986784140969164,4.6366891591591
6.00660792951542,4.628044158760573
6.026431718061675,4.615785244596606
6.04625550660793,4.599930885431037
6.066079295154186,4.58050546452513
6.085903083700441,4.557539339192229
6.105726872246697,4.531068915047703
6.125550660792952,4.501136736325625
6.145374449339208,4.467791593937454
6.1651982378854635,4.43108865328197
6.185022026431718,4.39108960418361
6.204845814977975,4.347862835744692
6.224669603524229,4.301483639350076
6.244493392070486,4.252034443566297
6.264317180616741,4.199605085235491
6.284140969162996,4.1442931216802785
6.303964757709252,4.0862041896101475
6.323788546255507,4.025452417049756
6.3436123348017635,3.9621608953859955
6.363436123348018,3.896462219435897
6.3832599118942746,3.8284991042410836
6.403083700440529,3.758425088045072
6.422907488986785,3.6864053315318923
6.44273127753304,3.612617523780041
6.462555066079296,3.5372529053456474
6.482378854625551,3.4605174181888443
6.502202643171807,3.382632990453651
6.5220264317180625,3.3038389609308028
6.541850220264318,3.224393642731882
6.561674008810574,3.1445760174349284
6.581497797356829,3.0646875386359023
6.601321585903085,2.9850540061145456
6.62114537444934,2.906027447125133
6.640969162995596,2.827987907970957
6.6607929515418505,2.751345015482772
6.680616740088107,2.6765391134090293
6.700440528634362,2.6040417136206395
6.720264317180618,2.5343549297232024
6.740088105726873,2.4680094887912376
6.759911894273129,2.405560859303078
6.779735682819384,2.3475830113649696
6.799559471365639,2.294659367797471
6.819383259911895,2.2473706444438317
6.83920704845815,2.206279543481537
6.859030837004407,2.171912664227395
6.8788546255506615,2.1447405053669844
6.898678414096917,2.1251569741599945
6.918502202643173,2.113460266415707
6.938325991189428,2.109837187150706
6.958149779735684,2.1143528245739023
6.977973568281939,2.126946934164776
6.997797356828195,2.1474375217323867
7.01762114537445,2.1755311291410475
7.037444933920705,2.2108384613701197
7.0572687224669615,2.252893442172567
7.077092511013216,2.301173632623218
7.096916299559473,2.3551201556166173
7.116740088105728,2.414155718069586
7.136563876651983,2.4776998628040645
7.156387665198239,2.545181089120414
7.176211453744494,2.616045879246919
7.19603524229075,2.689764931221442
7.215859030837005,2.765837037237888
7.235682819383261,2.8437910883894872
7.255506607929516,2.923186664724447
7.275330396475772,3.0036136122184556
7.295154185022027,3.084690936883083
7.314977973568283,3.1660652744489766
7.334801762114538,3.2474091294457015
7.354625550660794,3.328419023295663
7.374449339207049,3.408813647819375
7.394273127753305,3.488332087431413
7.4140969162995605,3.566732148771609
7.433920704845816,3.6437888188963856
7.453744493392072,3.7192928608941616
7.473568281938327,3.793049547554666
7.493392070484583,3.8648775284344388
7.513215859030838,3.9346078224801797
7.533039647577093,4.002082926659555
7.552863436123348,4.067156030336102
7.572687224669605,4.129690325069648
7.59251101321586,4.189558399883551
7.612334801762115,4.2466417126465155
7.6321585903083715,4.300830128953254
7.651982378854627,4.35202152067872
7.671806167400882,4.400121417173923
7.691629955947137,4.44504270283799
7.711453744493394,4.48670535552153
7.731277533039649,4.525036220883585
7.751101321585904,4.559968818433757
7.7709251101321595,4.591443175543613
7.790748898678416,4.6194056862112065
7.81057268722467,4.643808991811697
7.830396475770926,4.6646118814726165
7.850220264317182,4.681779210078852
7.870044052863436,4.695281832244737
7.889867841409693,4.705096550894547
7.909691629955948,4.7112060793735475
7.929515418502204,4.713599016272984
7.9493392070484585,4.712269832400112
7.969162995594715,4.707218869562302
7.9889867841409705,4.69845235106607
8.008810572687224,4.68598240406365
8.02863436123348,4.669827094113161
8.048458149779737,4.650010472560488
8.068281938325994,4.62656263760401
8.088105726872246,4.599519810173155
8.107929515418503,4.56892442604331
8.12775330396476,4.534825245926982
8.147577092511014,4.497277485632156
8.167400881057269,4.4563429687665606
8.187224669603525,4.412090304900343
8.207048458149782,4.364595096583542
8.226872246696036,4.313940179156548
8.246696035242293,4.260215897897614
8.266519823788547,4.203520427725979
8.286343612334802,4.143960141425971
8.306167400881058,4.081650033177333
8.325991189427315,4.016714205063691
8.345814977973568,3.9492864251722404
8.365638766519824,3.8795107668665487
8.38546255506608,3.807542339766907
8.405286343612337,3.733548123836409
8.42511013215859,3.657707918634211
8.444933920704846,3.5802154200936465
8.464757709251103,3.50127943686652
8.484581497797357,3.421125256993871
8.504405286343614,3.339996172923694
8.524229074889869,3.2581551680134657
8.544052863436125,3.1758867597093965
8.56387665198238,3.0934989823780623
8.583700440528636,3.0113254747472555
8.60352422907489,2.9297276112459874
8.623348017621145,2.8490965811466356
8.643171806167402,2.769855272255333
8.662995594713658,2.692459755458151
8.682819383259913,2.6174000926274053
8.702643171806168,2.545200105995487
8.722466960352424,2.4764156597125186
8.74229074889868,2.411630928714348
8.762114537444935,2.3514520903374163
8.78193832599119,2.2964979042366944
8.801762114537446,2.247386786568741
8.821585903083701,2.2047202726537973
8.841409691629957,2.1690632159639485
8.861233480176212,2.1409216653295107
8.881057268722468,2.1207200098415018
8.900881057268723,2.1087795313940187
8.92070484581498,2.1053007735911993
8.940528634361234,2.1103519679436924
8.960352422907489,2.123865104850888
8.980176211453745,2.1456402027620496
9.000000000000002,2.175357156378206
9.019823788546258,2.212593528673338
9.039647577092511,2.256846027016129
9.059471365638768,2.307553265291916
9.079295154185024,2.364117703865503
9.099118942731279,2.425925218700802
9.118942731277533,2.49236139649504
9.13876651982379,2.5628242376829693
9.158590308370046,2.636733391289582
9.1784140969163,2.713536323286404
9.198237885462555,2.7927119526169033
9.218061674008812,2.8737723143247225
9.237885462555067,2.9562627672698105
9.257709251101323,3.0397611878998574
9.27753303964758,3.1238765048159656
9.297356828193834,3.208246845648339
9.317180616740089,3.292537495259932
9.337004405286345,3.3764388050740157
9.356828193832602,3.459664147195841
9.376651982378855,3.5419479724273124
9.396475770925111,3.6230440062215394
9.416299559471367,3.7027235990495675
9.436123348017622,3.7807742357424856
9.455947136563877,3.8569982006305072
9.475770925110133,3.9312113905470008
9.49559471365639,4.003242265099817
9.515418502202644,4.07293092236994
9.5352422907489,4.140128287894717
9.555066079295155,4.204695405087127
9.57488986784141,4.266502815895098
9.594713656387666,4.325430021352053
9.614537444933923,4.381365012603966
9.634361233480178,4.434203863948041
9.654185022026432,4.483850380340678
9.674008810572689,4.530215792702179
9.693832599118945,4.573218495149474
9.713656387665198,4.612783819021471
9.733480176211454,4.648843839223809
9.75330396475771,4.681337209015307
9.773127753303967,4.710209019891082
9.792951541850222,4.735410683694402
9.812775330396477,4.756899834516502
9.832599118942733,4.774640248327584
9.852422907488988,4.788601778629066
9.872246696035244,4.798760306733391
9.892070484581499,4.805097705567687
9.911894273127754,4.807601816168617
9.93171806167401,4.806266436290338
9.951541850220266,4.801091320793133
9.971365638766521,4.792082193719075
9.991189427312776,4.779250772200005
10.011013215859032,4.7626148025845945
10.030837004405289,4.742198109421652
10.050660792951543,4.718030658200266
10.070484581497798,4.690148633028787
10.090308370044054,4.658594530740447
10.11013215859031,4.623417273248291
10.129955947136565,4.584672340343935
10.14977973568282,4.542421925548899
10.169603524229077,4.496735118093092
10.189427312775331,4.44768811461902
10.209251101321588,4.395364464802149
10.229074889867842,4.339855355745267
10.248898678414099,4.281259940756299
10.268722466960353,4.219685718962139
10.28854625550661,4.155248973149056
10.308370044052865,4.08807527425521
10.32819383259912,4.018300062063746
10.348017621145376,3.94606931283873
10.367841409691632,3.871540305873284
10.387665198237887,3.7948825021168893
10.407488986784141,3.7162785491137766
10.427312775330398,3.6359254272555903
10.447136563876654,3.5540357525870347
10.466960352422909,3.470839250743734
10.486784140969164,3.386584414530431
10.50660792951542,3.3015403534330106
10.526431718061675,3.2159988359876945
10.546255506607931,3.1302765140416358
10.566079295154186,3.044717299748181
10.585903083700442,2.9596948394165365
10.605726872246697,2.875614990447286
10.625550660792953,2.7929181557205327
10.645374449339208,2.712081261479978
10.665198237885463,2.633619078811362
10.685022026431719,2.5580844870564077
10.704845814977975,2.486067167190595
10.724669603524232,2.418190110212403
10.744493392070485,2.355103257719346
10.764317180616741,2.2974736004605214
10.784140969162998,2.245971198082822
