Time (s),Filtered Signal
0.0,0.04956240756215805
0.033370165745856356,-1.1293099075275754
0.06674033149171271,-2.0396123947424107
0.10011049723756907,-2.5055894369505967
0.13348066298342542,-2.4994062913329063
0.16685082872928178,-2.1340171962697374
0.20022099447513814,-1.6028643949596275
0.2335911602209945,-1.0972537000307376
0.26696132596685085,-0.7388076163163709
0.30033149171270723,-0.553061416501614
0.33370165745856356,-0.4883923675626965
0.3670718232044199,-0.4635138058868349
0.4004419889502763,-0.4163729152000228
0.43381215469613266,-0.3310484941693518
0.467182320441989,-0.233645526907053
0.5005524861878453,-0.16498355882938692
0.5339226519337017,-0.14855275676098909
0.5672928176795581,-0.17220927214596285
0.6006629834254145,-0.19267011660960168
0.6340331491712707,-0.15885009810512524
0.6674033149171271,-0.04037657872742552
0.7007734806629835,0.15427033993683742
0.7341436464088398,0.37939697734396444
0.7675138121546962,0.5724178269742589
0.8008839779005525,0.6823579704973857
0.8342541436464089,0.6922609874124181
0.8676243093922653,0.6246791007905746
0.9009944751381216,0.5281550163739153
0.934364640883978,0.45213930963472765
0.9677348066298344,0.42328549160210366
1.0011049723756906,0.4347736977156769
1.0344751381215471,0.4530875795385216
1.0678453038674034,0.437585672187604
1.1012154696132597,0.36224172104875685
1.1345856353591162,0.22898639988013164
1.1679558011049724,0.06739667844634889
1.201325966850829,-0.07753959489261429
1.2346961325966852,-0.16303000348543534
1.2680662983425415,-0.16398159166125814
1.301436464088398,-0.0811510279025871
1.3348066298342542,0.059912654448455956
1.3681767955801105,0.21793691341898916
1.401546961325967,0.3496109020641443
1.4349171270718233,0.4231927185828825
1.4682872928176796,0.4272546546052286
1.501657458563536,0.3713829151891674
1.5350276243093923,0.2788296986490153
1.5683977900552488,0.17467064764308987
1.601767955801105,0.0750943373449296
1.6351381215469614,-0.017272552506369793
1.6685082872928179,-0.11038511162473937
1.7018784530386741,-0.21457795893191048
1.7352486187845306,-0.33411219301769113
1.768618784530387,-0.4631111713506857
1.8019889502762432,-0.5876713972027622
1.8353591160220997,-0.6923003859186508
1.868729281767956,-0.7664750308879107
1.9020994475138122,-0.8072907306588439
1.9354696132596687,-0.8167430312573347
1.968839779005525,-0.7957002220921722
2.0022099447513813,-0.7390337400823846
2.0355801104972375,-0.6360890508563903
2.0689502762430942,-0.4775725641330623
2.1023204419889505,-0.26562878110633553
2.135690607734807,-0.021013917372421927
2.169060773480663,0.21811058052714874
2.2024309392265193,0.4071016914166851
2.235801104972376,0.5113596972028258
2.2691712707182323,0.5207449547848857
2.3025414364640886,0.454607963970227
2.335911602209945,0.3544531842227894
2.369281767955801,0.2671306048052112
2.402651933701658,0.2258874880347911
2.436022099447514,0.23753913849927613
2.4693922651933704,0.2812007377719833
2.5027624309392267,0.31893466648222313
2.536132596685083,0.31361386585941003
2.5695027624309392,0.24637489856658654
2.602872928176796,0.1263247672416524
2.636243093922652,-0.011571653571058292
2.6696132596685085,-0.11966045343389878
2.7029834254143648,-0.15660071951387874
2.736353591160221,-0.10461816839061854
2.7697237569060777,0.021960096964785028
2.803093922651934,0.18053728682612757
2.8364640883977903,0.31530762977747473
2.8698342541436466,0.3779556372331702
2.903204419889503,0.34600235856325323
2.936574585635359,0.2314820891072191
2.969944751381216,0.07628342750610782
3.003314917127072,-0.06418279987937361
3.0366850828729284,-0.14244210823222112
3.0700552486187846,-0.136713570583582
3.103425414364641,-0.057654772572916804
3.1367955801104976,0.05840709028713581
3.170165745856354,0.16630214314429384
3.20353591160221,0.23112287507062482
3.2369060773480665,0.2411368148357503
3.2702762430939227,0.2092028127756268
3.3036464088397794,0.16281801000392615
3.3370165745856357,0.12805777257285061
3.370386740331492,0.11521419417158485
3.4037569060773483,0.11287427072578632
3.4371270718232045,0.09313539260828846
3.4704972375690613,0.025520960718008863
3.5038674033149175,-0.10681054242062056
3.537237569060774,-0.2960980561092907
3.57060773480663,-0.5095980483047258
3.6039779005524863,-0.7004889458797401
3.6373480662983426,-0.8255523922509602
3.6707182320441993,-0.8617016381125419
3.7040883977900556,-0.8136315687508142
3.737458563535912,-0.7090047589771623
3.770828729281768,-0.5838621020097179
3.8041988950276244,-0.46603603302472957
3.837569060773481,-0.36523081768611154
3.8709392265193374,-0.27440932103813154
3.9043093922651937,-0.18048014371541846
3.93767955801105,-0.07698497256556291
3.9710497237569062,0.029300310316824535
4.0044198895027625,0.121843675791391
4.037790055248619,0.1855183101935226
4.071160220994475,0.21826320694398915
4.104530386740332,0.23569759257444575
4.1379005524861885,0.26530878608121217
4.171270718232044,0.33294180206934393
4.204640883977901,0.44876537154421997
4.238011049723757,0.6002113539647372
4.271381215469614,0.7555943322234845
4.30475138121547,0.8765005763713503
4.338121546961326,0.9327089338503519
4.371491712707183,0.9125638717022238
4.404861878453039,0.8245281016127853
4.438232044198895,0.6903258816441604
4.471602209944752,0.5340673146868459
4.504972375690608,0.3730778415374952
4.538342541436465,0.21448218934751878
4.5717127071823205,0.05811425968550393
4.605082872928177,-0.09699198156484483
4.638453038674034,-0.2467854519053369
4.67182320441989,-0.38045642835015253
4.7051933701657465,-0.4836329510256053
4.738563535911602,-0.5446059049458255
4.771933701657459,-0.5601139203580636
4.805303867403316,-0.5375756124351994
4.8386740331491715,-0.49258410116892964
4.872044198895028,-0.4428646359480785
4.905414364640884,-0.40153727321388066
4.938784530386741,-0.3727437787367888
4.972154696132597,-0.35153951545410994
5.005524861878453,-0.328009801194017
5.03889502762431,-0.29367018627628483
5.072265193370166,-0.24712739160953134
5.105635359116023,-0.19619124240226396
5.1390055248618784,-0.15511273081626498
5.172375690607735,-0.13780552821626876
5.205745856353592,-0.1498731838580592
5.239116022099448,-0.18313720725828314
5.272486187845304,-0.21567179073247722
5.30585635359116,-0.218237617088678
5.339226519337017,-0.16521909773686025
5.372596685082874,-0.04585813267674839
5.4059668508287295,0.12911815907294139
5.439337016574586,0.3288718365443364
5.472707182320442,0.5119167855781256
5.506077348066299,0.6400469182365859
5.5394475138121555,0.6908479180706998
5.572817679558011,0.6634180059970396
5.606187845303868,0.5751319518421567
5.639558011049724,0.45162174956462275
5.672928176795581,0.31534502573234924
5.706298342541437,0.17847546692128374
5.739668508287293,0.043219677105933385
5.77303867403315,-0.09151564203539739
5.806408839779006,-0.22167297376758296
5.839779005524862,-0.33332469591730945
5.873149171270718,-0.4050947949296774
5.906519337016575,-0.417071980854773
5.939889502762432,-0.36171620047449643
5.9732596685082875,-0.25073600637591037
6.006629834254144,-0.11363592886188623
6.04,0.012218679332736935
6.073370165745857,0.09577308406073044
6.1067403314917135,0.12415421417138123
6.140110497237569,0.10673881207624333
6.173480662983426,0.06967451164950213
6.206850828729282,0.043578612080369894
6.240220994475139,0.05008188165123211
6.273591160220995,0.09302799034877204
6.306961325966851,0.15768604724775806
6.340331491712708,0.2176547707058343
6.373701657458564,0.2459698468480861
6.40707182320442,0.22556066943435424
6.440441988950277,0.15500161038420104
6.473812154696133,0.0478806112317552
6.50718232044199,-0.0731124135575905
6.5405524861878455,-0.18431446872948604
6.573922651933702,-0.2679817341868825
6.607292817679559,-0.31565281113388055
6.640662983425415,-0.32766487456824106
6.674033149171271,-0.31021709237658673
6.707403314917127,-0.27199593195749194
6.740773480662984,-0.22178120213971664
6.774143646408841,-0.1672591917842921
6.8075138121546965,-0.11439242418702247
6.840883977900553,-0.06669755137578505
6.874254143646409,-0.024500952318943493
6.907624309392266,0.015053551469384533
6.9409944751381225,0.056497966250586465
6.974364640883978,0.10318303456185421
7.007734806629835,0.154385787073413
7.041104972375691,0.2042054148501661
7.074475138121548,0.24335211872035512
7.107845303867403,0.2632669128574526
7.14121546961326,0.26043329931744474
7.174585635359117,0.23837123504752875
7.207955801104973,0.20601854051486157
7.241325966850829,0.17330409816807846
7.274696132596685,0.1463649843102476
7.308066298342542,0.12501239886686794
7.341436464088399,0.10366640511215257
7.3748066298342545,0.07498921556787522
7.408176795580111,0.03407363703333754
7.441546961325967,-0.01899483599908048
7.474917127071824,-0.07924185789730154
7.5082872928176805,-0.1391000765393556
7.541657458563536,-0.19142813869403852
7.575027624309393,-0.23175125146284378
7.608397790055249,-0.2589628101686491
7.641767955801106,-0.2746401332344368
7.675138121546962,-0.28164638591293284
7.708508287292818,-0.2826550230535181
7.741878453038675,-0.27892720941399507
7.775248618784531,-0.269507495970344
7.808618784530387,-0.2511080921496027
7.841988950276244,-0.2190497771622263
7.8753591160221,-0.16933001560891625
7.908729281767957,-0.10116290233534186
7.9420994475138125,-0.018676747112943582
7.975469613259669,0.06946673573773017
8.008839779005525,0.15273694426739717
8.042209944751383,0.22247116752732884
8.075580110497238,0.2746743927915737
8.108950276243094,0.31034961239288567
8.14232044198895,0.33331938133810246
8.175690607734808,0.34700048932775535
8.209060773480664,0.35210216878006173
8.24243093922652,0.34646738063497096
8.275801104972377,0.32686350935351566
8.309171270718233,0.2914118432685719
8.342541436464089,0.24115941398517224
8.375911602209946,0.1800025831209701
8.409281767955802,0.11321220050717701
8.442651933701658,0.045547178550662065
8.476022099447514,-0.01997449713114307
8.509392265193371,-0.08209450569968119
8.542762430939227,-0.14031854658713014
8.576132596685083,-0.1936338702830473
8.60950276243094,-0.2397080848781711
8.642872928176796,-0.2749470602303639
8.676243093922652,-0.2952962597180721
8.709613259668508,-0.2974006123147564
8.742983425414366,-0.27976772695699176
8.776353591160222,-0.2437144043640948
8.809723756906077,-0.19388843273382225
8.843093922651935,-0.13803946465645486
8.87646408839779,-0.08570532432797036
8.909834254143647,-0.04582630959337826
8.943204419889504,-0.023944846270773045
8.97657458563536,-0.020178247663134537
9.009944751381216,-0.02908180238682986
9.043314917127072,-0.04171068675143172
9.07668508287293,-0.04905001285484352
9.110055248618785,-0.04522855605730909
9.143425414364641,-0.02907421369733019
9.176795580110499,-0.003524846923596427
9.210165745856354,0.026453008102202854
9.24353591160221,0.05618311308796787
9.276906077348068,0.08280676471946621
9.310276243093924,0.10571961714237292
9.34364640883978,0.12622666091774298
9.377016574585635,0.14680887447776939
9.410386740331493,0.17009956385583194
9.443756906077349,0.19748394042930476
9.477127071823205,0.22749334056704285
9.510497237569062,0.2546901202859943
9.543867403314918,0.26999132954180893
9.577237569060774,0.26295151365249136
9.610607734806631,0.22553276998310687
9.643977900552487,0.15591778540805223
9.677348066298343,0.060599713751697225
9.710718232044199,-0.046435570243585154
9.744088397790057,-0.1473913154163694
9.777458563535912,-0.22588226975072165
9.810828729281768,-0.271659970537843
9.844198895027626,-0.2830057828297424
9.877569060773482,-0.26599095320559096
9.910939226519337,-0.23117392466862122
9.944309392265193,-0.1893398344763041
9.97767955801105,-0.1480918441942298
10.011049723756907,-0.11044779254415138
10.044419889502763,-0.07551940937493426
10.07779005524862,-0.04047023046231974
10.111160220994476,-0.0026593953973961426
10.144530386740332,0.03883615346255468
10.17790055248619,0.08259177455952268
10.211270718232045,0.12493797226304156
10.244640883977901,0.1604995431082095
10.278011049723757,0.1830011837865034
10.311381215469615,0.18637977218825172
10.34475138121547,0.16631278505452038
10.378121546961326,0.1220530280742949
10.411491712707184,0.058001227147880724
10.44486187845304,-0.01595107111249521
10.478232044198895,-0.08618450637133317
10.511602209944753,-0.13926441461701752
10.544972375690609,-0.16673281386807612
10.578342541436465,-0.16851097941788803
10.61171270718232,-0.15282643142935
10.645082872928178,-0.13217497076803478
10.678453038674034,-0.11706821624046194
10.71182320441989,-0.1108027058579347
10.745193370165747,-0.10813846269350294
10.778563535911603,-0.0986510174468747
10.811933701657459,-0.07286274348160425
10.845303867403315,-0.027695220764704095
10.878674033149172,0.03173923669303093
10.912044198895028,0.0948000279168222
10.945414364640884,0.1506809299343854
10.978784530386742,0.19331818728053055
11.012154696132598,0.2231718229621968
11.045524861878453,0.2451567612296989
11.078895027624311,0.2641877905568779
11.112265193370167,0.28099657839501613
11.145635359116023,0.2905540086210866
11.179005524861878,0.2839475930903533
11.212375690607736,0.25280349839696575
11.245745856353592,0.19414646249398906
11.279116022099448,0.11338324478780848
11.312486187845305,0.023842178079256343
11.345856353591161,-0.0573237301449169
11.379226519337017,-0.11551735209928686
11.412596685082875,-0.14482180825839033
11.44596685082873,-0.15104413912426792
11.479337016574586,-0.14982348300748358
11.512707182320442,-0.16001281285342348
11.5460773480663,-0.1948844122726166
11.579447513812156,-0.25514388618992195
11.612817679558011,-0.327348057623981
11.646187845303869,-0.38903522869706936
11.679558011049725,-0.41862063927787174
11.71292817679558,-0.40546014148838144
11.746298342541436,-0.35493628586819237
11.779668508287294,-0.2855762535930592
11.81303867403315,-0.2192656064562984
11.846408839779006,-0.16953277879883502
11.879779005524863,-0.13434706980146097
11.91314917127072,-0.09773417024975042
11.946519337016575,-0.03968387234803373
11.979889502762433,0.05099507752671549
12.013259668508288,0.1681100476068945
12.046629834254144,0.28876906466330965
12.08,0.3831419334097141
12.113370165745858,0.42818017178109846
12.146740331491714,0.41822381260306923
12.18011049723757,0.3673306101778879
12.213480662983427,0.3025669781886603
12.246850828729283,0.2518767921375262
12.280220994475139,0.23234970041658473
12.313591160220996,0.24399162394735688
12.346961325966852,0.27118604888845393
12.380331491712708,0.29051834836140317
12.413701657458564,0.28111419035998464
12.447071823204421,0.23304251041507992
12.480441988950277,0.15064193351914262
12.513812154696133,0.050054893599642
12.54718232044199,-0.04734882647276104
12.580552486187846,-0.12260309634882535
12.613922651933702,-0.16486403969732258
12.64729281767956,-0.17353157100286246
12.680662983425416,-0.1567784502247918
12.714033149171271,-0.12775501043732876
12.747403314917127,-0.10015350890864153
12.780773480662985,-0.08450925744687736
12.81414364640884,-0.08601662976653715
12.847513812154697,-0.10410375911529042
12.880883977900554,-0.13362450358356104
12.91425414364641,-0.1671936092612212
12.947624309392266,-0.19786588735528168
12.980994475138122,-0.22118036257856719
13.01436464088398,-0.2357864731716527
13.047734806629835,-0.24252599538869424
13.081104972375691,-0.2427100984528925
13.114475138121549,-0.23687493949816285
13.147845303867404,-0.2250489851605492
13.18121546961326,-0.208512155589734
13.214585635359118,-0.1917584610941266
13.247955801104974,-0.18276154632972244
13.28132596685083,-0.19026633521369596
13.314696132596685,-0.21853777328222784
13.348066298342543,-0.2619051442581193
13.381436464088399,-0.3023851722777979
13.414806629834255,-0.31287091969357683
13.448176795580112,-0.26595218384717645
13.481546961325968,-0.14545041878453135
13.514917127071824,0.04426368667792858
13.548287292817681,0.2759429785084013
13.581657458563537,0.5063465153251735
13.615027624309393,0.6905477470727226
13.648397790055249,0.7981709066284662
13.681767955801106,0.8244504043352535
13.715138121546962,0.7905802422751683
13.748508287292818,0.7322925595893482
13.781878453038676,0.6812155833928738
13.815248618784532,0.647657501348082
13.848618784530387,0.6137106190885111
13.881988950276245,0.5412777076520703
13.9153591160221,0.3924163540785837
13.948729281767957,0.15271675765138876
13.982099447513813,-0.15410626353306486
14.01546961325967,-0.46882816133117655
14.048839779005526,-0.7169165284159178
14.082209944751382,-0.8379494062634812
14.11558011049724,-0.810940783963301
14.148950276243095,-0.6637509311518238
14.182320441988951,-0.46197609748810825
14.215690607734807,-0.28211787788706616
14.249060773480664,-0.18093188610008512
14.28243093922652,-0.17438770910730858
14.315801104972376,-0.23505787266444897
14.349171270718234,-0.30825499938618955
14.38254143646409,-0.3388445826935428
14.415911602209945,-0.29622261545713396
14.449281767955803,-0.18638090231176685
14.482651933701659,-0.046419710501530514
14.516022099447515,0.07486516253380725
14.54939226519337,0.14049700279216107
14.582762430939228,0.14174929053409066
14.616132596685084,0.100181616447845
14.64950276243094,0.05505866497839253
14.682872928176797,0.04284421614001567
14.716243093922653,0.07900424854056785
14.749613259668509,0.15093230768954236
14.782983425414367,0.22514556707715241
14.816353591160222,0.26475204567315025
14.849723756906078,0.24813014491884214
14.883093922651934,0.17940104159573528
14.916464088397792,0.08579276059300969
14.949834254143648,0.00391206175185658
14.983204419889503,-0.03753821276098052
15.016574585635361,-0.029834769577030625
15.049944751381217,0.014234167608154982
15.083314917127073,0.06887783755665786
15.116685082872928,0.10841938002064573
15.150055248618786,0.11803252393156687
15.183425414364642,0.09733790520767278
15.216795580110498,0.05648833646935844
15.250165745856355,0.008355013352981824
15.283535911602211,-0.038093859785414706
15.316906077348067,-0.07970349365857507
15.350276243093925,-0.11623888089524483
15.38364640883978,-0.1456878474609832
15.417016574585636,-0.16167242182743194
15.450386740331492,-0.15518837822779782
15.48375690607735,-0.11980965066973395
15.517127071823205,-0.05703448196275763
15.550497237569061,0.021865018855865736
15.583867403314919,0.09917186080615603
15.617237569060775,0.15791707620299172
15.65060773480663,0.18933869727327904
15.683977900552488,0.19668986196251426
15.717348066298344,0.1932499445769653
15.7507182320442,0.19528530412178224
15.784088397790056,0.21323696809759174
15.817458563535913,0.24535790568300778
15.85082872928177,0.2769735706617224
15.884198895027625,0.28599495992930074
15.917569060773483,0.252397356407167
15.950939226519338,0.167403811477661
15.984309392265194,0.03809020708726063
16.01767955801105,-0.11475547787647357
16.051049723756908,-0.2643744384466308
16.084419889502765,-0.3874819409990198
16.11779005524862,-0.4709122774174601
16.151160220994477,-0.5128296871810396
16.18453038674033,-0.5190031743686935
16.21790055248619,-0.4971065340503317
16.251270718232046,-0.4524749881243521
16.2846408839779,-0.3872837557909007
16.318011049723758,-0.30286638827718076
16.351381215469615,-0.20318190659593557
16.38475138121547,-0.09699433878981623
16.418121546961327,0.0028721366976232174
16.451491712707185,0.08327980554759043
16.48486187845304,0.1359537397818398
16.518232044198896,0.16148733058314416
16.551602209944754,0.16975196897350572
16.584972375690608,0.17580990329117524
16.618342541436466,0.1927392456708355
16.651712707182323,0.22470303063060112
16.685082872928177,0.26392935413182983
16.718453038674035,0.2935706360741306
16.751823204419892,0.29542461620122845
16.785193370165747,0.2588607112975874
16.818563535911604,0.1865600686094172
16.851933701657458,0.09432128134564416
16.885303867403316,0.00525453207992624
16.918674033149173,-0.058603833099847034
16.952044198895027,-0.08336561063047641
16.985414364640885,-0.06643522279872859
17.018784530386743,-0.015491555200026036
17.052154696132597,0.05499511602300562
17.085524861878454,0.12761122357621812
17.118895027624312,0.18515350717166676
17.152265193370166,0.21341085343727723
17.185635359116024,0.204353578472106
17.21900552486188,0.15957684499124744
