Time (s),Filtered Signal
0.0,0.008613181104539756
0.03337028824833703,-0.29845542610832565
0.06674057649667406,-0.5534078117484357
0.10011086474501109,-0.714037815604455
0.13348115299334812,-0.7557200310993102
0.16685144124168516,-0.6753046837552836
0.20022172949002218,-0.4908322623337739
0.2335920177383592,-0.23756179858001694
0.26696230598669624,0.03870492371401126
0.3003325942350333,0.28990451268897577
0.3337028824833703,0.474451666181497
0.3670731707317073,0.565101069446988
0.40044345898004435,0.5543709997627905
0.4338137472283814,0.456036809035086
0.4671840354767184,0.3018164168901237
0.5005543237250555,0.1335077439903614
0.5339246119733925,-0.007784991340917157
0.5672949002217295,-0.0925308821619178
0.6006651884700666,-0.1104984874289378
0.6340354767184035,-0.07271294271894967
0.6674057649667406,-0.006766008257353806
0.7007760532150776,0.053118445202126684
0.7341463414634146,0.07796215389291794
0.7675166297117517,0.053858356567714316
0.8008869179600887,-0.013473176932403718
0.8342572062084257,-0.10077567989865648
0.8676274944567628,-0.17521438390738198
0.9009977827050998,-0.20567317636471244
0.9343680709534368,-0.17387903326994783
0.9677383592017739,-0.08178089468110847
1.001108647450111,0.04749294751641326
1.0344789356984478,0.1759560993958527
1.067849223946785,0.2627956995438624
1.101219512195122,0.2782541581333067
1.134589800443459,0.21434719405516975
1.167960088691796,0.08816601353187989
1.2013303769401331,-0.06380745779441858
1.23470066518847,-0.19832323357867723
1.268070953436807,-0.27994822277342374
1.3014412416851442,-0.2918993219934266
1.3348115299334813,-0.23933301610706095
1.3681818181818182,-0.14489775722010026
1.4015521064301553,-0.039629788811447374
1.4349223946784924,0.04655026538094241
1.4682926829268292,0.09173003049304523
1.5016629711751663,0.08562376162149736
1.5350332594235034,0.03080957752530293
1.5684035476718403,-0.05768747446622819
1.6017738359201774,-0.15492284143749913
1.6351441241685145,-0.2316914940900119
1.6685144124168514,-0.2631918058766896
1.7018847006651885,-0.23818093839025276
1.7352549889135256,-0.1643031218089867
1.7686252771618625,-0.06589140956890122
1.8019955654101996,0.026042338133720304
1.8353658536585367,0.08739470562170076
1.8687361419068735,0.11115972649704225
1.9021064301552106,0.10846318594472232
1.9354767184035477,0.09965719579815571
1.9688470066518848,0.1006305417867095
2.002217294900222,0.11267199031531792
2.035587583148559,0.12240290615111553
2.0689578713968957,0.11227944829273465
2.102328159645233,0.0754460917577245
2.13569844789357,0.02541634124780079
2.1690687361419068,-0.006589086212611757
2.202439024390244,0.013136570417885891
2.235809312638581,0.10045325755191939
2.269179600886918,0.2392493552507048
2.302549889135255,0.38246312673893984
2.335920177383592,0.4696125498089563
2.369290465631929,0.453413794605303
2.4026607538802662,0.3227777309323473
2.436031042128603,0.11057452512978878
2.46940133037694,-0.11833928887421384
2.5027716186252773,-0.2937308780050608
2.536141906873614,-0.36890731777959024
2.569512195121951,-0.33849219843193185
2.6028824833702884,-0.2372069366185416
2.6362527716186253,-0.12117356907214827
2.6696230598669626,-0.041553339776032684
2.7029933481152995,-0.023393735954346413
2.7363636363636363,-0.05907841014659782
2.7697339246119737,-0.11787792847355169
2.8031042128603105,-0.16505202488772364
2.8364745011086474,-0.17986487610585647
2.8698447893569847,-0.16357487528150888
2.9032150776053216,-0.13463781692862117
2.9365853658536585,-0.11538459225334839
2.969955654101996,-0.11843442396762861
3.0033259423503327,-0.14017751877166784
3.0366962305986696,-0.1638541811390795
3.070066518847007,-0.16923068160985308
3.1034368070953438,-0.14281609763209227
3.1368070953436806,-0.08330661767379337
3.170177383592018,-0.000443794482028571
3.203547671840355,0.09068733954337867
3.2369179600886917,0.17591368380244016
3.270288248337029,0.24546405432884932
3.303658536585366,0.29390938761517643
3.337028824833703,0.31832183582904083
3.37039911308204,0.3172970730251163
3.403769401330377,0.2922018521340651
3.437139689578714,0.24963229949614993
3.470509977827051,0.2024466044921872
3.503880266075388,0.1671445543660119
3.537250554323725,0.15758795245151322
3.5706208425720622,0.17759774748240675
3.603991130820399,0.21618024575443187
3.637361419068736,0.24833023485256922
3.6707317073170733,0.24207043789875496
3.70410199556541,0.16980047443231056
3.737472283813747,0.020168853640669088
3.7708425720620844,-0.19395028798047934
3.8042128603104213,-0.43504673014061424
3.8375831485587586,-0.649650299461502
3.8709534368070955,-0.784329030262766
3.9043237250554323,-0.8037918989485552
3.9376940133037697,-0.7039271209129075
3.9710643015521065,-0.513723478109692
4.004434589800444,-0.28442999469367825
4.037804878048781,-0.07021453788837537
4.071175166297118,0.09113916725800054
4.1045454545454545,0.18890243125542927
4.137915742793791,0.23728399242504927
4.171286031042128,0.2628602834497026
4.204656319290466,0.2887768420397167
4.238026607538803,0.3236611266537539
4.27139689578714,0.35977458041576443
4.304767184035477,0.3797399053155978
4.3381374722838135,0.3671700628005158
4.371507760532151,0.3154911159261513
4.404878048780488,0.23109026148540668
4.438248337028825,0.13016767213978434
4.471618625277162,0.03160698677197308
4.504988913525499,-0.05033314493181386
4.538359201773836,-0.11001882839047755
4.571729490022173,-0.14949403821137752
4.60509977827051,-0.17356732141065023
4.638470066518847,-0.18411234657437156
4.671840354767184,-0.17731110475421735
4.705210643015521,-0.14592631012051624
4.738580931263858,-0.0855915386188017
4.771951219512196,-0.0013399244347412935
4.8053215077605325,0.09005623919106039
4.838691796008869,0.16427642176264637
4.872062084257206,0.19874580116353116
4.905432372505543,0.18234885632315506
4.93880266075388,0.12020767539835256
4.972172949002218,0.03071752273374232
5.005543237250555,-0.06354607306863137
5.0389135254988915,-0.14577665576230725
5.072283813747228,-0.2099079489910873
5.105654101995565,-0.2578171646834296
5.139024390243902,-0.29090054610552496
5.17239467849224,-0.30199149578168577
5.205764966740577,-0.27386394701173966
5.239135254988914,-0.18687247103166665
5.2725055432372505,-0.03261290746078317
5.305875831485587,0.17387471167757285
5.339246119733925,0.39122430415602627
5.372616407982262,0.5619614629759262
5.405986696230599,0.6330224585524069
5.439356984478936,0.5780601688925587
5.472727272727273,0.41112937237472685
5.5060975609756095,0.18440327491404312
5.539467849223947,-0.030602598927695884
5.572838137472284,-0.17120371585919655
5.606208425720621,-0.2091035496925902
5.639578713968958,-0.16161344886374088
5.672949002217295,-0.0826359050884771
5.706319290465632,-0.03663729452216949
5.7396895787139695,-0.06724664549159096
5.773059866962306,-0.175639901253593
5.806430155210643,-0.3201459766274927
5.83980044345898,-0.4384974026906736
5.873170731707317,-0.4822718664269554
5.906541019955654,-0.44551146272658043
5.939911308203992,-0.37103160509901056
5.9732815964523285,-0.3288515620630605
6.006651884700665,-0.37639265248672016
6.040022172949002,-0.5213048875120738
6.073392461197339,-0.7081013814126946
6.106762749445676,-0.8380838573287284
6.140133037694014,-0.8142507233703153
6.173503325942351,-0.5888663731659061
6.2068736141906875,-0.18919106814001044
6.240243902439024,0.29209031278523684
6.273614190687361,0.7370349725383223
6.306984478935698,1.0530984396828342
6.340354767184036,1.2095395449596213
6.373725055432373,1.2428218308654728
6.40709534368071,1.2300783835683862
6.4404656319290465,1.2449976351819054
6.473835920177383,1.3179050089036626
6.507206208425721,1.4185357906767282
6.540576496674058,1.468531800157122
6.573946784922395,1.377020642108003
6.607317073170732,1.0829589550052081
6.640687361419069,0.5859165727295679
6.674057649667406,-0.04731398492763979
6.707427937915743,-0.7024706979849634
6.74079822616408,-1.25544265649898
6.774168514412417,-1.6125361652815429
6.807538802660754,-1.7378844884011413
6.840909090909091,-1.6585082808907359
6.874279379157428,-1.4470438109256372
6.9076496674057655,-1.190947446044953
6.941019955654102,-0.9613701120470277
6.974390243902439,-0.7934210826894827
7.007760532150776,-0.683472960147602
7.041130820399113,-0.6015955023391545
7.07450110864745,-0.5114717680168764
7.107871396895788,-0.38838096427419055
7.1412416851441245,-0.22826526282547474
7.174611973392461,-0.0459752812461808
7.207982261640798,0.13407091516494718
7.241352549889135,0.28880721830547457
7.274722838137472,0.4037080644920355
7.30809312638581,0.4742898338226041
7.341463414634147,0.5036863851724495
7.3748337028824835,0.4997985892464434
7.40820399113082,0.47440604594714386
7.441574279379157,0.4438094156160623
7.474944567627494,0.4283241555478999
7.508314855875832,0.44804806159142074
7.541685144124169,0.51483717241289
7.575055432372506,0.6237057683423352
7.6084257206208425,0.748687881191084
7.641796008869179,0.8471436064849428
7.675166297117517,0.8727896665457765
7.708536585365854,0.7931481035969316
7.741906873614191,0.6040741534565396
7.775277161862528,0.33440220033417983
7.808647450110865,0.037735296112278306
7.842017738359202,-0.225778153318923
7.875388026607539,-0.41011996322458943
7.908758314855876,-0.4978222384753138
7.942128603104213,-0.5024237307413
7.97549889135255,-0.45879101606033673
8.008869179600888,-0.40640695871392113
8.042239467849225,-0.3733193868984716
8.075609756097561,-0.36744729715359475
8.108980044345898,-0.3781407442766829
8.142350332594235,-0.38612742484991786
8.175720620842572,-0.37630300392816546
8.209090909090909,-0.34676463707912525
8.242461197339246,-0.30953356841916435
8.275831485587583,-0.2827127608208406
8.30920177383592,-0.2783706817827651
8.342572062084257,-0.2929039808447581
8.375942350332595,-0.3055954974144013
8.409312638580932,-0.2869450204757962
8.442682926829269,-0.21320210870003092
8.476053215077606,-0.08004043903116402
8.509423503325943,0.09171344851345328
8.54279379157428,0.26188963174069085
8.576164079822616,0.38651984020910657
8.609534368070953,0.4364988629242368
8.64290465631929,0.41075779928386935
8.676274944567627,0.3372807111161902
8.709645232815964,0.2605721111253873
8.743015521064303,0.22063436546537016
8.77638580931264,0.23314970582533837
8.809756097560976,0.2808484879628514
8.843126385809313,0.3212834708262232
8.87649667405765,0.3082751929674994
8.909866962305987,0.21698084973750578
8.943237250554324,0.05982810325438441
8.97660753880266,-0.11568218794431012
9.009977827050998,-0.2475404053600698
9.043348115299334,-0.28892069276161464
9.076718403547671,-0.232496528312794
9.110088691796008,-0.11675792756966756
9.143458980044347,-0.010086093926320103
9.176829268292684,0.020762624789788606
9.21019955654102,-0.056948250315359945
9.243569844789358,-0.22444190490948676
9.276940133037694,-0.41782438792667437
9.310310421286031,-0.5557985336773263
9.343680709534368,-0.5755887425569421
9.377050997782705,-0.4600014712336726
9.410421286031042,-0.24327190063946225
9.443791574279379,0.005876353943742973
9.477161862527716,0.21460601193518936
9.510532150776053,0.33502327734174736
9.543902439024391,0.3595232714400937
9.577272727272728,0.3179676858303967
9.610643015521065,0.2608926306467745
9.644013303769402,0.23788636150640452
9.677383592017739,0.2799522844854853
9.710753880266076,0.3907127369080659
9.744124168514412,0.546833288768627
9.77749445676275,0.7054030500494972
9.810864745011086,0.8155223312039518
9.844235033259423,0.8317501926805982
9.87760532150776,0.7269724700276842
9.910975609756099,0.5015008107513287
9.944345898004435,0.18496129986155133
9.977716186252772,-0.17089788675192494
10.01108647450111,-0.5069034799799339
10.044456762749446,-0.7734373111385453
10.077827050997783,-0.9429999911342146
10.11119733924612,-1.0136055994880335
10.144567627494457,-1.0027037042096
10.177937915742794,-0.9357214672668215
10.21130820399113,-0.8352130935681226
10.244678492239467,-0.7152103626428341
10.278048780487804,-0.5818687619993261
10.311419068736143,-0.4380815510525526
10.34478935698448,-0.2881816124450385
10.378159645232817,-0.1396799911790964
10.411529933481154,-0.001395254661901112
10.44490022172949,0.12021841206918112
10.478270509977827,0.22365666647646576
10.511640798226164,0.31185124628980726
10.545011086474501,0.3887701032235761
10.578381374722838,0.45544504888188003
10.611751662971175,0.5082756209807214
10.645121951219512,0.5409992513724753
10.67849223946785,0.5491940252425861
10.711862527716187,0.5342885903921885
10.745232815964524,0.5041169838275926
10.778603104212861,0.4691233920761544
10.811973392461198,0.4361309533354898
10.845343680709535,0.4033839820913228
10.878713968957872,0.3601999524097222
10.912084257206208,0.2921515314572328
10.945454545454545,0.1895548181178094
10.978824833702882,0.05493186019188549
11.012195121951219,-0.09470778691395236
11.045565410199556,-0.2324294810215028
11.078935698447895,-0.3309094528313248
11.112305986696231,-0.37245491915628204
11.145676274944568,-0.3548538733336715
11.179046563192905,-0.2908092117138707
11.212416851441242,-0.20219129919812653
11.245787139689579,-0.1126883250903221
11.279157427937916,-0.0422781785755157
11.312527716186253,-0.004749166263680832
11.34589800443459,-0.007135692927724457
11.379268292682926,-0.04919578391515406
11.412638580931263,-0.1222770717051631
11.4460088691796,-0.20883535850735566
11.479379157427939,-0.284707700081722
11.512749445676276,-0.3251026190266126
11.546119733924613,-0.3128090515988189
11.57949002217295,-0.24507721038892585
11.612860310421286,-0.13556318855623298
11.646230598669623,-0.009939348715560603
11.67960088691796,0.10299677397369955
11.712971175166297,0.18060940681346305
11.746341463414634,0.21207678813834313
11.77971175166297,0.19867655634798762
11.813082039911308,0.14995328283947643
11.846452328159646,0.07879456304367746
11.879822616407983,-0.001919292692401788
11.91319290465632,-0.08032417894992563
11.946563192904657,-0.14533107378479204
11.979933481152994,-0.1867639227645886
12.01330376940133,-0.19664896474352633
12.046674057649668,-0.17116556752299927
12.080044345898004,-0.1121704268928196
12.113414634146341,-0.02755057255421382
12.146784922394678,0.06962053893620405
12.180155210643015,0.1628019502924993
12.213525498891352,0.23449468650580446
12.24689578713969,0.2697830948501355
12.280266075388028,0.26083579211972174
12.313636363636364,0.21115932191593814
12.347006651884701,0.13722155643983583
12.380376940133038,0.06513487370595406
12.413747228381375,0.022091447748518542
12.447117516629712,0.025378894239289605
12.480487804878049,0.07407841187277597
12.513858093126386,0.14813396691361602
12.547228381374723,0.21615044769973124
12.58059866962306,0.24874171826717015
12.613968957871396,0.23113570644890064
12.647339246119735,0.1689407618719639
12.680709534368072,0.08444727477707566
12.714079822616409,0.005649350992585441
12.747450110864746,-0.046315580450193655
12.780820399113082,-0.06519519266191845
12.81419068736142,-0.05971223535674552
12.847560975609756,-0.046546608234607795
12.880931263858093,-0.040559923767482166
12.91430155210643,-0.047672599558207684
12.947671840354767,-0.06397704500334712
12.981042128603104,-0.08101808393706139
13.014412416851442,-0.09368372847509593
13.04778270509978,-0.10570114910282431
13.081152993348116,-0.12909563758551199
13.114523281596453,-0.17742013664614067
13.14789356984479,-0.25626117388997205
13.181263858093127,-0.3564475616383985
13.214634146341464,-0.4543564761090297
13.2480044345898,-0.5200939807876973
13.281374722838137,-0.529981054621798
13.314745011086474,-0.4771435696346998
13.348115299334811,-0.37471770706964375
13.381485587583148,-0.24998409830936413
13.414855875831487,-0.13250584855251216
13.448226164079824,-0.042319663318310795
13.48159645232816,0.016233412651923292
13.514966740576497,0.052901261544720225
13.548337028824834,0.08427243615400652
13.581707317073171,0.12563052428999966
13.615077605321508,0.18625521510380638
13.648447893569845,0.26957639242868364
13.681818181818182,0.3760698425479481
13.715188470066519,0.5049811050251013
13.748558758314855,0.6521176453035678
13.781929046563192,0.8043987047612373
13.815299334811531,0.9353384607879903
13.848669623059868,1.006655518781933
13.882039911308205,0.9785981534987511
13.915410199556542,0.8264328422876983
13.948780487804878,0.5557681009396672
13.982150776053215,0.20811448417409603
14.015521064301552,-0.14827346135502945
14.048891352549889,-0.44013943066825745
14.082261640798226,-0.6146915876175055
14.115631929046563,-0.6575157685579875
14.1490022172949,-0.5951167622718869
14.182372505543238,-0.4816952144008642
14.215742793791575,-0.37698221563097833
14.249113082039912,-0.32515266892748595
14.282483370288249,-0.3428337310474607
14.315853658536586,-0.4188419809394289
14.349223946784923,-0.5228869960021799
14.38259423503326,-0.617788675741829
14.415964523281596,-0.6703867752168133
14.449334811529933,-0.6588466446695612
14.48270509977827,-0.5763441734610847
14.516075388026607,-0.43184760995210003
14.549445676274944,-0.2481517024985628
14.582815964523283,-0.056738309516353794
14.61618625277162,0.11044642427454592
14.649556541019956,0.2305741336142386
14.682926829268293,0.2975118164290238
14.71629711751663,0.32380543623487
14.749667405764967,0.33531937143258506
14.783037694013304,0.3600171484561335
14.81640798226164,0.4153548208050906
14.849778270509978,0.49984001203844425
14.883148558758315,0.5927698765604423
14.916518847006651,0.662607463781618
14.949889135254988,0.6805058929724126
14.983259423503327,0.6329825628342957
15.016629711751664,0.5278937434847496
15.05,0.39072043500922127
15.083370288248338,0.25261105202392947
15.116740576496674,0.13570359563800174
15.150110864745011,0.04296938175559813
15.183481152993348,-0.04197532264560335
15.216851441241685,-0.1444745318213639
15.250221729490022,-0.28284979350602923
15.283592017738359,-0.4551284910292521
15.316962305986696,-0.6356489738247629
15.350332594235034,-0.7835098696196533
15.383702882483371,-0.8585137525183572
15.417073170731708,-0.8365888058656662
15.450443458980045,-0.717733125769887
15.483813747228382,-0.5242602526955846
15.517184035476719,-0.2921694340749659
15.550554323725056,-0.06067867467635898
15.583924611973393,0.13633393995562465
15.61729490022173,0.2760696217129315
15.650665188470066,0.3505039602139482
15.684035476718403,0.3682213977357334
15.71740576496674,0.35289074169317575
15.750776053215079,0.3363854264838838
15.784146341463416,0.3465816206346957
15.817516629711752,0.3936326309048345
15.85088691796009,0.46148038974635425
15.884257206208426,0.5108749671092865
15.917627494456763,0.49537206809087786
15.9509977827051,0.3846224662602416
15.984368070953437,0.18383073392376395
16.017738359201775,-0.061626749744604366
16.05110864745011,-0.2808839790551223
16.08447893569845,-0.4061525034516
16.117849223946784,-0.40205307797226314
16.151219512195123,-0.2815642316797363
16.184589800443458,-0.10081679375025765
16.217960088691797,0.06470473244322607
16.251330376940132,0.15121553062252124
16.28470066518847,0.13079592806099846
16.31807095343681,0.018712797905702152
16.351441241685144,-0.13753698709660103
16.384811529933483,-0.28062874644241026
16.418181818181818,-0.3663452354566029
16.451552106430157,-0.37757108854191496
16.48492239467849,-0.3252794617117044
16.51829268292683,-0.23864925403330825
16.551662971175165,-0.1505224985941132
16.585033259423504,-0.0849986439285823
16.61840354767184,-0.05156108083416127
16.651773835920178,-0.046407399780140655
16.685144124168513,-0.05843532458376914
16.71851441241685,-0.07585533468669381
16.75188470066519,-0.09001298475452203
16.785254988913525,-0.0952089853688714
16.818625277161864,-0.08593487410679844
16.8519955654102,-0.05457906450004514
16.885365853658538,0.0076661903836724105
16.918736141906873,0.10613369141645292
16.95210643015521,0.23645282100518844
16.985476718403547,0.38068404901127456
17.018847006651885,0.509277593830058
17.05221729490022,0.5897091265223314
17.08558758314856,0.5990436251202461
17.118957871396898,0.5348839151322917
17.152328159645233,0.4188408690548628
17.18569844789357,0.28947623225379976
17.219068736141907,0.18665986345345326
17.252439024390245,0.1340412580736614
17.28580931263858,0.1281342444116302
