Frequency (Hz),Amplitude
0.0,3.839710102513287
0.01993355481727575,3.8394883990140602
0.0398671096345515,3.838824129488142
0.059800664451827246,3.8377198145256957
0.079734219269103,3.8361796473552774
0.09966777408637874,3.8342094821946167
0.11960132890365449,3.8318168179084
0.13953488372093023,3.829010776940965
0.159468438538206,3.8258020794846
0.17940199335548174,3.822203012836496
0.19933554817275748,3.8182273958934205
0.21926910299003324,3.813890538729782
0.23920265780730898,3.8092091972018243
0.25913621262458475,3.8042015225241155
0.27906976744186046,3.798887005765541
0.29900332225913623,3.7932864172198384
0.318936877076412,3.787421740614364
0.3388704318936877,3.7813161021343786
0.3588039867109635,3.7749936942554014
0.37873754152823924,3.768479694398434
0.39867109634551495,3.7618001784455393
0.4186046511627907,3.754982029183554
0.4385382059800665,3.7480528397756467
0.4584717607973422,3.741040812398808
0.47840531561461797,3.733974652226447
0.49833887043189373,3.7268834569815046
0.5182724252491695,3.7197966023349465
0.5382059800664452,3.7127436234776274
0.5581395348837209,3.7057540932495403
0.5780730897009968,3.69885749726857
0.5980066445182725,3.6920831065605992
0.6179401993355482,3.6854598482526977
0.637873754152824,3.6790161749505352
0.6578073089700996,3.6727799334791067
0.6777408637873754,3.666778233719646
0.6976744186046512,3.6610373183262275
0.717607973421927,3.655582434149012
0.7375415282392027,3.650437706228331
0.7574750830564785,3.6456260152509636
0.7774086378737541,3.6411688793785673
0.7973421926910299,3.637086341364473
0.8172757475083057,3.633396861869599
0.8372093023255814,3.6301172198696716
0.8571428571428572,3.6272624210142683
0.877076411960133,3.6248456147522576
0.8970099667774087,3.6228780209795834
0.9169435215946844,3.6213688668929302
0.9368770764119602,3.620325334649402
0.9568106312292359,3.6197525203366223
0.9767441860465116,3.6196534046541107
0.9966777408637875,3.6200288355946806
1.0166112956810631,3.6208775232971506
1.036544850498339,3.6221960471214523
1.0564784053156147,3.6239788748755193
1.0764119601328903,3.6262183940029344
1.0963455149501662,3.6289049544243905
1.1162790697674418,3.632026922615034
1.1362126245847177,3.6355707463969833
1.1561461794019936,3.6395210298337366
1.176079734219269,3.6438606175305925
1.196013289036545,3.6485706875760804
1.2159468438538206,3.653630852302244
1.2358803986710964,3.6590192659988627
1.255813953488372,3.6647127386869274
1.275747508305648,3.6706868550405822
1.2956810631229239,3.6769160975432476
1.3156146179401993,3.6833739729724377
1.3355481727574752,3.690033141327409
1.3554817275747508,3.696865546342992
1.3754152823920267,3.70384254677126
1.3953488372093024,3.7109350476573795
1.4152823920265782,3.718113630886806
1.435215946843854,3.7253486843359553
1.4551495016611296,3.732610529016029
1.4750830564784054,3.7398695436596276
1.495016611295681,3.747096286258945
1.514950166112957,3.7542616121240364
1.5348837209302328,3.7613367880872097
1.5548172757475083,3.7682936025347225
1.5747508305647842,3.7751044709994277
1.5946843853820598,3.78174253709695
1.6146179401993357,3.788181768632538
1.6345514950166113,3.794397048747012
1.6544850498338872,3.8003642620064952
1.6744186046511629,3.8060603753726783
1.6943521594684385,3.811463514018669
1.7142857142857144,3.816553031978508
1.73421926910299,3.8213095776387918
1.754152823920266,3.825715154095776
1.7740863787375416,3.8297531744139572
1.7940199335548175,3.833408511830744
1.8139534883720931,3.8366675449572183
1.8338870431893688,3.8395181980282445
1.8538205980066447,3.8419499762551443
1.8737541528239203,3.843953996332101
1.893687707641196,3.8455230121441644
1.9136212624584719,3.846651435718561
1.9335548172757475,3.8473353534545436
1.9534883720930232,3.8475725376584413
1.9734219269102993,3.8473624534024915
1.993355481727575,3.846706260715596
2.0132890365448506,3.845606812104958
2.0332225913621262,3.8440686453975377
2.0531561461794023,3.8420979718798143
2.073089700996678,3.8397026597063033
2.0930232558139537,3.836892212536829
2.1129568106312293,3.833677743356706
2.132890365448505,3.830071943425463
2.1528239202657806,3.826089046296527
2.1727574750830567,3.821744786845135
2.1926910299003324,3.817056355242319
2.212624584717608,3.8120423458123582
2.2325581395348837,3.8067227007156164
2.25249169435216,3.801118648405469
2.2724252491694354,3.7952526368177226
2.292358803986711,3.7891482612642577
2.312292358803987,3.782830187020776
2.332225913621263,3.776324066619091
2.352159468438538,3.7696564518803504
2.3720930232558137,3.762854700755976
2.39202657807309,3.7559468790768538
2.4119601328903655,3.7489616573516225
2.431893687707641,3.741928202796828
2.4518272425249172,3.7348760668309757
2.471760797342193,3.7278350683150236
2.4916943521594686,3.7208351728780373
2.511627906976744,3.7139063687238956
2.5315614617940203,3.707078539376466
2.551495016611296,3.7003813338814613
2.5714285714285716,3.6938440350462223
2.5913621262458477,3.6874954263595874
2.611295681063123,3.6813636582937117
2.6312292358803986,3.6754761147456962
2.6511627906976742,3.6698592804284527
2.6710963455149503,3.664538610064603
2.691029900332226,3.659538400275114
2.7109634551495017,3.654881665081839
2.7308970099667778,3.650590015960989
2.7508305647840534,3.6466835473897747
2.770764119601329,3.6431807288220512
2.7906976744186047,3.640098304007413
2.810631229235881,3.6374511985344506
2.8305647840531565,3.6352524364296195
2.850498338870432,3.633513066580717
2.870431893687708,3.632242099678406
2.8903654485049834,3.6314464562803663
2.910299003322259,3.631130926503929
2.9302325581395348,3.6312981417437173
2.950166112956811,3.6319485586949884
2.9700996677740865,3.6330804558415286
2.990033222591362,3.634689942442293
3.0099667774086383,3.636770979925976
3.029900332225914,3.6393154154789147
3.0498338870431896,3.6423130274928956
3.0697674418604657,3.645751582426473
3.089700996677741,3.649616902529344
3.1096345514950166,3.653892943785068
3.129568106312292,3.6585618833457714
3.1495016611295683,3.663604215662342
3.169435215946844,3.6689988564587424
3.1893687707641196,3.674723253656826
3.2093023255813957,3.6807535043304056
3.2292358803986714,3.687064476753834
3.249169435215947,3.693629936609038
3.2691029900332227,3.700422676426586
3.289036544850499,3.7074146473589993
3.3089700996677744,3.714577092416712
3.32890365448505,3.721880680337952
3.3488372093023258,3.729295639311755
3.3687707641196014,3.736791889826403
3.388704318936877,3.7443391759733915
3.4086378737541527,3.7519071945964373
3.428571428571429,3.759465721737165
3.4485049833887045,3.7669847358899347
3.46843853820598,3.7744345376395505
3.4883720930232562,3.7817858653139518
3.508305647840532,3.7890100063402956
3.5282392026578075,3.7960789040459373
3.548172757475083,3.8029652596948993
3.5681063122923593,3.8096426295955377
3.588039867109635,3.8160855171560124
3.60797342192691,3.8222694598003857
3.6279069767441863,3.828171110690218
3.647840531561462,3.833768315223647
3.6677740863787376,3.8390401823073077
3.6877076411960132,3.843967150415303
3.7076411960132893,3.848531048464165
3.727574750830565,3.852715151544687
3.7475083056478407,3.8565042315586022
3.7674418604651168,3.859884602813652
3.787375415282392,3.8628441626320202
3.807308970099668,3.8653724270266303
3.8272425249169437,3.8674605614971713
3.8471760797342194,3.8691014069928076
3.867109634551495,3.870289501082059
3.887043189368771,3.871021094362645
3.9069767441860463,3.8712941621351775
3.9269102990033224,3.871108411354601
3.9468438538205985,3.870465282863434
3.9667774086378738,3.8693679488994204
3.98671096345515,3.8678213058602293
4.0066445182724255,3.865831962296843
4.026578073089701,3.863408222097125
4.046511627906977,3.8605600628118655
4.0664451827242525,3.8572991090670614
4.086378737541528,3.853638600998859
4.106312292358805,3.8495933576421977
4.1262458471760795,3.84517973520037
4.146179401993356,3.840415580120855
4.166112956810632,3.83532017690398
4.186046511627907,3.829914190574358
4.205980066445183,3.824219603752071
4.225913621262459,3.8182596482705105
4.245847176079734,3.8120587313020744
4.26578073089701,3.805642355970707
4.2857142857142865,3.7990370364528667
4.305647840531561,3.792270207595142
4.325581395348838,3.78537012910844
4.345514950166113,3.7783657844352767
4.365448504983389,3.7712867744274967
4.385382059800665,3.7641632060183112
4.40531561461794,3.75702557612266
4.425249169435216,3.7499046510551812
4.445182724252492,3.7428313418134938
4.465116279069767,3.7358365756366294
4.485049833887043,3.7289511643127415
4.50498338870432,3.7222056697763124
4.524916943521594,3.715630267601497
4.544850498338871,3.709254609063866
4.5647840531561465,3.7031076825067424
4.584717607973422,3.6972176748079812
4.604651162790698,3.691611833798511
4.624584717607974,3.68631633253163
4.644518272425249,3.681356136342436
4.664451827242526,3.6767548736665057
4.6843853820598005,3.672534711605823
4.704318936877076,3.668716237235936
4.724252491694353,3.665318345640769
4.7441860465116275,3.6623581356393444
4.764119601328904,3.6598508141316737
4.78405315614618,3.657809609938679
4.803986710963455,3.656245697943938
4.823920265780731,3.65516813426375
4.8438538205980075,3.6545838030773456
4.863787375415282,3.654497375642969
4.883720930232559,3.6549112819089795
4.9036544850498345,3.655825695005727
4.92358803986711,3.657238528773549
4.943521594684386,3.659145448350431
4.963455149501661,3.661539893709808
4.983388704318937,3.6644131159079802
5.003322259136213,3.66775422567568
5.023255813953488,3.6715502538689786
5.043189368770764,3.6757862231862597
5.063122923588041,3.6804452304595072
5.083056478405315,3.6855085387437896
5.102990033222592,3.6909556783569184
5.122923588039868,3.6967645559654247
5.142857142857143,3.702911570771315
5.162790697674419,3.7093717368273746
5.182724252491695,3.716118810497695
5.20265780730897,3.723125422081058
5.222591362126246,3.7303632106305677
5.242524916943522,3.7378029610288523
5.262458471760797,3.745414742414711
5.282392026578074,3.753168047103141
5.3023255813953485,3.761031929191789
5.322259136212625,3.7689751421060245
5.342192691029901,3.776966274396
5.362126245847176,3.7849738831633513
5.382059800664452,3.792966624560719
5.4019933554817285,3.800913380872592
5.421926910299003,3.808783383749466
5.44186046511628,3.8165463332294167
5.4617940199335555,3.8241725122397803
5.48172757475083,3.831632896326412
5.501661129568107,3.8388992584093544
5.5215946843853825,3.845944268409755
5.541528239202658,3.8527415876350295
5.561461794019934,3.859265957845789
5.5813953488372094,3.8654932849607735
5.601328903654485,3.8714007173829366
5.621262458471762,3.8769667189531276
5.641196013289036,3.8821711365561784
5.661129568106313,3.8869952624187687
5.681063122923589,3.891421891148658
5.700996677740864,3.895435371572568
5.72093023255814,3.8990216534330644
5.740863787375416,3.902168329006254
5.760797342192691,3.9048646697001534
5.780730897009967,3.907101657689462
5.800664451827243,3.9088720126367598
5.820598006644518,3.9101702135421808
5.840531561461795,3.910992515754595
5.8604651162790695,3.9113369631671717
5.880398671096346,3.9112033956089207
5.900332225913622,3.910593451432202
5.920265780730897,3.9095105652840942
5.940199335548173,3.9079599610375593
5.960132890365449,3.9059486398461507
5.980066445182724,3.9034853632748177
6.0,3.9005806314484457
6.0199335548172765,3.8972466561501617
6.039867109634551,3.8934973287930075
6.059800664451828,3.88934818318181
6.0797342192691035,3.884816352977251
6.099667774086379,3.8799205237715433
6.119601328903655,3.8746808796852865
6.139534883720931,3.869119044397937
6.159468438538206,3.863258016530826
6.179401993355482,3.857122099311717
6.1993355481727574,3.8507368244638642
6.219269102990033,3.844128870281093
6.23920265780731,3.8373259738735515
6.259136212624584,3.830356837596827
6.279069767441861,3.8232510297104456
6.299003322259137,3.8160388793501765
6.318936877076412,3.8087513659425767
6.338870431893688,3.8014200032394276
6.3588039867109645,3.7940767182039075
6.378737541528239,3.7867537250397816
6.398671096345516,3.7794833947180644
6.418604651162791,3.772298120423429
6.438538205980066,3.765230179412334
6.458471760797343,3.7583115918473915
6.4784053156146175,3.751573977245455
6.498338870431894,3.7450484092490934
6.51827242524917,3.7387652695019566
6.538205980066445,3.7327541014748373
6.558139534883721,3.7270434651509645
6.578073089700998,3.7216607935329185
6.598006644518272,3.7166322519790898
6.617940199335549,3.7119826014118864
6.6378737541528245,3.707735066461947
6.6578073089701,3.7039112096214217
6.677740863787376,3.700530812471997
6.6976744186046515,3.6976117650311617
6.717607973421927,3.695169964220745
6.737541528239203,3.6932192224056872
6.7574750830564785,3.6917711868788623
6.777408637873754,3.69083527107911
6.797342192691031,3.690418598227373
6.8172757475083055,3.690525957949553
6.837209302325582,3.6911597763283663
6.857142857142858,3.6923200996907735
6.877076411960133,3.694004592296422
6.897009966777409,3.6962085479477333
6.9169435215946855,3.6989249153978214
6.93687707641196,3.7021443372897793
6.956810631229236,3.70585520222482
6.9767441860465125,3.7100437094278433
6.996677740863787,3.7146939453614634
7.016611295681064,3.719787971534115
7.036544850498339,3.7253059226568714
7.056478405315615,3.731226114228265
7.076411960132891,3.737525158566995
7.096345514950166,3.744178088270062
7.116279069767442,3.751158486047473
7.136212624584719,3.758438619874772
7.156146179401993,3.765989582409424
7.17607973421927,3.7737814336360196
7.196013289036546,3.781783345736755
7.21594684385382,3.789963749225605
7.235880398671097,3.7982904794364316
7.2558139534883725,3.80673092251378
7.275747508305648,3.815252160119849
7.295681063122924,3.823821112139353
7.3156146179402,3.8324046767347704
7.335548172757475,3.840969867175926
7.355481727574752,3.849483944938851
7.3754152823920265,3.8579145486378494
7.395348837209303,3.8662298184215196
7.415282392026579,3.874398515526002
7.435215946843854,3.882390136737711
7.45514950166113,3.8901750235715973
7.475083056478406,3.8977244660201316
7.495016611295681,3.905010800771839
7.514950166112956,3.912007503836765
7.5348837209302335,3.9186892775493805
7.554817275747508,3.925032131947603
7.574750830564784,3.931013460549686
7.5946843853820605,3.9366121105691874
7.614617940199336,3.9418084476221678
7.634551495016611,3.9465844149908516
7.6544850498338874,3.9509235875138558
7.674418604651163,3.954811220176152
7.694352159468439,3.9582342914713
7.714285714285715,3.961181541605444
7.73421926910299,3.963643505607124
7.754152823920266,3.9656125413993277
7.774086378737542,3.9670828528806936
7.794019933554818,3.9680505080521775
7.813953488372093,3.9685134522130965
7.83388704318937,3.968471516237928
7.853820598006645,3.9679264199311826
7.8737541528239205,3.966881770444189
7.893687707641197,3.965343055723151
7.913621262458472,3.963317632944288
7.9335548172757475,3.960814711878356
7.953488372093024,3.9578453331139563
7.9734219269103,3.9544223410578603
7.9933554817275745,3.9505603516197922
8.013289036544851,3.9462757144808798
8.033222591362128,3.9415864698382768
8.053156146179402,3.9365122995140918
8.073089700996679,3.931074472315783
8.093023255813954,3.925295783536455
8.11295681063123,3.9192004884890355
8.132890365448505,3.912814229977617
8.152823920265782,3.9061639596229236
8.172757475083056,3.8992778529770398
8.192691029900331,3.892185218386692
8.21262458471761,3.8849163995928255
8.232558139534884,3.8775026720894035
8.252491694352159,3.8699761333051965
8.272425249169435,3.862369586718823
8.292358803986712,3.854716420070718
8.312292358803987,3.847050477894086
8.332225913621263,3.8394059286519084
8.352159468438538,3.8318171268363304
8.372093023255815,3.824318470461549
8.392026578073091,3.816944254458859
8.411960132890366,3.8097285205634983
8.43189368770764,3.8027049043647407
8.451827242524917,3.7959064802727687
8.471760797342194,3.7893656052358575
8.491694352159469,3.783113762118119
8.511627906976745,3.77718140371886
8.53156146179402,3.771597798478081
8.551495016611296,3.7663908789665435
8.571428571428573,3.761587094300409
8.591362126245848,3.757211267649226
8.611295681063122,3.7532864600189098
8.6312292358804,3.7498338414874075
8.651162790697676,3.7468725710490776
8.67109634551495,3.744419686183239
8.691029900332227,3.742490003202718
8.710963455149502,3.741096029359961
8.730897009966778,3.7402478875919667
8.750830564784053,3.739953254672142
8.77076411960133,3.740217313409229
8.790697674418604,3.7410427193927616
8.81063122923588,3.742429582633768
8.830564784053157,3.7443754642918705
8.850498338870432,3.7468753885183093
8.870431893687707,3.7499218692829803
8.890365448504983,3.7535049518943437
8.91029900332226,3.7576122687689084
8.930232558139535,3.7622291088634343
8.950166112956811,3.767338500052109
8.970099667774086,3.772921303613983
8.990033222591363,3.7789563198954776
9.00996677740864,3.7854204041300887
9.029900332225914,3.7922885913328632
9.049833887043189,3.7995342291418197
9.069767441860467,3.8071291174516895
9.089700996677742,3.8150436536764514
9.109634551495017,3.82324698248504
9.129568106312293,3.831707148878644
9.14950166112957,3.8403912535151865
9.169435215946844,3.8492656092362063
9.189368770764121,3.858295897810854
9.209302325581396,3.8674473259794224
9.22923588039867,3.8766847799517685
9.249169435215949,3.8859729775941654
9.269102990033224,3.895276617616821
9.289036544850498,3.9045605251552193
9.308970099667773,3.91378979321692
9.328903654485051,3.9229299195423746
9.348837209302326,3.931946938501615
9.368770764119601,3.9408075477178586
9.388704318936878,3.9494792291729146
9.408637873754152,3.957930364608066
9.428571428571429,3.9661303450869583
9.448504983388705,3.9740496746336267
9.46843853820598,3.9816600679002216
9.488372093023255,3.988934541853422
9.508305647840533,3.9958475014982797
9.528239202657808,4.002374819681529
9.548172757475083,4.008493911035588
9.56810631229236,4.01418380013769
9.588039867109636,4.01942518396806
9.60797342192691,4.024200488756477
9.627906976744187,4.0284939213076445
9.647840531561462,4.032291514894204
9.667774086378738,4.035581169801386
9.687707641196015,4.038352688600004
9.70764119601329,4.0405978062146595
9.727574750830565,4.042310214842941
9.747508305647841,4.0434855837679144
9.767441860465118,4.044121574092079
9.787375415282392,4.044217848405523
9.807308970099669,4.043776075385177
9.827242524916944,4.042799929305266
9.84717607973422,4.0412950844227
9.867109634551497,4.039269204184659
9.887043189368772,4.0367319251893266
9.906976744186046,4.033694835815961
9.926910299003321,4.030171449425309
9.9468438538206,4.026177172019504
9.966777408637874,4.021729264238341
9.986710963455149,4.01684679756058
10.006644518272426,4.011550604571653
10.026578073089702,4.005863223155819
10.046511627906977,3.9998088344703806
10.066445182724253,3.9934131945629145
10.086378737541528,3.986703559500466
10.106312292358805,3.979708603892052
10.126245847176081,3.9724583327036718
10.146179401993356,3.9649839862886296
10.16611295681063,3.957317938585566
10.186046511627907,3.949493588472626
10.205980066445184,3.94154524430966
10.225913621262459,3.9335080017496593
10.245847176079735,3.9254176149583873
10.26578073089701,3.9173103614447258
10.285714285714286,3.909222900775664
10.305647840531563,3.9011921275269468
10.325581395348838,3.8932550189032247
10.345514950166113,3.885448477550009
10.36544850498339,3.87780917017075
10.385382059800666,3.8703733626566144
10.40531561461794,3.8631767525311034
10.425249169435217,3.8562542996049025
10.445182724252492,3.849640055826826
10.465116279069768,3.843366995400809
10.485049833887045,3.837466846315967
10.50498338870432,3.8319699245026606
10.524916943521594,3.8269049718811043
10.544850498338871,3.822298999606915
10.564784053156147,3.8181771378395495
10.584717607973422,3.8145624933606124
10.604651162790697,3.8114760163506727
10.624584717607974,3.808936377592457
10.64451827242525,3.806959857306016
10.664451827242525,3.8055602467362366
10.684385382059801,3.8047487635081683
10.704318936877076,3.8045339816390893
10.724252491694353,3.8049217769535755
10.74418604651163,3.805915288488532
10.764119601328904,3.8075148963049927
10.784053156146179,3.8097182159433824
10.803986710963457,3.812520109575721
