Frequency (Hz),Amplitude
0.0,2.987588946848828
0.019823788546255508,2.986442270955174
0.039647577092511016,2.9830041404123224
0.059471365638766524,2.9772802505352
0.07929515418502203,2.96928010658685
0.09911894273127755,2.959017043634371
0.11894273127753305,2.946508254847686
0.13876651982378857,2.931774828751116
0.15859030837004406,2.9148417960975044
0.17841409691629956,2.8957381872030576
0.1982378854625551,2.8744971007640046
0.2180616740088106,2.8511557853724443
0.2378854625550661,2.825755735163385
0.25770925110132165,2.7983428012577365
0.27753303964757714,2.768967320920735
0.29735682819383263,2.7376842666316303
0.31718061674008813,2.704553417559216
0.3370044052863437,2.669639556257744
0.3568281938325991,2.633012693735564
0.37665198237885467,2.5947483263967976
0.3964757709251102,2.554927728704722
0.41629955947136565,2.5136382857443387
0.4361233480176212,2.4709738701438844
0.4559471365638767,2.4270352680099525
0.4757709251101322,2.3819306585797335
0.49559471365638774,2.335776152111474
0.5154185022026433,2.288696390007138
0.5352422907488987,2.240825210128105
0.5550660792951543,2.192306378514092
0.5748898678414097,2.1432943859642273
0.5947136563876653,2.0939553038261907
0.6145374449339208,2.0444676874093437
0.6343612334801763,1.9950235071440583
0.6541850220264318,1.9458290763274382
0.6740088105726874,1.897105929372513
0.6938325991189428,1.8490915853318552
0.7136563876651982,1.802040107771412
0.7334801762114539,1.7562223440460716
0.7533039647577093,1.7119256958753784
0.7731277533039648,1.6694532415814438
0.7929515418502204,1.6291220033693683
0.8127753303964759,1.5912601382828395
0.8325991189427313,1.5562028395033538
0.8524229074889869,1.5242867780934641
0.8722466960352424,1.4958430064664958
0.8920704845814978,1.4711883916376889
0.9118942731277534,1.4506158461105463
0.931718061674009,1.434383858101109
0.9515418502202644,1.422706052212961
0.9713656387665199,1.4157416821675184
0.9911894273127755,1.4135880108386951
1.0110132158590308,1.416275428118282
1.0308370044052866,1.4237658890167146
1.0506607929515421,1.4359548643140319
1.0704845814977975,1.4526765640896093
1.090308370044053,1.4737118145610022
1.1101321585903086,1.4987977175866958
1.1299559471365639,1.52763813621005
1.1497797356828194,1.559914118868155
1.1696035242290752,1.5952935549297727
1.1894273127753305,1.6334395866227545
1.209251101321586,1.6740175340168937
1.2290748898678416,1.716700284207485
1.248898678414097,1.761172236294582
1.2687224669603525,1.8071319790859437
1.288546255506608,1.8542939172837174
1.3083700440528636,1.9023890668032994
1.3281938325991192,1.9511652232833046
1.3480176211453747,2.000386680025435
1.36784140969163,2.049833639907492
1.3876651982378856,2.099301434904413
1.4074889867841411,2.1485996392726983
1.4273127753303965,2.1975511392670133
1.4471365638766522,2.2459912036055196
1.4669603524229078,2.2937665844142616
1.4867841409691631,2.340734667465063
1.5066079295154187,2.386762682520997
1.5264317180616742,2.4317269789020632
1.5462555066079295,2.4755123674431503
1.5660792951541853,2.51801152739365
1.5859030837004409,2.5591244751499724
1.6057268722466962,2.5987580907455445
1.6255506607929517,2.6368256975405773
1.6453744493392073,2.6732466904034458
1.6651982378854626,2.7079462077438157
1.6850220264317182,2.7408548429648913
1.7048458149779737,2.7719083911917695
1.7246696035242293,2.8010476274650395
1.7444933920704848,2.828218112937773
1.7643171806167404,2.8533700259614196
1.7841409691629957,2.8764580152824544
1.8039647577092512,2.8974410728889692
1.8237885462555068,2.916282424343049
1.8436123348017623,2.932949434708745
1.863436123348018,2.947413528437099
1.8832599118942732,2.95965012180111
1.9030837004405288,2.969638566685345
1.9229074889867843,2.9773621047301884
1.9427312775330399,2.9828078310110966
1.9625550660792954,2.9859666666015485
1.982378854625551,2.9868333395265063
2.002202643171806,2.985406373763951
2.0220264317180616,2.981688086097155
2.041850220264317,2.975684590762622
2.061674008810573,2.9674058119800097
2.0814977973568287,2.9568655045927983
2.1013215859030843,2.9440812831952026
2.1211453744493394,2.929074660272708
2.140969162995595,2.9118710940442347
2.1607929515418505,2.8925000468650475
2.180616740088106,2.870995055233041
2.2004405286343616,2.847393812640798
2.220264317180617,2.8217382667319173
2.2400881057268722,2.794074732456988
2.2599118942731278,2.7644540231820476
2.2797356828193833,2.7329316019824947
2.299559471365639,2.699567755658722
2.319383259911895,2.6644277943334926
2.3392070484581504,2.6275822798333057
2.3590308370044055,2.589107286407717
2.378854625550661,2.5490846976923582
2.3986784140969166,2.5076025441510104
2.418502202643172,2.4647553855140187
2.4383259911894277,2.4206447429193885
2.4581497797356833,2.37537958550019
2.4779735682819384,2.329076875958621
2.497797356828194,2.281862179105313
2.5176211453744495,2.2338703362556522
2.537444933920705,2.185246206544551
2.5572687224669606,2.1361454733541274
2.577092511013216,2.08673550977329
2.5969162995594717,2.037196290854863
2.6167400881057272,1.9877213318450189
2.6365638766519828,1.9385186198917537
2.6563876651982383,1.8898114913353432
2.676211453744494,1.8418393869653706
2.6960352422907494,1.7948583932998028
2.715859030837005,1.7491414492881017
2.73568281938326,1.7049780661891139
2.7555066079295156,1.6626733766761879
2.775330396475771,1.6225463027088447
2.7951541850220267,1.5849266184326114
2.8149779735682823,1.5501506952639683
2.834801762114538,1.518555764271634
2.854625550660793,1.4904726282813254
2.874449339207049,1.4662169100144005
2.8942731277533045,1.4460791290404087
2.91409691629956,1.4303141382390574
2.9339207048458156,1.4191306788780853
2.953744493392071,1.4126819760113325
2.9735682819383262,1.411058334694402
2.993392070484582,1.41428257346565
3.0132158590308373,1.4223088443878038
3.033039647577093,1.4350249856651944
3.0528634361233484,1.4522581176049916
3.072687224669604,1.473782820305472
3.092511013215859,1.4993309959546366
3.1123348017621146,1.5286024513283953
3.1321585903083706,1.5612753220440787
3.151982378854626,1.5970156515136045
3.1718061674008817,1.635485674856345
3.1916299559471373,1.6763505890382109
3.2114537444933924,1.719283780801014
3.231277533039648,1.7639706186711528
3.2511013215859035,1.8101109949736798
3.270925110132159,1.8574208378598143
3.2907488986784146,1.9056328147849737
3.31057268722467,1.9544964300783974
3.3303964757709252,2.003777690239371
3.350220264317181,2.053258478447894
3.3700440528634363,2.102735748887531
3.389867841409692,2.1520206241803455
3.4096916299559474,2.200937456447559
3.4295154185022034,2.249322894284317
3.4493392070484585,2.297024983851744
3.469162995594714,2.3439023217244666
3.4889867841409696,2.389823269422806
3.508810572687225,2.4346652340923454
3.5286343612334807,2.4783140160359407
3.5484581497797363,2.520663221321165
3.5682819383259914,2.5616137361330145
3.588105726872247,2.6010732586526335
3.6079295154185025,2.6389558838171876
3.627753303964758,2.6751817362050763
3.6475770925110136,2.709676646387127
3.667400881057269,2.7423718663108008
3.6872246696035247,2.7732038195862794
3.7070484581497802,2.802113882883447
3.726872246696036,2.829048195002306
3.7466960352422913,2.853957490528867
3.7665198237885464,2.876796955325806
3.7863436123348024,2.897526101424253
3.8061674008810575,2.916108659178279
3.8259911894273135,2.9325124848171353
3.8458149779735686,2.9467094817798456
3.8656387665198246,2.9586755344471496
3.8854625550660797,2.968390453095698
3.905286343612335,2.975837929093899
3.925110132158591,2.9810054995377575
3.9449339207048464,2.9838845206923756
3.964757709251102,2.9844701497623154
3.9845814977973575,2.9827613346640796
4.004405286343612,2.978760811618908
4.024229074889869,2.9724751105263056
4.044052863436123,2.963914568219983
4.06387665198238,2.9530933498514247
4.083700440528634,2.940029478793303
4.103524229074891,2.9247448756082037
4.123348017621146,2.9072654067901578
4.143171806167401,2.8876209441595106
4.162995594713657,2.8658454359775445
4.182819383259912,2.8419769910494597
4.2026431718061685,2.816057977304428
4.222466960352423,2.7881351365813916
4.242290748898679,2.7582597176118093
4.262114537444934,2.726487629475868
4.28193832599119,2.692879618117222
4.301762114537445,2.657501468832403
4.321585903083701,2.6204242379992713
4.3414096916299565,2.5817245176690715
4.361233480176212,2.5414847370045166
4.381057268722468,2.499793504883737
4.400881057268723,2.456745998276498
4.420704845814979,2.4124444011909443
4.440528634361234,2.3669983990235153
4.46035242290749,2.3205257329317024
4.4801762114537445,2.2731528182646876
4.500000000000001,2.225015429960487
4.5198237885462555,2.1762594559216697
4.539647577092512,2.127041716412966
4.559471365638767,2.077530843096382
4.579295154185023,2.0279082049485777
4.599118942731278,1.9783688594093334
4.618942731277533,1.9291224950333765
4.63876651982379,1.8803943159800862
4.658590308370044,1.8324257982944558
4.678414096916301,1.7854752228237643
4.6982378854625555,1.7398178601194259
4.718061674008811,1.6957456502368622
4.737885462555067,1.653566188125781
4.757709251101322,1.6136007988523895
4.777533039647578,1.5761814746953342
4.797356828193833,1.541646459638531
4.817180616740089,1.5103343192560124
4.837004405286344,1.4825764378669724
4.856828193832599,1.4586880468489056
4.876651982378855,1.43895810276695
4.896475770925111,1.4236385780356382
4.9162995594713665,1.4129339563556855
4.936123348017622,1.4069918814194529
4.955947136563877,1.405895931684576
4.975770925110133,1.4096613494519545
4.995594713656388,1.418234243666074
5.015418502202644,1.431494365915744
5.035242290748899,1.4492611172279888
5.055066079295155,1.4713020759668902
5.07488986784141,1.4973431162943165
5.094713656387666,1.5270791385810627
5.114537444933921,1.5601845374430547
5.134361233480177,1.596322737867613
5.154185022026432,1.6351543740877033
5.174008810572688,1.6763439177785833
5.193832599118943,1.7195647491960833
5.213656387665199,1.7645027942683542
5.2334801762114544,1.8108589245837445
5.25330396475771,1.8583503462934083
5.2731277533039655,1.9067112015511372
5.292951541850221,1.9556925847296196
5.312775330396477,2.0050621451209314
5.332599118942731,2.0546034149561043
5.352422907488988,2.104114970502947
5.372246696035242,2.153409506843479
5.392070484581499,2.202312884455934
5.4118942731277535,2.2506631878745527
5.43171806167401,2.2983098229912997
5.451541850220265,2.345112669340106
5.47136563876652,2.39094129629119
5.491189427312777,2.435674246858964
5.511013215859031,2.4791983892659353
5.530837004405288,2.5214083340752897
5.550660792951542,2.562205913270411
5.570484581497798,2.601499716859202
5.5903083700440535,2.639204682222348
5.610132158590309,2.675241731362561
5.6299559471365646,2.7095374513438157
5.64977973568282,2.742023813461114
5.669603524229076,2.7726379270011248
5.689427312775331,2.801321823805871
5.709251101321586,2.8280222702133493
5.729074889867842,2.852690603303693
5.748898678414098,2.8752825887190903
5.768722466960353,2.895758297644685
5.788546255506609,2.91408200083349
5.808370044052864,2.930222077830875
5.82819383259912,2.9441509398041616
5.848017621145375,2.955844964611684
5.867841409691631,2.965284442955011
5.887665198237886,2.9724535346517738
5.907488986784142,2.9773402342441244
5.927312775330397,2.9799363453251306
5.9471365638766525,2.980237463121952
5.966960352422908,2.978242965024421
5.986784140969164,2.9739560088925554
6.00660792951542,2.9673835391185888
6.026431718061675,2.958536300561014
6.04625550660793,2.947428860612163
6.066079295154186,2.9340796398085454
6.085903083700441,2.9185109515482353
6.105726872246697,2.9007490516431456
6.125550660792952,2.8808241986089196
6.145374449339208,2.858770725784449
6.1651982378854635,2.8346271265781326
6.185022026431718,2.808436154361989
6.204845814977975,2.7802449387801924
6.224669603524229,2.7501051205059226
6.244493392070486,2.718073006773099
6.264317180616741,2.6842097503256475
6.284140969162996,2.6485815547665927
6.303964757709252,2.6112599096481537
6.323788546255507,2.5723218590146812
6.3436123348017635,2.53185030748058
6.363436123348018,2.489934368275396
6.3832599118942746,2.4466697579867893
6.403083700440529,2.40215924293548
6.422907488986785,2.3565131421582026
6.44273127753304,2.309849891763399
6.462555066079296,2.26229667483139
6.482378854625551,2.2139901198793366
6.502202643171807,2.1650770689643104
6.5220264317180625,2.115715413442404
6.541850220264318,2.0660749908338145
6.561674008810574,2.0163385296592917
6.581497797356829,1.9667026199057813
6.601321585903085,1.9173786742630687
6.62114537444934,1.8685938287406665
6.640969162995596,1.8205917101215354
6.6607929515418505,1.7736329716490677
6.680616740088107,1.7279954677592442
6.700440528634362,1.6839739051107943
6.720264317180618,1.6418787740085543
6.740088105726873,1.6020343374637704
6.759911894273129,1.564775443582535
6.779735682819384,1.5304429427725912
6.799559471365639,1.4993775483215994
6.819383259911895,1.47191208996991
6.83920704845815,1.448362281552657
6.859030837004407,1.4290163488689096
6.8788546255506615,1.4141241165903875
6.898678414096917,1.4038863860055932
6.918502202643173,1.3984455867763779
6.938325991189428,1.3978786956164315
6.958149779735684,1.402193247765016
6.977973568281939,1.4113269331260547
6.997797356828195,1.4251508281794216
7.01762114537445,1.443475862600616
7.037444933920705,1.4660617551838035
7.0572687224669615,1.492627447144845
7.077092511013216,1.5228620333456826
7.096916299559473,1.5564353168408158
7.116740088105728,1.593007332788424
7.136563876651983,1.6322364409116956
7.156387665198239,1.6737858199279236
7.176211453744494,1.7173283818660998
7.19603524229075,1.7625502484044706
7.215859030837005,1.8091529993657756
7.235682819383261,1.856854927173311
7.255506607929516,1.9053915243951387
7.275330396475772,1.9545154071098683
7.295154185022027,2.00399584442355
7.314977973568283,2.0536180306036473
7.334801762114538,2.103182204849721
7.354625550660794,2.1525026965825163
7.374449339207049,2.2014069518944455
7.394273127753305,2.2497345792913004
7.4140969162995605,2.2973364395078297
7.433920704845816,2.3440737943011842
7.453744493392072,2.3898175220177547
7.473568281938327,2.4344474027630483
7.493392070484583,2.47785147265377
7.513215859030838,2.519925444470747
7.533039647577093,2.5605721907285703
7.552863436123348,2.599701284479145
7.572687224669605,2.637228592885397
7.59251101321586,2.6730759185968296
7.612334801762115,2.707170684133972
7.6321585903083715,2.739445654771788
7.651982378854627,2.7698386957541703
7.671806167400882,2.7982925600404607
7.691629955947137,2.824754703157114
7.711453744493394,2.849177122090278
7.731277533039649,2.8715162154998994
7.751101321585904,2.8917326628574855
7.7709251101321595,2.909791320407945
7.790748898678416,2.925661132128562
7.81057268722467,2.939315054108989
7.830396475770926,2.9507299910040174
7.850220264317182,2.959886743420831
7.870044052863436,2.966769965294431
7.889867841409693,2.9713681304829964
7.909691629955948,2.9736735079810455
7.929515418502204,2.9736821453049305
7.9493392070484585,2.9713938597540723
7.969162995594715,2.966812237397064
7.9889867841409705,2.959944639773121
8.008810572687224,2.950802218442622
8.02863436123348,2.9393999376642497
8.048458149779737,2.9257566056262
8.068281938325994,2.9098949148145654
8.088105726872246,2.8918414922680835
8.107929515418503,2.8716269606458225
8.12775330396476,2.849286011226671
8.147577092511014,2.824857490168893
8.167400881057269,2.7983844995864864
8.187224669603525,2.769914515250555
8.207048458149782,2.7394995229984134
8.226872246696036,2.7071961762339027
8.246696035242293,2.6730659772284895
8.266519823788547,2.637175485284077
8.286343612334802,2.5995965551907187
8.306167400881058,2.5604066097985303
8.325991189427315,2.5196889509112275
8.345814977973568,2.4775331130771945
8.365638766519824,2.43403526517421
8.38546255506608,2.3892986649072805
8.405286343612337,2.3434341714013764
8.42511013215859,2.2965608208746473
8.444933920704846,2.2488064697925214
8.464757709251103,2.2003085087435257
8.484581497797357,2.151214648299285
8.504405286343614,2.1016837749952315
8.524229074889869,2.0518868708740046
8.544052863436125,2.0020079832395243
8.56387665198238,1.9522452217390562
8.583700440528636,1.9028117468974255
8.60352422907489,1.8539366970232223
8.623348017621145,1.8058659783475897
8.643171806167402,1.7588628160338038
8.662995594713658,1.7132079317150701
8.682819383259913,1.6691991781264293
8.702643171806168,1.6271504267954289
8.722466960352424,1.5873894769529695
8.74229074889868,1.5502547424233044
8.762114537444935,1.5160904910972561
8.78193832599119,1.4852404734352462
8.801762114537446,1.4580398955993485
8.821585903083701,1.434805875485677
8.841409691629957,1.4158267579415351
8.861233480176212,1.4013509297671127
8.881057268722468,1.3915760142856157
8.900881057268723,1.3866394732058112
8.92070484581498,1.3866116379375741
8.940528634361234,1.3914919998921242
8.960352422907489,1.4012092252236634
8.980176211453745,1.4156248925809949
9.000000000000002,1.4345404858300308
9.019823788546258,1.457706810390049
9.039647577092511,1.4848348102006474
9.059471365638768,1.5156067577549317
9.079295154185024,1.54968693832598
9.099118942731279,1.5867311891167464
9.118942731277533,1.6263949184822915
9.13876651982379,1.6683394682533217
9.158590308370046,1.71223686459963
9.1784140969163,1.7577731217247943
9.198237885462555,1.804650324248744
9.218061674008812,1.8525877317576847
9.237885462555067,1.901322137437792
9.257709251101323,1.9506076848023755
9.27753303964758,2.0002153118603307
9.297356828193834,2.0499319569556085
9.317180616740089,2.0995596285182065
9.337004405286345,2.1489144137508758
9.356828193832602,2.197825479227583
9.376651982378855,2.246134099189343
9.396475770925111,2.293692734344388
9.416299559471367,2.340364174461895
9.436123348017622,2.3860207512662144
9.455947136563877,2.4305436234536306
9.475770925110133,2.47382213253632
9.49559471365639,2.515753226245714
9.515418502202644,2.5562409450741117
9.5352422907489,2.5951959669515756
9.555066079295155,2.6325352048630384
9.57488986784141,2.6681814522748395
9.594713656387666,2.7020630714658207
9.614537444933923,2.7341137201796153
9.634361233480178,2.764272112384522
9.654185022026432,2.7924818093164174
9.674008810572689,2.8186910373669676
9.693832599118945,2.842852529752332
9.713656387665198,2.8649233892488786
9.733480176211454,2.884864969609271
9.75330396475771,2.9026427735727123
9.773127753303967,2.918226365658468
9.792951541850222,2.931589298182322
9.812775330396477,2.942709049165041
9.832599118942733,2.9515669710107035
9.852422907488988,2.9581482490253097
9.872246696035244,2.9624418690233387
9.892070484581499,2.9644405934360085
9.911894273127754,2.964140945490819
9.93171806167401,2.9615432011816547
9.951541850220266,2.956651388893298
9.971365638766521,2.9494732966870383
9.991189427312776,2.940020487396704
10.011013215859032,2.9283083218302814
10.030837004405289,2.9143559905224325
10.050660792951543,2.8981865546416237
10.070484581497798,2.8798269968230867
10.090308370044054,2.859308282880114
10.11013215859031,2.8366654355414247
10.129955947136565,2.8119376215769614
10.14977973568282,2.7851682539086378
10.169603524229077,2.756405110561048
10.189427312775331,2.7257004725902765
10.209251101321588,2.69311128344034
10.229074889867842,2.6586993325151362
10.248898678414099,2.622531466120447
10.268722466960353,2.584679829320057
10.28854625550661,2.5452221426574235
10.308370044052865,2.5042420181059915
10.32819383259912,2.4618293190076463
10.348017621145376,2.4180805691090272
10.367841409691632,2.373099416062534
10.387665198237887,2.326997154854287
10.407488986784141,2.2798933164588915
10.427312775330398,2.2319163264609116
10.447136563876654,2.1832042372379252
10.466960352422909,2.133905535310797
10.486784140969164,2.0841800222913056
10.50660792951542,2.0341997630502027
10.526431718061675,1.984150087728825
10.546255506607931,1.9342306243452079
10.566079295154186,1.8846563252237307
10.585903083700442,1.8356584324960774
10.605726872246697,1.787485304775861
10.625550660792953,1.74040299844528
10.645374449339208,1.6946954632105793
10.665198237885463,1.6506641744213997
10.685022026431719,1.6086269879483306
10.704845814977975,1.5689159739521878
