Frequency (Hz),Amplitude
0.0,0.07968895011850519
0.019867549668874173,0.07983309592819549
0.039735099337748346,0.08026349954362984
0.059602649006622516,0.08097416886573355
0.07947019867549669,0.08195546752883819
0.09933774834437085,0.08319459473978816
0.11920529801324503,0.08467617563522076
0.13907284768211922,0.08638290131187545
0.15894039735099338,0.08829616237859586
0.17880794701986755,0.09039663178442427
0.1986754966887417,0.09266476785282188
0.2185430463576159,0.0950812233658801
0.23841059602649006,0.09762715884796998
0.2582781456953642,0.10028446687349031
0.27814569536423844,0.1030359192934704
0.2980132450331126,0.10586525137886926
0.31788079470198677,0.10875719687699624
0.33774834437086093,0.11169748669357671
0.3576158940397351,0.11467282200360586
0.3774834437086093,0.11767083051380628
0.3973509933774834,0.12068001262641691
0.4172185430463576,0.12368968253051026
0.4370860927152318,0.1266899078237437
0.45695364238410596,0.12967145014152295
0.4768211920529801,0.13262570841034202
0.49668874172185434,0.1355446657037748
0.5165562913907285,0.13842084022091405
0.5364238410596026,0.14124724058536114
0.5562913907284769,0.1440173254469816
0.5761589403973509,0.14672496722805056
0.5960264900662252,0.1493644197716303
0.6158940397350993,0.151930289604041
0.6357615894039735,0.15441751050432462
0.6556291390728477,0.15682132107317845
0.6754966887417219,0.1591372450034789
0.695364238410596,0.16136107377210282
0.7152317880794702,0.16348885149384387
0.7350993377483444,0.16551686170043173
0.7549668874172186,0.1674416158306765
0.7748344370860927,0.1692598432396717
0.7947019867549668,0.17096848255605537
0.8145695364238411,0.17256467423554953
0.8344370860927152,0.1740457541767965
0.8543046357615894,0.17540924828184642
0.8741721854304636,0.17665286785804626
0.8940397350993378,0.17777450577159368
0.9139072847682119,0.17877223327446085
0.9337748344370861,0.17964429743781793
0.9536423841059603,0.18038911913400527
0.9735099337748344,0.18100529151841815
0.9933774834437087,0.18149157897091547
1.0132450331125828,0.18184691646308468
1.033112582781457,0.18207040932549168
1.0529801324503312,0.18216133339517776
1.0728476821192052,0.18211913553017364
1.0927152317880795,0.18194343448395225
1.1125827814569538,0.18163402213903326
1.1324503311258278,0.1811908651052766
1.1523178807947019,0.18061410669487296
1.1721854304635762,0.17990406929293304
1.1920529801324504,0.1790612571502244
1.2119205298013245,0.1780863596323588
1.2317880794701985,0.17698025496899036
1.2516556291390728,0.17574401455634298
1.271523178807947,0.17437890787785684
1.2913907284768211,0.17288640812041595
1.3112582781456954,0.17126819857842182
1.3311258278145695,0.16952617995474095
1.3509933774834437,0.1676624786871673
1.370860927152318,0.16567945645149978
1.390728476821192,0.16357972101853469
1.410596026490066,0.16136613867266028
1.4304635761589404,0.1590418484347239
1.4503311258278146,0.1566102783728307
1.4701986754966887,0.15407516433154353
1.4900662251655628,0.15144057146408446
1.5099337748344372,0.14871091901359573
1.5298013245033113,0.14589100885946332
1.5496688741721854,0.1429860584218934
1.5695364238410596,0.14000173860319237
1.5894039735099337,0.13694421753364425
1.609271523178808,0.13382021098111152
1.6291390728476822,0.13063704036798135
1.6490066225165563,0.1274026994058136
1.6688741721854303,0.12412593038771758
1.6887417218543048,0.12081631114165566
1.7086092715231789,0.11748435350139538
1.728476821192053,0.11414161383136806
1.7483443708609272,0.11080081555598563
1.7682119205298013,0.10747598266874096
1.7880794701986755,0.10418258166498678
1.8079470198675496,0.10093766704872885
1.8278145695364238,0.09776002227144849
1.847682119205298,0.09467028344288285
1.8675496688741722,0.09169102726891988
1.8874172185430464,0.08884679751914049
1.9072847682119205,0.08616403647511114
1.9271523178807946,0.08367088060951741
1.9470198675496688,0.08139677565177666
1.9668874172185429,0.07937186887841018
1.9867549668874174,0.0776261504073719
2.0066225165562916,0.07618834438015594
2.0264900662251657,0.07508459599019171
2.0463576158940397,0.07433705601661136
2.066225165562914,0.07396251751029355
2.086092715231788,0.07397129022840442
2.1059602649006623,0.07436648916118963
2.1258278145695364,0.07514385720252963
2.1456953642384105,0.07629215009438269
2.165562913907285,0.07779401149063352
2.185430463576159,0.07962718842297271
2.205298013245033,0.08176590307789847
2.2251655629139075,0.08418220776780462
2.2450331125827816,0.08684719289117834
2.2649006622516556,0.08973197290654131
2.2847682119205297,0.0928084261576439
2.3046357615894038,0.09604970150367258
2.324503311258278,0.0994305260896672
2.3443708609271523,0.10292735680258244
2.364238410596027,0.1065184172695094
2.384105960264901,0.11018365673804328
2.403973509933775,0.11390465984541927
2.423841059602649,0.11766452898519028
2.443708609271523,0.12144775464321418
2.463576158940397,0.12524008401414424
2.4834437086092715,0.1290283944054387
2.5033112582781456,0.13280057520541128
2.52317880794702,0.13654542031450412
2.543046357615894,0.14025253170057497
2.562913907284768,0.14391223395863506
2.5827814569536423,0.14751549929679164
2.6026490066225163,0.1510538821242122
2.622516556291391,0.15451946231325325
2.642384105960265,0.15790479619061185
2.662251655629139,0.16120287434834885
2.6821192052980134,0.16440708542968602
2.7019867549668874,0.16751118512267799
2.7218543046357615,0.17050926967627783
2.741721854304636,0.1733957533335838
2.76158940397351,0.17616534915184562
2.781456953642384,0.178813052747249
2.801324503311258,0.1813341285640906
2.821192052980132,0.18372409832180345
2.8410596026490067,0.18597873134111703
2.8609271523178808,0.18809403649184447
2.8807947019867552,0.19006625554109863
2.9006622516556293,0.1918918577114304
2.9205298013245033,0.19356753528558396
2.9403973509933774,0.19509020011790182
2.9602649006622515,0.1964569809324429
2.9801324503311255,0.1976652213055199
3.0,0.19871247824583757
3.0198675496688745,0.19959652129862906
3.0397350993377485,0.20031533211239694
3.0596026490066226,0.20086710441747987
3.0794701986754967,0.20125024437525738
3.0993377483443707,0.201463371265854
3.119205298013245,0.20150531849062547
3.1390728476821192,0.20137513487353392
3.1589403973509933,0.20107208625367998
3.1788079470198674,0.20059565736882567
3.198675496688742,0.19994555403829034
3.218543046357616,0.19912170566192208
3.23841059602649,0.19812426806115058
3.2582781456953644,0.1969536266989195
3.2781456953642385,0.19561040032598467
3.2980132450331126,0.19409544511550292
3.3178807947019866,0.19240985936207916
3.3377483443708607,0.1905549888403348
3.3576158940397347,0.18853243293902386
3.3774834437086096,0.18634405171247648
3.3973509933774837,0.1839919740218041
3.4172185430463577,0.18147860697562715
3.437086092715232,0.1788066469254925
3.456953642384106,0.1759790923265049
3.47682119205298,0.1729992588419941
3.4966887417218544,0.16987079715534373
3.5165562913907285,0.16659771405630766
3.5364238410596025,0.16318439749854974
3.556291390728477,0.15963564648744444
3.576158940397351,0.1559567068581586
3.596026490066225,0.1521533142580528
3.615894039735099,0.14823174596331098
3.6357615894039736,0.14419888355800362
3.6556291390728477,0.14006228900031553
3.6754966887417218,0.1358302972212294
3.695364238410596,0.13151212916928043
3.7152317880794703,0.12711803015646586
3.7350993377483444,0.12265943949464472
3.754966887417219,0.11814919873744874
3.774834437086093,0.11360180731929503
3.794701986754967,0.10903373588106285
3.814569536423841,0.10446380879987595
3.834437086092715,0.09991366781015477
3.854304635761589,0.09540832701233183
3.8741721854304636,0.09097682406903952
3.8940397350993377,0.08665295974878805
3.9139072847682117,0.0824760931988325
3.9337748344370858,0.07849191654288712
3.9536423841059607,0.07475306206357565
3.9735099337748347,0.07131929456974667
3.993377483443709,0.06825692101986808
4.013245033112583,0.06563695151621819
4.033112582781457,0.0635315625163197
4.052980132450331,0.062008676775145315
4.072847682119205,0.061125076344927726
4.0927152317880795,0.06091929420176271
4.112582781456953,0.061406162183579256
4.132450331125828,0.0625747719073087
4.152317880794702,0.06439054813636892
4.172185430463576,0.0668006659145294
4.19205298013245,0.06974103895478005
4.211920529801325,0.07314304225462731
4.231788079470199,0.07693878166364002
4.251655629139073,0.08106453290571504
4.271523178807947,0.08546254429957209
4.291390728476821,0.09008164049461899
4.311258278145695,0.09487707432573378
4.33112582781457,0.09980997790122362
4.3509933774834435,0.10484664871097915
4.370860927152318,0.10995781092455803
4.390728476821192,0.11511792536888026
4.410596026490066,0.12030458011510979
4.43046357615894,0.12549796998765103
4.450331125827815,0.13068046116079238
4.470198675496689,0.13583623163019537
4.490066225165563,0.1409509766921998
4.509933774834438,0.14601166879529062
4.529801324503311,0.15100636220185049
4.549668874172186,0.1559240342524649
4.569536423841059,0.16075445637680535
4.589403973509934,0.16548808921997984
4.6092715231788075,0.17011599730567778
4.629139072847682,0.1746297795353404
4.649006622516556,0.1790215125413245
4.66887417218543,0.1832837044940694
4.688741721854305,0.18740925743052803
4.708609271523179,0.1913914365460242
4.728476821192054,0.19522384519073335
4.748344370860927,0.19890040455134994
4.768211920529802,0.20241533718994462
4.788079470198675,0.2057631537650834
4.80794701986755,0.20893864238367169
4.827814569536423,0.21193686013089272
4.847682119205298,0.21475312640587313
4.867549668874172,0.21738301775538238
4.887417218543046,0.21982236395087698
4.9072847682119205,0.22206724509719564
4.927152317880794,0.2241139895965662
4.947019867549669,0.22595917282081632
4.966887417218543,0.2275996163687897
4.986754966887418,0.22903238780600285
5.006622516556291,0.23025480080083352
5.026490066225166,0.23126441558522312
5.04635761589404,0.2320590396808221
5.066225165562914,0.2326367288414469
5.086092715231788,0.2329957881725218
5.105960264900662,0.23313477339597535
5.125827814569536,0.23305249223706737
5.14569536423841,0.2327480059163745
5.1655629139072845,0.23222063073715746
5.185430463576159,0.2314699397648633
5.205298013245033,0.23049576460246923
5.225165562913908,0.2292981972727154
5.245033112582782,0.22787759222581785
5.264900662251656,0.22623456850026752
5.28476821192053,0.22437001207408339
5.304635761589404,0.22228507845545195
5.324503311258278,0.21998119557548335
5.344370860927152,0.21746006706206175
5.364238410596027,0.21472367599381917
5.3841059602649,0.21177428925763309
5.403973509933775,0.20861446266346634
5.4238410596026485,0.20524704700815266
5.443708609271523,0.20167519532752215
5.463576158940397,0.19790237163690153
5.483443708609272,0.19393236153725568
5.503311258278146,0.18976928516429184
5.52317880794702,0.18541761308701948
5.543046357615895,0.18088218593145544
5.562913907284768,0.17616823872811677
5.582781456953643,0.17128143127729428
5.602649006622516,0.1662278862222963
5.622516556291391,0.16101423705409695
5.642384105960264,0.155647688997848
5.662251655629139,0.1501360967283281
5.682119205298013,0.14448806424208416
5.701986754966887,0.13871307414275838
5.7218543046357615,0.13282165631292955
5.741721854304636,0.12682560980638977
5.7615894039735105,0.12073829731846203
5.781456953642384,0.11457503954254585
5.801324503311259,0.10835364819958178
5.821192052980132,0.10209515307469846
5.841059602649007,0.09582480202589382
5.860927152317881,0.08957344587740677
5.880794701986755,0.08337946366326883
5.900662251655629,0.07729143453542288
5.920529801324503,0.07137180295775902
5.940397350993377,0.06570175697579325
5.960264900662251,0.06038729857847901
5.980132450331126,0.05556571091862275
6.0,0.05140979572236567
6.0198675496688745,0.04812404732985265
6.039735099337749,0.04592392522141116
6.059602649006623,0.04499263034468002
6.079470198675497,0.045426364902485424
6.099337748344371,0.04719969685574256
6.119205298013245,0.05017727950898242
6.139072847682119,0.05416221741392842
6.158940397350993,0.05894750331031901
6.178807947019867,0.06434805212832476
6.198675496688741,0.07021217589859535
6.218543046357616,0.07642083263998396
6.23841059602649,0.08288213832492071
6.258278145695365,0.08952518687192969
6.2781456953642385,0.09629473035807229
6.298013245033113,0.10314705318671351
6.317880794701987,0.11004691878691192
6.337748344370861,0.11696535554977923
6.357615894039735,0.12387806186125744
6.377483443708609,0.13076425607409475
6.397350993377484,0.13760584313590102
6.417218543046357,0.14438680635037085
6.437086092715232,0.15109275983172527
6.456953642384105,0.15771061642908138
6.47682119205298,0.16422833930965025
6.496688741721854,0.17063475469927888
6.516556291390729,0.17691940974615605
6.5364238410596025,0.18307246398502092
6.556291390728477,0.1890846060468741
6.5761589403973515,0.19494698950107753
6.596026490066225,0.20065118331528253
6.6158940397351,0.20618913356958374
6.635761589403973,0.211553133896821
6.655629139072848,0.21673580273206158
6.675496688741721,0.2217300659065041
6.695364238410596,0.22652914345675357
6.715231788079469,0.2311265397734148
6.735099337748344,0.2355160364029715
6.754966887417219,0.23969168696355217
6.774834437086093,0.2436478137455728
6.794701986754967,0.24737900565565976
6.814569536423841,0.250880117228727
6.8344370860927155,0.25414626848604027
6.854304635761589,0.2571728454584348
6.874172185430464,0.2599555012269802
6.894039735099337,0.2624901573594617
6.913907284768212,0.26477300564236705
6.933774834437086,0.26680051002495125
6.95364238410596,0.2685694087063414
6.973509933774834,0.2700767163074172
6.993377483443709,0.2713197260792547
7.013245033112583,0.27229601210754273
7.033112582781457,0.2730034314791095
7.052980132450331,0.27344012638231674
7.072847682119205,0.27360452611820424
7.0927152317880795,0.27349534900349226
7.112582781456954,0.2731116041504454
7.132450331125828,0.2724525931124287
7.152317880794702,0.2715179113870974
7.172185430463576,0.270307449773054
7.19205298013245,0.2688213955785709
7.211920529801324,0.26706023368515586
7.231788079470198,0.2650247474721723
7.251655629139073,0.2627160196132678
7.271523178807947,0.26013543276002077
7.291390728476822,0.25728467013415424
7.311258278145695,0.25416571605629756
7.33112582781457,0.2507808564474593
7.3509933774834435,0.2471326793498001
7.370860927152318,0.24322407552540068
7.390728476821192,0.23905823920809932
7.410596026490066,0.23463866910327866
7.430463576158941,0.2299691697566855
7.450331125827814,0.22505385344699846
7.470198675496689,0.21989714280115308
7.490066225165562,0.21450377438984092
7.509933774834438,0.20887880363909547
7.52980132450331,0.20302761149924356
7.549668874172186,0.1969559134572025
7.569536423841059,0.1906697716771061
7.589403973509934,0.18417561133305818
7.6092715231788075,0.1774802425919485
7.629139072847682,0.17059089027043128
7.649006622516557,0.16351523401454301
7.66887417218543,0.15626146307036565
7.6887417218543055,0.14883835155106218
7.708609271523178,0.141255362922825
7.728476821192054,0.13352279684155569
7.748344370860927,0.12565199852759257
7.768211920529802,0.11765566242841491
7.788079470198675,0.1095482813728476
7.80794701986755,0.10134682609676605
7.827814569536423,0.0930718001482737
7.847682119205298,0.08474892615377384
7.8675496688741715,0.0764119314574981
7.887417218543046,0.06810732037221291
7.907284768211921,0.059902873610393245
7.927152317880795,0.051903372751581134
7.9470198675496695,0.044280519196419274
7.966887417218543,0.03732941364926244
7.986754966887418,0.03156255255785006
8.006622516556291,0.027790260014588137
8.026490066225167,0.0269168377902261
8.046357615894038,0.02923807722313289
8.066225165562914,0.03412693828808205
8.086092715231787,0.04067482062365785
8.105960264900663,0.04820879366597989
8.125827814569536,0.056326667975264984
8.14569536423841,0.06479679050241174
8.165562913907285,0.07348133843257629
8.185430463576159,0.0822936007781324
8.205298013245034,0.09117555022372917
8.225165562913906,0.1000859245416759
8.245033112582782,0.10899367567419997
8.264900662251655,0.11787422705913347
8.28476821192053,0.12670725330914137
8.304635761589404,0.13547531675415686
8.324503311258278,0.14416300400142246
8.344370860927151,0.15275636419077734
8.364238410596027,0.16124253490664195
8.3841059602649,0.169609488069684
8.403973509933774,0.17784585446538903
8.42384105960265,0.18594080097781623
8.443708609271523,0.1938839438669224
8.463576158940398,0.2016652871457004
8.483443708609272,0.20927517872290913
8.503311258278146,0.21670427930470781
8.52317880794702,0.22394354057829044
8.543046357615895,0.23098419022512165
8.562913907284768,0.23781772200801668
8.582781456953642,0.24443588965830676
8.602649006622515,0.25083070362639615
8.62251655629139,0.256994429999183
8.642384105960264,0.2629195910601521
8.66225165562914,0.268598967092923
8.682119205298013,0.2740255991219765
8.701986754966887,0.27919279235208694
8.721854304635762,0.2840941201197197
8.741721854304636,0.28872342820858987
8.76158940397351,0.2930748394110427
8.781456953642383,0.2971427582400438
8.801324503311259,0.30092187571418133
8.821192052980132,0.30440717415203256
8.841059602649008,0.3075939319232618
8.86092715231788,0.3104777281124699
8.880794701986755,0.3130544470589154
8.90066225165563,0.31532028274067503
8.920529801324504,0.3172717429766769
8.940397350993377,0.3189056534237006
8.960264900662251,0.32021916134831735
8.980132450331126,0.3212097391569262
9.0,0.32187518766871837
9.019867549668875,0.3222136391184749
9.039735099337747,0.3222235598778267
9.059602649006623,0.32190375288494105
9.079470198675496,0.3212533597736362
9.099337748344372,0.3202718626946382
9.119205298013245,0.3189590858217423
9.139072847682119,0.31731519653772977
9.158940397350994,0.31534070629460215
9.178807947019868,0.3130364711444761
9.198675496688743,0.3104036919375462
9.218543046357615,0.3074439141847334
9.23841059602649,0.30415902758315294
9.258278145695364,0.30055126520347547
9.27814569536424,0.29662320233889206
9.298013245033111,0.29237775501628416
9.317880794701987,0.28781817817128397
9.33774834437086,0.2829480634896491
9.357615894039736,0.27777133691879197
9.37748344370861,0.2722922558543664
9.397350993377483,0.2665154060088921
9.417218543046358,0.26044569797089345
9.437086092715232,0.25408836346587177
9.456953642384107,0.24744895133352776
9.47682119205298,0.2405333232399711
9.496688741721854,0.23334764914903924
9.516556291390728,0.22589840258491994
9.536423841059603,0.21819235572856208
9.556291390728477,0.21023657440553647
9.57615894039735,0.2020384130446749
9.596026490066224,0.19360550971811796
9.6158940397351,0.18494578142087026
9.635761589403973,0.17606741981948623
9.655629139072847,0.1669788878114292
9.675496688741722,0.1576889174148971
9.695364238410596,0.14820650980111164
9.715231788079471,0.13854093877396154
9.735099337748345,0.12870175986232876
9.754966887417218,0.11869882874878557
9.774834437086092,0.10854233570841004
9.794701986754967,0.09824286860286775
9.814569536423841,0.08781152937823931
9.834437086092716,0.0772601571519954
9.854304635761588,0.06660178061611928
9.874172185430464,0.05585161479854773
9.894039735099337,0.045029529625879076
9.913907284768213,0.03416728772173289
9.933774834437086,0.02333608710793945
9.95364238410596,0.01281276121495652
9.973509933774835,0.005497574766022905
9.993377483443709,0.012074573959001795
10.013245033112582,0.02264798753951662
10.033112582781456,0.033655015111707855
10.052980132450331,0.04477699412078661
10.072847682119205,0.05593611202031116
10.09271523178808,0.06709834129827053
10.112582781456952,0.0782424143628124
10.132450331125828,0.08935188353562794
10.152317880794701,0.1004124575239508
10.172185430463577,0.1114109387565942
10.192052980132452,0.12233474595997504
10.211920529801324,0.13317168124495643
10.2317880794702,0.14390981019665766
10.251655629139073,0.15453739849260628
10.271523178807948,0.16504287865961187
10.29139072847682,0.17541483376145098
10.311258278145695,0.1856419910165961
10.331125827814569,0.19571322145170977
10.350993377483444,0.2056175433304716
10.370860927152318,0.21534412799725947
10.390728476821192,0.2248823072887338
10.410596026490065,0.23422158197004825
10.43046357615894,0.24335163083739403
