Time (s),Filtered Signal
0.0,-0.003850983540343413
0.033370165745856356,-0.09828145045612537
0.06674033149171271,-0.171418476593544
0.10011049723756907,-0.20691132950382016
0.13348066298342542,-0.19848324988300772
0.16685082872928178,-0.1506766928968274
0.20022099447513814,-0.0762385616665517
0.2335911602209945,0.008587964122935901
0.26696132596685085,0.08886254585415027
0.30033149171270723,0.15400740467456905
0.33370165745856356,0.19831891598421741
0.3670718232044199,0.21948764349269204
0.4004419889502763,0.21666393419297697
0.43381215469613266,0.18965007246514412
0.467182320441989,0.13987518546518565
0.5005524861878453,0.07245784971369171
0.5339226519337017,-0.0022987553344481597
0.5672928176795581,-0.06959269359394935
0.6006629834254145,-0.11352704016144104
0.6340331491712707,-0.12223412838000103
0.6674033149171271,-0.09259533746556378
0.7007734806629835,-0.03236846756295779
0.7341436464088398,0.04139421884489511
0.7675138121546962,0.10710910249546117
0.8008839779005525,0.14472214355088373
0.8342541436464089,0.14079579309612902
0.8676243093922653,0.0910575451250836
0.9009944751381216,0.00019689690645369493
0.934364640883978,-0.12007042068488365
0.9677348066298344,-0.2532022888141506
1.0011049723756906,-0.3793665411426191
1.0344751381215471,-0.4765265357574278
1.0678453038674034,-0.5222128620573901
1.1012154696132597,-0.49707138616632984
1.1345856353591162,-0.3901128267623184
1.1679558011049724,-0.20397929353079694
1.201325966850829,0.04237854133009528
1.2346961325966852,0.3156346271640763
1.2680662983425415,0.5747106606681758
1.301436464088398,0.7799938494997479
1.3348066298342542,0.9019814541094765
1.3681767955801105,0.9267731619092388
1.401546961325967,0.8574676779865983
1.4349171270718233,0.7119910767435109
1.4682872928176796,0.5184326598898772
1.501657458563536,0.30882717377966656
1.5350276243093923,0.11229957542153994
1.5683977900552488,-0.050997963054404766
1.601767955801105,-0.17315159669396474
1.6351381215469614,-0.25728758315080985
1.6685082872928179,-0.3120037263924207
1.7018784530386741,-0.34402601479083456
1.7352486187845306,-0.35328498790766455
1.768618784530387,-0.3338272104821698
1.8019889502762432,-0.2807789170957719
1.8353591160220997,-0.19968152677766504
1.868729281767956,-0.11236864546091363
1.9020994475138122,-0.05465807968856103
1.9354696132596687,-0.0650627286834148
1.968839779005525,-0.16846273906817805
2.0022099447513813,-0.3618419036894985
2.0355801104972375,-0.6092007246811613
2.0689502762430942,-0.8494504839909582
2.1023204419889505,-1.015693277113156
2.135690607734807,-1.0589769886585803
2.169060773480663,-0.9667712621669069
2.2024309392265193,-0.7677128381049803
2.235801104972376,-0.5196400405451972
2.2691712707182323,-0.28549996423301904
2.3025414364640886,-0.10779077647406647
2.335911602209945,0.006560902466210043
2.369281767955801,0.08372191728416088
2.402651933701658,0.16435286790968287
2.436022099447514,0.27854864430509085
2.4693922651933704,0.42735990450245437
2.5027624309392267,0.5806239499374494
2.536132596685083,0.6924608132625708
2.5695027624309392,0.7266233582211336
2.602872928176796,0.6785819810198299
2.636243093922652,0.5824730475773421
2.6696132596685085,0.49831313754431705
2.7029834254143648,0.4847115844091637
2.736353591160221,0.5699346158560052
2.7697237569060777,0.735741087064067
2.803093922651934,0.9228561321571604
2.8364640883977903,1.0566483412788044
2.8698342541436466,1.081411676765863
2.903204419889503,0.9867595808545334
2.936574585635359,0.8127858862678965
2.969944751381216,0.6306341069704439
3.003314917127072,0.5071759830939934
3.0366850828729284,0.4706412575122075
3.0700552486187846,0.49411305072726563
3.103425414364641,0.5056238474894018
3.1367955801104976,0.42101859158200944
3.170165745856354,0.18476336576667846
3.20353591160221,-0.2003338106998254
3.2369060773480665,-0.6689221069649792
3.2702762430939227,-1.1174138307760715
3.3036464088397794,-1.4465605714896341
3.3370165745856357,-1.6030604387599485
3.370386740331492,-1.6005639568464538
3.4037569060773483,-1.5094121015044368
3.4371270718232045,-1.4191817512039107
3.4704972375690613,-1.3918844217060107
3.5038674033149175,-1.429452832529898
3.537237569060774,-1.4732276541024725
3.57060773480663,-1.437496524680698
3.6039779005524863,-1.2611100348681026
3.6373480662983426,-0.9501989871281172
3.6707182320441993,-0.5875012520206994
3.7040883977900556,-0.2994893349574909
3.737458563535912,-0.1940422713029162
3.770828729281768,-0.2980242133688988
3.8041988950276244,-0.5270418081940148
3.837569060773481,-0.706577904014661
3.8709392265193374,-0.6401276167030568
3.9043093922651937,-0.1967636912455682
3.93767955801105,0.6209434408972067
3.9710497237569062,1.6611880837121384
4.0044198895027625,2.669490977100796
4.037790055248619,3.379593214489313
4.071160220994475,3.6105026045353736
4.104530386740332,3.3290586340820747
4.1379005524861885,2.653607555889896
4.171270718232044,1.800842443472483
4.204640883977901,1.001572052685575
4.238011049723757,0.4215497569110235
4.271381215469614,0.11729149208929085
4.30475138121547,0.03876212998796109
4.338121546961326,0.07029706847925159
4.371491712707183,0.08730617098202051
4.404861878453039,0.004073447478482751
4.438232044198895,-0.20362766703410737
4.471602209944752,-0.5038617193030838
4.504972375690608,-0.8328040064719958
4.538342541436465,-1.1237625345009665
4.5717127071823205,-1.328885308549836
4.605082872928177,-1.4281121267594286
4.638453038674034,-1.4267624625390205
4.67182320441989,-1.3469611508599297
4.7051933701657465,-1.2181196049450234
4.738563535911602,-1.0693669622955495
4.771933701657459,-0.9244052475404545
4.805303867403316,-0.798195456711405
4.8386740331491715,-0.6951390225863615
4.872044198895028,-0.6090211962512894
4.905414364640884,-0.5250911863235183
4.938784530386741,-0.42420529358418707
4.972154696132597,-0.28840913574487
5.005524861878453,-0.10700341006466177
5.03889502762431,0.11807811928396011
5.072265193370166,0.3690634461937339
5.105635359116023,0.6130498899615263
5.1390055248618784,0.8079646386640966
5.172375690607735,0.9135465538299697
5.205745856353592,0.9046264433302174
5.239116022099448,0.7818062999765136
5.272486187845304,0.574376228171962
5.30585635359116,0.33280686754679906
5.339226519337017,0.11266424450822224
5.372596685082874,-0.04389389933583749
5.4059668508287295,-0.12123216029146035
5.439337016574586,-0.1323428093307854
5.472707182320442,-0.1093838062372843
5.506077348066299,-0.08739524757341531
5.5394475138121555,-0.0887364936817575
5.572817679558011,-0.11479889371860376
5.606187845303868,-0.14762219497982373
5.639558011049724,-0.15946968302271283
5.672928176795581,-0.12548041618278988
5.706298342541437,-0.03424149838299868
5.739668508287293,0.10702972335340664
5.77303867403315,0.2734893549051032
5.806408839779006,0.4287938870086159
5.839779005524862,0.5345149913322125
5.873149171270718,0.5608298799096387
5.906519337016575,0.4961665869407703
5.939889502762432,0.3529352221467357
5.9732596685082875,0.16647812777273088
6.006629834254144,-0.014058742945910835
6.04,-0.1410134041804755
6.073370165745857,-0.1843079828072775
6.1067403314917135,-0.14160979741987842
6.140110497237569,-0.03782664405598005
6.173480662983426,0.08596195976956258
6.206850828729282,0.188899387606515
6.240220994475139,0.24430563893985086
6.273591160220995,0.24505439472097948
6.306961325966851,0.19918192580785918
6.340331491712708,0.11992771153196888
6.373701657458564,0.01703468438784602
6.40707182320442,-0.1055307003597642
6.440441988950277,-0.24505709357691324
6.473812154696133,-0.39310261885013253
6.50718232044199,-0.5319697957388179
6.5405524861878455,-0.6380876349889699
6.573922651933702,-0.6909728965862412
6.607292817679559,-0.6825765518749131
6.640662983425415,-0.6213372362921946
6.674033149171271,-0.528353326416896
6.707403314917127,-0.42769450878237236
6.740773480662984,-0.3361353388305282
6.774143646408841,-0.2576346338720985
6.8075138121546965,-0.18488357262879113
6.840883977900553,-0.1061750751867233
6.874254143646409,-0.01316428614543056
6.907624309392266,0.09476761939131369
6.9409944751381225,0.21122962109994886
6.974364640883978,0.3270425251068212
7.007734806629835,0.4345298876090444
7.041104972375691,0.5289875704823201
7.074475138121548,0.6068089785179639
7.107845303867403,0.6622379825709719
7.14121546961326,0.6857076226806794
7.174585635359117,0.6656623276333007
7.207955801104973,0.5934537419555873
7.241325966850829,0.46885155850420934
7.274696132596685,0.3031527064008907
7.308066298342542,0.11806804178389595
7.341436464088399,-0.059263199189032896
7.3748066298342545,-0.20295250388883673
7.408176795580111,-0.29412462863142597
7.441546961325967,-0.3242246315878439
7.474917127071824,-0.2959673806829091
7.5082872928176805,-0.22293942568270692
7.541657458563536,-0.12843412430183235
7.575027624309393,-0.042907954656157904
7.608397790055249,0.0012147271364779688
7.641767955801106,-0.02215160096750644
7.675138121546962,-0.12295903668129943
7.708508287292818,-0.2874510263761126
7.741878453038675,-0.47708144631159977
7.775248618784531,-0.6364704153949496
7.808618784530387,-0.7093825961300428
7.841988950276244,-0.6578703889909405
7.8753591160221,-0.4774315610642904
7.908729281767957,-0.20156243713345284
7.9420994475138125,0.10740032813802082
7.975469613259669,0.3788567098349962
8.008839779005525,0.5584570640513754
8.042209944751383,0.6265424256399549
8.075580110497238,0.6023374799918104
8.108950276243094,0.5317108512468857
8.14232044198895,0.463932846289716
8.175690607734808,0.4282847838151521
8.209060773480664,0.42158670804930576
8.24243093922652,0.412362768113996
8.275801104972377,0.35913727994423383
8.309171270718233,0.2335092575339251
8.342541436464089,0.03665684824624616
8.375911602209946,-0.19840774577864953
8.409281767955802,-0.4193204457357199
8.442651933701658,-0.5751446048633669
8.476022099447514,-0.6356862122873991
8.509392265193371,-0.6011074064955189
8.542762430939227,-0.49871738492362955
8.576132596685083,-0.3697163072080305
8.60950276243094,-0.25255120604987813
8.642872928176796,-0.1699737777574264
8.676243093922652,-0.12424181645010389
8.709613259668508,-0.10087338104996134
8.742983425414366,-0.07793051656648999
8.776353591160222,-0.036290264719227916
8.809723756906077,0.033048213752522995
8.843093922651935,0.12661033007016212
8.87646408839779,0.23081351905902214
8.909834254143647,0.32724433208236753
8.943204419889504,0.39851177556666384
8.97657458563536,0.4327854734657835
9.009944751381216,0.4260848774543342
9.043314917127072,0.3822899437548078
9.07668508287293,0.31132191750000676
9.110055248618785,0.2260538097181447
9.143425414364641,0.13862769724162113
9.176795580110499,0.057204105567238095
9.210165745856354,-0.015542360711925917
9.24353591160221,-0.08122927145700959
9.276906077348068,-0.14215988715275324
9.310276243093924,-0.19712110382397033
9.34364640883978,-0.23916807776922655
9.377016574585635,-0.2572659252147794
9.410386740331493,-0.24169166099349748
9.443756906077349,-0.19089244932730806
9.477127071823205,-0.11622108919774518
9.510497237569062,-0.04135242135717782
9.543867403314918,0.004770996533698997
9.577237569060774,-0.00037754367277255646
9.610607734806631,-0.06114769773387498
9.643977900552487,-0.15751101700837722
9.677348066298343,-0.2486506745448479
9.710718232044199,-0.2868123439923057
9.744088397790057,-0.23711039857926086
9.777458563535912,-0.09533783352607195
9.810828729281768,0.10466549844121951
9.844198895027626,0.29907492183716694
9.877569060773482,0.4162215834323437
9.910939226519337,0.4048924535729686
9.944309392265193,0.2571719319723882
9.97767955801105,0.015438814334871067
10.011049723756907,-0.24078250149756414
10.044419889502763,-0.42387804540739044
10.07779005524862,-0.4716670294103761
10.111160220994476,-0.37152619969073586
10.144530386740332,-0.16494401483884882
10.17790055248619,0.06939578123560099
10.211270718232045,0.24679085230413478
10.244640883977901,0.30891970357256787
10.278011049723757,0.24440381360023103
10.311381215469615,0.0900319852961533
10.34475138121547,-0.08644827013569333
10.378121546961326,-0.21366285961951334
10.411491712707184,-0.24248218195780907
10.44486187845304,-0.16073557824521992
10.478232044198895,0.007253293424886348
10.511602209944753,0.21381644719610424
10.544972375690609,0.40684935104960696
10.578342541436465,0.5466830337993311
10.61171270718232,0.6154158607297036
10.645082872928178,0.6169876181807218
10.678453038674034,0.5698051476246616
10.71182320441989,0.495915992731501
10.745193370165747,0.4112667446822894
10.778563535911603,0.3206387292704686
10.811933701657459,0.21882286656277314
10.845303867403315,0.09707838632386596
10.878674033149172,-0.04828091234869358
10.912044198895028,-0.2093644486951806
10.945414364640884,-0.3657366708609501
10.978784530386742,-0.4901222544875111
11.012154696132598,-0.5587445661866017
11.045524861878453,-0.5617683568873287
11.078895027624311,-0.5088630209483992
11.112265193370167,-0.4269315253420165
11.145635359116023,-0.35067406108642823
11.179005524861878,-0.31002266986894456
11.212375690607736,-0.31982044908545476
11.245745856353592,-0.37578951384994136
11.279116022099448,-0.4576932061049725
11.312486187845305,-0.5374280742298657
11.345856353591161,-0.5881776243118667
11.379226519337017,-0.5912454054296243
11.412596685082875,-0.5390614832952396
11.44596685082873,-0.4348074497511063
11.479337016574586,-0.29006883113006804
11.512707182320442,-0.12168275068641463
11.5460773480663,0.05185124064093744
11.579447513812156,0.21441402007525545
11.612817679558011,0.35624362297859613
11.646187845303869,0.47633444988252616
11.679558011049725,0.5814403128420789
11.71292817679558,0.6810482336165812
11.746298342541436,0.7799847584262355
11.779668508287294,0.8722666555482612
11.81303867403315,0.939941611130704
11.846408839779006,0.9585792439890629
11.879779005524863,0.9077215083281102
11.91314917127072,0.7817126064886811
11.946519337016575,0.5954780486008016
11.979889502762433,0.38167184560364026
12.013259668508288,0.17954030801226442
12.046629834254144,0.020088733375219138
12.08,-0.08553812248362297
12.113370165745858,-0.14866183112431622
12.146740331491714,-0.1951856664288385
12.18011049723757,-0.2511382433957105
12.213480662983427,-0.32904306462532734
12.246850828729283,-0.4220235161849937
12.280220994475139,-0.5083163584483246
12.313591160220996,-0.5632930933546184
12.346961325966852,-0.5723116878659671
12.380331491712708,-0.5377152948658223
12.413701657458564,-0.4767973089034061
12.447071823204421,-0.41240404203916714
12.480441988950277,-0.36140023531246057
12.513812154696133,-0.32683559429870784
12.54718232044199,-0.29737620306430645
12.580552486187846,-0.25383634863151694
12.613922651933702,-0.17937133094161645
12.64729281767956,-0.06852120926649666
12.680662983425416,0.06876574733663231
12.714033149171271,0.20946709685748702
12.747403314917127,0.32475536550556217
12.780773480662985,0.38905190789341226
12.81414364640884,0.3875486157689026
12.847513812154697,0.31997918816607984
12.880883977900554,0.20004010324782437
12.91425414364641,0.05129286996279145
12.947624309392266,-0.09877882456330161
12.980994475138122,-0.22472553749028923
13.01436464088398,-0.30768327012927676
13.047734806629835,-0.33784276865230817
13.081104972375691,-0.3149273603510997
13.114475138121549,-0.24727826431636987
13.147845303867404,-0.1502241662812306
13.18121546961326,-0.04406714743521917
13.214585635359118,0.04852703310628657
13.247955801104974,0.10628253890427285
13.28132596685083,0.11446485105144753
13.314696132596685,0.07063426808515764
13.348066298342543,-0.011151954120587814
13.381436464088399,-0.1005572909341701
13.414806629834255,-0.1576220089324373
13.448176795580112,-0.14529249536375038
13.481546961325968,-0.043921805396202204
13.514917127071824,0.13842846167261175
13.548287292817681,0.36554592428703025
13.581657458563537,0.5843933504845433
13.615027624309393,0.7445019182966692
13.648397790055249,0.817085376624249
13.681767955801106,0.8046735121671457
13.715138121546962,0.7360854784852772
13.748508287292818,0.64882240322353
13.781878453038676,0.5676823884308955
13.815248618784532,0.490762215256056
13.848618784530387,0.3904647534384541
13.881988950276245,0.22944156596503998
13.9153591160221,-0.01636206538320516
13.948729281767957,-0.3391554482299853
13.982099447513813,-0.694708257654583
14.01546961325967,-1.014352679919768
14.048839779005526,-1.2282982310692503
14.082209944751382,-1.2899836682049806
14.11558011049724,-1.1913793676825686
14.148950276243095,-0.9638756120171018
14.182320441988951,-0.6658039878793689
14.215690607734807,-0.3626161439086858
14.249060773480664,-0.10753811230153391
14.28243093922652,0.07083760052798956
14.315801104972376,0.17090043158415616
14.349171270718234,0.2110725490348722
14.38254143646409,0.21752056568592573
14.415911602209945,0.2120997856158605
14.449281767955803,0.20561181121917083
14.482651933701659,0.198884308281063
14.516022099447515,0.1903254752146915
14.54939226519337,0.1850491823418163
14.582762430939228,0.19928823730047515
14.616132596685084,0.2558132237431894
14.64950276243094,0.37100462116318644
14.682872928176797,0.5397529504958888
14.716243093922653,0.7272330668894271
14.749613259668509,0.8745201730209179
14.782983425414367,0.9183510940490377
14.816353591160222,0.8173754212951665
14.849723756906078,0.572555487367349
14.883093922651934,0.23106926457062438
14.916464088397792,-0.12930260135856586
14.949834254143648,-0.42874586605198867
14.983204419889503,-0.6140851456691162
15.016574585635361,-0.6750679713320041
15.049944751381217,-0.642326318510879
15.083314917127073,-0.569995169108765
15.116685082872928,-0.5124463561233605
15.150055248618786,-0.5056573998915889
15.183425414364642,-0.5596172585732471
15.216795580110498,-0.6617750078187864
15.250165745856355,-0.7865065835069204
15.283535911602211,-0.9042600566814422
15.316906077348067,-0.9864500599088497
15.350276243093925,-1.006297297736526
15.38364640883978,-0.9389507831858056
15.417016574585636,-0.7645375970122519
15.450386740331492,-0.4752076062215264
15.48375690607735,-0.08346190742404407
15.517127071823205,0.3734957477412872
15.550497237569061,0.8381396505331908
15.583867403314919,1.2467494047754992
15.617237569060775,1.5490169252512656
15.65060773480663,1.724856292795044
15.683977900552488,1.7898787291647642
15.717348066298344,1.7852218625564547
15.7507182320442,1.754578844497949
15.784088397790056,1.7181133358960226
15.817458563535913,1.6559944957004775
15.85082872928177,1.5114711397094507
15.884198895027625,1.2152113335348842
15.917569060773483,0.7222640738243109
15.950939226519338,0.045301665472454816
15.984309392265194,-0.7328524104574915
16.01767955801105,-1.4765450079966491
16.051049723756908,-2.0401017262177543
16.084419889502765,-2.319048713009284
16.11779005524862,-2.2875199774747634
16.151160220994477,-2.005193221752075
16.18453038674033,-1.5908769870792046
16.21790055248619,-1.1749706773078874
16.251270718232046,-0.852011300755396
16.2846408839779,-0.6533272558386757
16.318011049723758,-0.5494926594154336
16.351381215469615,-0.47811511665616707
16.38475138121547,-0.38130254918469875
16.418121546961327,-0.23405503737164632
16.451491712707185,-0.050923225694270165
16.48486187845304,0.12979744507820787
16.518232044198896,0.2734809520572118
16.551602209944754,0.3719726503531697
16.584972375690608,0.4489758197779344
16.618342541436466,0.5453420938001485
16.651712707182323,0.6928422088324706
16.685082872928177,0.8913266649935343
16.718453038674035,1.1022896411822551
16.751823204419892,1.2629119817188725
16.785193370165747,1.3136539945749528
16.818563535911604,1.2253731617067303
16.851933701657458,1.012431864655548
16.885303867403316,0.7257691745544279
16.918674033149173,0.4301381416139731
16.952044198895027,0.17719181909285897
16.985414364640885,-0.012762348164012295
17.018784530386743,-0.15273284736817827
17.052154696132597,-0.2754874488006946
17.085524861878454,-0.4123312429525996
17.118895027624312,-0.5747538629588274
17.152265193370166,-0.7470838150797852
17.185635359116024,-0.8926056212394775
17.21900552486188,-0.969534827833452
17.252375690607735,-0.9493519943233896
17.285745856353593,-0.8295240597337371
17.31911602209945,-0.6353837407676182
