Time (s),Filtered Signal
0.0,-0.031054509279791788
0.03337004405286344,0.5273957674452074
0.06674008810572687,0.9172731347236555
0.10011013215859031,1.0296251232897018
0.13348017621145375,0.8505391004395854
0.16685022026431717,0.4586937549116596
0.20022026431718062,-0.010881843250956627
0.23359030837004408,-0.4189687823452019
0.2669603524229075,-0.6678810036092345
0.3003303964757709,-0.7244574270084404
0.33370044052863435,-0.6162684290285712
0.3670704845814978,-0.4085983515548281
0.40044052863436125,-0.17551281127958726
0.43381057268722467,0.023058155619039716
0.46718061674008815,0.15228798157862689
0.5005506607929515,0.20211962660257735
0.533920704845815,0.1803340928463335
0.5672907488986785,0.1043332757173442
0.6006607929515418,-0.004921054464893443
0.6340308370044053,-0.12597441874871274
0.6674008810572687,-0.23801487205541652
0.7007709251101322,-0.3217305945864952
0.7341409691629956,-0.36102209245146527
0.767511013215859,-0.3456764647755627
0.8008810572687225,-0.27419108003232867
0.834251101321586,-0.15547770658130844
0.8676211453744493,-0.008285839820625305
0.9009911894273128,0.14219983338176873
0.9343612334801763,0.2701625614106078
0.9677312775330397,0.35588904719580416
1.001101321585903,0.391268438987857
1.0344713656387665,0.3819431605563337
1.06784140969163,0.34498489868889193
1.1012114537444935,0.30261300589628276
1.134581497797357,0.2741097835890197
1.1679515418502202,0.2689563926583107
1.2013215859030837,0.2838514615881629
1.2346916299559472,0.3047646338691282
1.2680616740088106,0.31312496521882
1.3014317180616741,0.29352563859665237
1.3348017621145374,0.23972202271723925
1.3681718061674009,0.15653086210586384
1.4015418502202643,0.057157179461775155
1.4349118942731278,-0.042434269237137334
1.4682819383259913,-0.12927553464586472
1.5016519823788548,-0.19673293107282264
1.535022026431718,-0.2444443041389565
1.5683920704845815,-0.2757889794202017
1.601762114537445,-0.29495908170636326
1.6351321585903085,-0.30543539121524604
1.668502202643172,-0.31027895154966506
1.7018722466960352,-0.31312977602533
1.7352422907488987,-0.3182287078920206
1.7686123348017622,-0.32857430195570475
1.8019823788546256,-0.34295672001038313
1.8353524229074891,-0.3539082218228229
1.8687224669603526,-0.3485769178975519
1.9020925110132159,-0.3130516829793617
1.9354625550660793,-0.23861290144431385
1.9688325991189428,-0.1270308460371063
2.002202643171806,0.007783186055514763
2.0355726872246698,0.1428626230620913
2.068942731277533,0.2529945053847033
2.1023127753303967,0.31872519790239207
2.13568281938326,0.33270675447613773
2.1690528634361232,0.3022554929305579
2.202422907488987,0.2472432024279043
2.23579295154185,0.19374903082063302
2.269162995594714,0.16509752072901257
2.302533039647577,0.1729348807676579
2.3359030837004404,0.2115796915035823
2.369273127753304,0.25849255584963926
2.4026431718061674,0.2819228671968118
2.436013215859031,0.2538555954289712
2.4693832599118943,0.16344598485968984
2.5027533039647576,0.024840739483336993
2.5361233480176213,-0.1251596133709023
2.5694933920704845,-0.2399160595721988
2.6028634361233483,-0.28146734147511465
2.6362334801762115,-0.23666546963500296
2.6696035242290748,-0.12336895761501471
2.7029735682819385,0.016443822694902122
2.7363436123348017,0.13357910540835474
2.7697136563876654,0.1907377653027258
2.8030837004405287,0.1752087819749728
2.8364537444933924,0.10000586089542271
2.8698237885462556,-0.005844438487844347
2.903193832599119,-0.11201490984951865
2.9365638766519826,-0.19887905917669774
2.969933920704846,-0.26127842068544904
3.0033039647577096,-0.3034317026459876
3.036674008810573,-0.3292627894029766
3.070044052863436,-0.33468823873769743
3.1034140969162998,-0.30688034641496603
3.136784140969163,-0.23118029082736613
3.1701541850220267,-0.10171174735721533
3.20352422907489,0.0705349171655646
3.2368942731277532,0.2571053888586128
3.270264317180617,0.41993859067151285
3.30363436123348,0.5242244912911578
3.337004405286344,0.5503312558886047
3.370374449339207,0.4995191368826932
3.4037444933920704,0.3913977210284262
3.437114537444934,0.25507074834092297
3.4704845814977974,0.11855337162860485
3.503854625550661,0.0011131674224095828
3.5372246696035243,-0.0890780285241506
3.5705947136563876,-0.15269795118949608
3.6039647577092513,-0.1952587902700361
3.6373348017621145,-0.22415692507240897
3.6707048458149782,-0.2477803563157064
3.7040748898678415,-0.27540173554289443
3.737444933920705,-0.31558794861446793
3.7708149779735685,-0.37197751448207034
3.8041850220264317,-0.4378882139373168
3.8375550660792954,-0.49349739061116377
3.8709251101321587,-0.5093755037052679
3.9042951541850224,-0.45727306678494584
3.9376651982378856,-0.3245244266209849
3.971035242290749,-0.1249518424355311
4.004405286343612,0.10068245013134869
4.037775330396476,0.29714723716449
4.0711453744493395,0.4158401035146511
4.104515418502203,0.4349554981350307
4.137885462555066,0.3687154158177713
4.171255506607929,0.2606845709667632
4.2046255506607935,0.1641639105987252
4.237995594713657,0.11921951031921386
4.27136563876652,0.13741135387251627
4.304735682819383,0.2009227374967504
4.3381057268722465,0.2750638392789358
4.371475770925111,0.32641400508005947
4.404845814977974,0.3368601808354117
4.438215859030837,0.30730450624220934
4.4715859030837,0.25139271327826096
4.504955947136564,0.18511831502326576
4.538325991189428,0.11937829452109586
4.571696035242291,0.05917713865076773
4.605066079295154,0.00783898646886165
4.638436123348018,-0.02895180800579937
4.671806167400881,-0.04385878963145056
4.705176211453745,-0.033777150312658905
4.738546255506608,-0.006681927758332385
4.7719162995594715,0.01650039640417762
4.805286343612335,0.00835561342851858
4.838656387665198,-0.052204725032093134
4.872026431718062,-0.16739681736606712
4.905396475770925,-0.3157176500119613
4.938766519823789,-0.45851613898733856
4.972136563876652,-0.5555590375995533
5.005506607929515,-0.5821561240479152
5.038876651982379,-0.5393646841835122
5.072246696035243,-0.452242609260545
5.105616740088106,-0.3571373316656554
5.138986784140969,-0.28440576907167336
5.172356828193832,-0.24504101496710762
5.2057268722466965,-0.22749681784703418
5.23909691629956,-0.2057586799678475
5.272466960352423,-0.15410059288055591
5.305837004405286,-0.06081008129592142
5.3392070484581495,0.06599439695198309
5.372577092511014,0.20300156515952017
5.405947136563877,0.323835346227865
5.43931718061674,0.4119030996823065
5.4726872246696034,0.46707120026612675
5.506057268722468,0.5028380314423864
5.539427312775331,0.5359538405391897
5.572797356828194,0.5745449943093477
5.606167400881057,0.6115085894643468
5.639537444933921,0.6269131759769316
5.672907488986785,0.5981029685588807
5.706277533039648,0.5119772719261931
5.739647577092511,0.3728293388681807
5.7730176211453745,0.20170470276032096
5.806387665198238,0.027922574882783446
5.839757709251102,-0.12251125118431577
5.873127753303965,-0.23563377073535308
5.9064977973568284,-0.31152970615446063
5.939867841409692,-0.3597276075369869
5.973237885462555,-0.3915568474660108
6.006607929515419,-0.4140717904305567
6.039977973568282,-0.4284527605433753
6.073348017621146,-0.43267091697854543
6.106718061674009,-0.42567176727409206
6.140088105726872,-0.40983709864190665
6.173458149779736,-0.39007797380051235
6.2068281938325995,-0.37036543425515245
6.240198237885463,-0.35021772242030624
6.273568281938326,-0.32366332673930387
6.306938325991189,-0.2816345179796241
6.3403083700440535,-0.2166520405734376
6.373678414096917,-0.12728239915108064
6.40704845814978,-0.019934723454631254
6.440418502202643,0.09299614027772732
6.4737885462555065,0.19769226786462862
6.507158590308371,0.2838739194460389
6.540528634361234,0.3477767868197407
6.573898678414097,0.39191709505443106
6.60726872246696,0.4220821178181872
6.640638766519824,0.44325766427458857
6.674008810572688,0.4565329838099474
6.707378854625551,0.4584250516077713
6.740748898678414,0.44294674672538903
6.774118942731278,0.4055651138293721
6.807488986784141,0.3472818245436415
6.840859030837005,0.2766705088451462
6.874229074889868,0.20810506188702102
6.9075991189427315,0.15580861478248098
6.940969162995595,0.12553322875989767
6.974339207048458,0.10776774439333943
7.007709251101322,0.0770206651522677
7.041079295154185,-0.0001134744076777424
7.074449339207049,-0.14954119714566685
7.107819383259912,-0.3730009951152722
7.141189427312775,-0.6386609674400536
7.174559471365639,-0.8856414334310863
7.207929515418503,-1.0430881512981354
7.241299559471366,-1.0569567988491604
7.274669603524229,-0.9128388659904937
7.308039647577092,-0.6439912491656388
7.3414096916299565,-0.32022155516586737
7.37477973568282,-0.022180317356731826
7.408149779735683,0.18772761106883315
7.441519823788546,0.28551001430493955
7.47488986784141,0.28922611482752714
7.508259911894274,0.24622692109377717
7.541629955947137,0.21096788923402088
7.575,0.22331763035685065
7.608370044052863,0.29560376302078206
7.641740088105728,0.4118048306603468
7.675110132158591,0.5369662058151186
7.708480176211454,0.631468715570495
7.741850220264317,0.664259000751927
7.775220264317181,0.6210434015935289
7.808590308370045,0.5062637553529568
7.841960352422908,0.339930937220726
7.875330396475771,0.1513754182701284
7.9087004405286345,-0.028108653078114453
7.942070484581498,-0.17219857626347432
7.975440528634362,-0.2648026851956087
8.008810572687224,-0.30250262029371017
8.042180616740088,-0.2934447565949342
8.075550660792953,-0.2529923563304878
8.108920704845815,-0.19784609861985675
8.142290748898679,-0.14120188646985823
8.175660792951541,-0.09101123946584035
8.209030837004406,-0.05155706156278242
8.24240088105727,-0.02643456901713973
8.275770925110132,-0.020119646609365213
8.309140969162996,-0.03640765707021509
8.342511013215859,-0.0745118103229847
8.375881057268723,-0.12581017919387089
8.409251101321587,-0.17444899816394324
8.44262114537445,-0.20283242368326507
8.475991189427313,-0.19972405877826405
8.509361233480176,-0.16645539254444644
8.54273127753304,-0.11723679238549263
8.576101321585904,-0.07271071374228244
8.609471365638766,-0.04981493313128924
8.64284140969163,-0.05330393025770245
8.676211453744493,-0.07348891784955865
8.709581497797357,-0.0913691220638383
8.742951541850221,-0.0883379491154864
8.776321585903084,-0.055330074200501574
8.809691629955948,0.003153616843076086
8.84306167400881,0.07172335530715217
8.876431718061674,0.13147838957907468
8.909801762114538,0.16794258307024168
8.9431718061674,0.17576791534284006
8.976541850220265,0.15875459915938167
9.009911894273127,0.12642075801995045
9.043281938325991,0.0897532713783725
9.076651982378856,0.058303715752027016
9.110022026431718,0.03916378079206365
9.143392070484582,0.036895880260261193
9.176762114537445,0.053175882548947014
9.210132158590309,0.08573346840741869
9.243502202643173,0.12735056711623735
9.276872246696035,0.16626187179125446
9.3102422907489,0.188850274415935
9.343612334801762,0.18428618170180888
9.376982378854626,0.14941690734029545
9.41035242290749,0.09152494551969324
9.443722466960352,0.027021163109881105
9.477092511013216,-0.024287749827457877
9.510462555066079,-0.047580617452018754
9.543832599118943,-0.040545548224500384
9.577202643171807,-0.016215142067843375
9.61057268722467,0.0011455899966501583
9.643942731277534,-0.013696057842387133
9.677312775330396,-0.0745427856066262
9.71068281938326,-0.17498468272793524
9.744052863436124,-0.28803669851268504
9.777422907488987,-0.37544492898702203
9.81079295154185,-0.4032241522206812
9.844162995594713,-0.35650877875179604
9.877533039647577,-0.24654595041843522
9.910903083700441,-0.1061298341316787
9.944273127753304,0.02457569118241555
9.977643171806168,0.11499590208545345
10.01101321585903,0.15566358860806206
10.044383259911895,0.1590145421766276
10.077753303964759,0.14981185089676588
10.111123348017621,0.1507366760820894
10.144493392070485,0.17068582888693984
10.177863436123348,0.20134520040709303
10.211233480176212,0.22303900460247947
10.244603524229076,0.21621851706547987
10.277973568281938,0.17250078644362404
10.311343612334802,0.09982912938509395
10.344713656387665,0.019473344234394487
10.378083700440529,-0.04346568008714906
10.411453744493393,-0.07147265555310776
10.444823788546255,-0.06267810876473152
10.47819383259912,-0.03190252696423946
10.511563876651982,-0.004147954298310387
10.544933920704846,-0.003307559331755053
10.57830396475771,-0.04101642195494359
10.611674008810573,-0.11064869462667676
10.645044052863437,-0.18934538700219594
10.678414096916299,-0.24744642422875437
10.711784140969163,-0.26131890146024933
10.745154185022027,-0.22389121826037608
10.77852422907489,-0.14807924223289567
10.811894273127754,-0.06142122655691565
10.845264317180618,0.005752744302821385
10.87863436123348,0.03326306419134481
10.912004405286345,0.019233306810262214
10.945374449339207,-0.020146136941953052
10.978744493392071,-0.05876378087533896
11.012114537444935,-0.07238563783633443
11.045484581497798,-0.04836584551788878
11.078854625550662,0.010934451967868223
11.112224669603524,0.09165620589816396
11.145594713656388,0.17600557239509054
11.178964757709252,0.24943406896402087
11.212334801762115,0.30399677968414873
11.245704845814979,0.33714488134334986
11.279074889867841,0.34792638431590395
11.312444933920705,0.33382420019654185
11.34581497797357,0.2907065314962893
11.379185022026432,0.21617026216360094
11.412555066079296,0.11422659642818994
11.445925110132158,-0.0018615966898621065
11.479295154185023,-0.11106731282840446
11.512665198237887,-0.1906705896292709
11.546035242290749,-0.22462799001190226
11.579405286343613,-0.21045580897601815
11.612775330396476,-0.1612110171884693
11.64614537444934,-0.10123802482818979
11.679515418502204,-0.05713921348808768
11.712885462555066,-0.04760703004860793
11.74625550660793,-0.07634220640182623
11.779625550660793,-0.13103258320972408
11.812995594713657,-0.18882803428964018
11.846365638766521,-0.22600802910723258
11.879735682819383,-0.22778267915554834
11.913105726872248,-0.19416146123254224
11.94647577092511,-0.13954217913153
11.979845814977974,-0.08630555875126807
12.013215859030838,-0.05508760146095718
12.0465859030837,-0.05563037402326132
12.079955947136565,-0.08186398111850252
12.113325991189427,-0.11335547614291756
12.146696035242291,-0.12296049594353202
12.180066079295155,-0.08807700716358977
12.213436123348018,-0.0011448935989879728
12.246806167400882,0.12518689085816564
12.280176211453744,0.26103362193496693
12.313546255506608,0.3698518835421454
12.346916299559473,0.42253366464282804
12.380286343612335,0.408933937034519
12.413656387665199,0.3415134616800601
12.447026431718061,0.2492115707033733
12.480396475770926,0.1642620520695061
12.51376651982379,0.10816221336426379
12.547136563876652,0.08349825472804424
12.580506607929516,0.07537196050520324
12.613876651982379,0.06120011245535007
12.647246696035243,0.023348137037903987
12.680616740088107,-0.04216295434619422
12.71398678414097,-0.12509141398822715
12.747356828193833,-0.20798571735545002
12.780726872246696,-0.276018517322798
12.81409691629956,-0.32368899380561983
12.847466960352424,-0.3547625509288977
12.880837004405286,-0.3761178140810181
12.91420704845815,-0.3898366265528602
12.947577092511013,-0.38880318618941334
12.980947136563877,-0.35885791587672855
13.014317180616741,-0.2865815220097384
13.047687224669604,-0.16839153204154753
13.081057268722468,-0.015723569489992387
13.11442731277533,0.14690855828207633
13.147797356828194,0.29041290509136336
13.181167400881058,0.3921862284396454
13.21453744493392,0.4444373794127361
13.247907488986785,0.4558170564907648
13.281277533039647,0.4456287139793479
13.314647577092511,0.4333670424199465
13.348017621145376,0.4284701874298101
13.381387665198238,0.4251056007755099
13.414757709251102,0.40462702035207426
13.448127753303964,0.3449629722884318
13.481497797356829,0.23299159817200743
13.514867841409693,0.07425238066977025
13.548237885462555,-0.10501916910926129
13.58160792951542,-0.2655725577617743
13.614977973568282,-0.3702463270645269
13.648348017621146,-0.4002962862498781
13.68171806167401,-0.3652373869716665
13.715088105726872,-0.3005836441581802
13.748458149779736,-0.2531546322209351
13.781828193832599,-0.25983990255301487
13.815198237885463,-0.32966388610943903
13.848568281938327,-0.43820957166506685
13.88193832599119,-0.5378227268234104
13.915308370044054,-0.5791634922692465
13.948678414096916,-0.5337368838922263
13.98204845814978,-0.40636406762454114
14.015418502202644,-0.23169903711877812
14.048788546255507,-0.05713529158420843
14.08215859030837,0.07872897724260436
14.115528634361233,0.16119682872293564
14.148898678414097,0.201418169936333
14.182268722466961,0.2257944848931579
14.215638766519824,0.2597523942332591
14.249008810572688,0.3147310270504827
14.28237885462555,0.38431300325396134
14.315748898678414,0.4499129257257486
14.349118942731279,0.49164083722315755
14.382488986784141,0.49822761610647015
14.415859030837005,0.47149284743417363
14.449229074889868,0.42423315272432577
14.482599118942732,0.3735566955490075
14.515969162995596,0.3332163937104407
14.549339207048458,0.3081949355200229
14.582709251101322,0.29332841009173405
14.616079295154185,0.2760072515758221
14.649449339207049,0.24159683708725113
14.682819383259913,0.1794516076890425
14.716189427312775,0.08731727666548397
14.74955947136564,-0.02749245143497551
14.782929515418502,-0.15060722258268722
14.816299559471366,-0.26585412449127366
14.84966960352423,-0.36114331774960184
14.883039647577093,-0.43247647997707006
14.916409691629957,-0.4842276589301684
14.94977973568282,-0.525409561318546
14.983149779735683,-0.5635107467621414
15.016519823788547,-0.5988343796412409
15.04988986784141,-0.6223603439907637
15.083259911894274,-0.6187442522528724
15.116629955947138,-0.573622298291323
15.15,-0.4819958946205485
15.183370044052865,-0.35338589206638815
15.216740088105727,-0.2104669655034707
15.250110132158591,-0.08082962183199309
15.283480176211455,0.014885988398376652
15.316850220264318,0.07282825682124623
15.350220264317182,0.10837808035911876
15.383590308370044,0.1490746683358024
15.416960352422908,0.2206891824627535
15.450330396475772,0.332954218935293
15.483700440528635,0.47212489363732707
15.517070484581499,0.6044643499321974
15.550440528634361,0.6894464191811636
15.583810572687225,0.6967399554151686
15.61718061674009,0.6192936181284229
15.650550660792952,0.47679042404691985
15.683920704845816,0.3082011603285814
15.717290748898678,0.1568984667765456
15.750660792951543,0.05472083292799751
15.784030837004407,0.011446198167313777
15.817400881057269,0.013573622499005964
15.850770925110133,0.03234295381958111
15.884140969162996,0.03719709444423605
15.91751101321586,0.008857720008837463
15.950881057268724,-0.05340368199974761
15.984251101321586,-0.13305262178204594
16.01762114537445,-0.20507196150348803
16.050991189427315,-0.24786652949738278
16.084361233480177,-0.2526870886329911
16.11773127753304,-0.22643945620956868
16.151101321585905,-0.1871634169834267
16.184471365638768,-0.15500361029189078
16.21784140969163,-0.14330408925933008
16.251211453744492,-0.15377065127801942
16.284581497797358,-0.1771447391146887
16.31795154185022,-0.19810456656433498
16.351321585903083,-0.2015977838333093
16.38469162995595,-0.17799782083988483
16.41806167400881,-0.12577037284220252
16.451431718061674,-0.05165911289211262
16.48480176211454,0.03099505015780056
16.518171806167402,0.10526933878315357
16.551541850220264,0.15466317538107296
16.584911894273127,0.167530217748691
16.618281938325993,0.14081869557943155
16.651651982378855,0.08165140274555639
16.685022026431717,0.005686592120547267
16.718392070484583,-0.0675842028156038
16.751762114537446,-0.12099672067490765
16.785132158590308,-0.14489722583689457
16.818502202643174,-0.13926967577116076
16.851872246696036,-0.11214593912445772
16.8852422907489,-0.07533585207731901
16.91861233480176,-0.039563569268756746
16.951982378854627,-0.011029735977277638
16.98535242290749,0.009537037020708837
17.01872246696035,0.025472884375485078
17.052092511013218,0.041408987677153786
17.08546255506608,0.0604351875570391
17.118832599118942,0.08231630658066941
17.152202643171808,0.10339583495109615
17.18557268722467,0.11817770166596785
17.218942731277533,0.1219289971021965
