Frequency (Hz),Amplitude
0.0,0.3507304088657155
0.019823788546255508,0.5137939199869038
0.039647577092511016,0.8284590408755259
0.059471365638766524,1.1783139681116077
0.07929515418502203,1.5386516233119922
0.09911894273127755,1.902511931755776
0.11894273127753305,2.267109547622784
0.13876651982378857,2.630996970275429
0.15859030837004406,2.9932571252417652
0.17841409691629956,3.353217245250955
0.1982378854625551,3.7103305511479787
0.2180616740088106,4.06412146553452
0.2378854625550661,4.414157983824243
0.25770925110132165,4.760036797467969
0.27753303964757714,5.10137487076347
0.29735682819383263,5.43780448919025
0.31718061674008813,5.768970272026354
0.3370044052863437,6.094527344565255
0.3568281938325991,6.414140219857259
0.37665198237885467,6.727482127927748
0.3964757709251102,7.034234634461549
0.41629955947136565,7.334087450685236
0.4361233480176212,7.626738371627387
0.4559471365638767,7.911893301588719
0.4757709251101322,8.189266339229121
0.49559471365638774,8.458579903389346
0.5154185022026433,8.719564886476455
0.5352422907488987,8.971960826058238
0.5550660792951543,9.215516087909094
0.5748898678414097,9.449988055545738
0.5947136563876653,9.675143322552312
0.6145374449339208,9.890757884893917
0.6343612334801763,10.096617331066417
0.6541850220264318,10.29251702840614
0.6740088105726874,10.478262304234951
0.6938325991189428,10.653668620781644
0.7136563876651982,10.818561743020581
0.7334801762114539,10.972777898724864
0.7533039647577093,11.11616393015057
0.7731277533039648,11.248577436865736
0.7929515418502204,11.369886909313204
0.8127753303964759,11.479971852759446
0.8325991189427313,11.578722901332803
0.8524229074889869,11.666041921897914
0.8722466960352424,11.741842107550005
0.8920704845814978,11.806048060544613
0.9118942731277534,11.85859586450695
0.931718061674009,11.899433145790088
0.9515418502202644,11.928519123874349
0.9713656387665199,11.945824650722047
0.9911894273127755,11.951332239021347
1.0110132158590308,11.945036079272716
1.0308370044052866,11.926942045689653
1.0506607929515421,11.897067690903919
1.0704845814977975,11.85544222948338
1.090308370044053,11.80210651028897
1.1101321585903086,11.737112977715809
1.1299559471365639,11.66052562188265
1.1497797356828194,11.572419917854091
1.1696035242290752,11.472882754001386
1.1894273127753305,11.362012349630506
1.209251101321586,11.239918162032
1.2290748898678416,11.106720783134831
1.248898678414097,10.962551825978858
1.2687224669603525,10.80755380125707
1.288546255506608,10.641879984222454
1.3083700440528636,10.465694272305358
1.3281938325991192,10.279171033849941
1.3480176211453747,10.082494948454833
1.36784140969163,9.875860839498833
1.3876651982378856,9.659473499553512
1.4074889867841411,9.433547509540007
1.4273127753303965,9.198307052689
1.4471365638766522,8.953985724628613
1.4669603524229078,8.700826341279178
1.4867841409691631,8.439080746712325
1.5066079295154187,8.169009623785414
1.5264317180616742,7.890882311269513
1.5462555066079295,7.604976632462536
1.5660792951541853,7.311578742095656
1.5859030837004409,7.0109830009710326
1.6057268722466962,6.703491891640921
1.6255506607929517,6.389415994242275
1.6453744493392073,6.069074050472503
1.6651982378854626,5.742793157546444
1.6850220264317182,5.4109091561284774
1.7048458149779737,5.073767312601926
1.7246696035242293,4.73172345752132
1.7444933920704848,4.385145849538135
1.7643171806167404,4.034418229058055
1.7841409691629957,3.6799448952915386
1.8039647577092512,3.322159376220361
1.8237885462555068,2.961539815705806
1.8436123348017623,2.5986377254397626
1.863436123348018,2.2341354449910003
1.8832599118942732,1.86897150742744
1.9030837004405288,1.5046480056536027
1.9229074889867843,1.1441150563112825
1.9427312775330399,0.7949702228624875
1.9625550660792954,0.48541255522415894
1.982378854625551,0.3486521358431577
2.002202643171806,0.538773996724287
2.0220264317180616,0.860910181763939
2.041850220264317,1.2134635714660336
2.061674008810573,1.5752525110999127
2.0814977973568287,1.9401055849561557
2.1013215859030843,2.3054811185069206
2.1211453744493394,2.670026348383088
2.140969162995595,3.0328672556303817
2.1607929515418505,3.3933528958524177
2.180616740088106,3.7509484412214666
2.2004405286343616,4.105185223351491
2.220264317180617,4.455635373763468
2.2400881057268722,4.801898101933583
2.2599118942731278,5.143591899055379
2.2797356828193833,5.48034994555788
2.299559471365639,5.811817339088621
2.319383259911895,6.137649401031586
2.3392070484581504,6.457510644926251
2.3590308370044055,6.771074163365695
2.378854625550661,7.078021286143017
2.3986784140969166,7.3780414178299285
2.418502202643172,7.670831995945524
2.4383259911894277,7.9560985310665435
2.4581497797356833,8.233554702918633
2.4779735682819384,8.502922494648129
2.497797356828194,8.763932352833399
2.5176211453744495,9.016323364382696
2.537444933920705,9.25984344391107
2.5572687224669606,9.494249526882204
2.577092511013216,9.719307764993083
2.5969162995594717,9.93479372112898
2.6167400881057272,10.14049256183149
2.6365638766519828,10.33619924567321
2.6563876651982383,10.521718706266824
2.676211453744494,10.6968660288887
2.6960352422907494,10.86146661988795
2.715859030837005,11.015356368200218
2.73568281938326,11.158381798400612
2.7555066079295156,11.290400214821839
2.775330396475771,11.411279836337059
2.7951541850220267,11.52089992146682
2.8149779735682823,11.61915088351937
2.834801762114538,11.705934395515108
2.854625550660793,11.781163484681796
2.874449339207049,11.844762616338443
2.8942731277533045,11.896667767012955
2.91409691629956,11.936826486663678
2.9339207048458156,11.965197949897414
2.953744493392071,11.981752996097564
2.9735682819383262,11.986474158395753
2.993392070484582,11.979355681439214
3.0132158590308373,11.960403527924626
3.033039647577093,11.929635373886581
3.0528634361233484,11.887080592747564
3.072687224669604,11.832780228153128
3.092511013215859,11.766786955635236
3.1123348017621146,11.689165033164835
3.1321585903083706,11.599990240674973
3.151982378854626,11.499349808656445
3.1718061674008817,11.387342335950176
3.1916299559471373,11.264077696886238
3.2114537444933924,11.129676937945156
3.231277533039648,10.98427216414995
3.2511013215859035,10.82800641543144
3.270925110132159,10.661033533251864
3.2907488986784146,10.483518017821273
3.31057268722467,10.295634876300488
3.3303964757709252,10.097569462459003
3.350220264317181,9.889517308346312
3.3700440528634363,9.671683948652598
3.389867841409692,9.444284738582237
3.4096916299559474,9.207544666257123
3.4295154185022034,8.961698160921221
3.4493392070484585,8.706988898556649
3.469162995594714,8.443669606980313
3.4889867841409696,8.17200187311725
3.508810572687225,7.892255956017486
3.5286343612334807,7.604710610407825
3.5484581497797363,7.309652927318845
3.5682819383259914,7.00737820086311
3.588105726872247,6.698189833981341
3.6079295154185025,6.382399301590501
3.627753303964758,6.060326198172717
3.6475770925110136,5.73229841031468
3.667400881057269,5.3986524763048775
3.6872246696035247,5.05973423045857
3.7070484581497802,4.715899890168025
3.726872246696036,4.367517849510955
3.7466960352422913,4.014971636160841
3.7665198237885464,3.658664855759343
3.7863436123348024,3.299029684331601
3.8061674008810575,2.9365420367167716
3.8259911894273135,2.571750123341426
3.8458149779735686,2.2053320536789167
3.8656387665198246,1.8382230456821889
3.8854625550660797,1.471932530624616
3.905286343612335,1.1094790350853883
3.925110132158591,0.7589047006563319
3.9449339207048464,0.4519430868654819
3.964757709251102,0.3427284888257889
3.9845814977973575,0.562149667765063
4.004405286343612,0.8939902612586124
4.024229074889869,1.251109353450824
4.044052863436123,1.6159378151738617
4.06387665198238,1.9832114604431976
4.083700440528634,2.3506955080917518
4.103524229074891,2.717164993462625
4.123348017621146,3.081807094381559
4.143171806167401,3.444003109911111
4.162995594713657,3.8032363413361705
4.182819383259912,4.159048742625407
4.2026431718061685,4.51101879366281
4.222466960352423,4.858749482836051
4.242290748898679,5.2018614660522005
4.262114537444934,5.539989037454962
4.28193832599119,5.872777704051215
4.301762114537445,6.199882713645457
4.321585903083701,6.520968169359408
4.3414096916299565,6.835706515763541
4.361233480176212,7.143778266209631
4.381057268722468,7.444871889817192
4.400881057268723,7.738683805721999
4.420704845814979,8.024918450092638
4.440528634361234,8.30328839269288
4.46035242290749,8.573514487029993
4.4801762114537445,8.835326042909614
4.500000000000001,9.088461013422133
4.5198237885462555,9.332666190574345
4.539647577092512,9.56769740529769
4.559471365638767,9.793319728634025
4.579295154185023,10.009307671664121
4.599118942731278,10.215445382297586
4.618942731277533,10.411526837449866
4.63876651982379,10.597356029433868
4.658590308370044,10.772747145622036
4.678414096916301,10.93752474060791
4.6982378854625555,11.091523900231499
4.718061674008811,11.234590396937149
4.737885462555067,11.366580836017112
4.757709251101322,11.487362792361097
4.777533039647578,11.59681493738743
4.797356828193833,11.694827155877874
4.817180616740089,11.78130065247635
4.837004405286344,11.856148047646014
4.856828193832599,11.919293462907788
4.876651982378855,11.970672595209994
4.896475770925111,12.010232780301836
4.9162995594713665,12.037933045005495
4.936123348017622,12.053744148301167
4.955947136563877,12.057648611159156
4.975770925110133,12.049640735070698
4.995594713656388,12.029726609247133
5.015418502202644,11.997924106474521
5.035242290748899,11.954262867627955
5.055066079295155,11.898784274867076
5.07488986784141,11.831541413551909
5.094713656387666,11.752599022936531
5.114537444933921,11.662033435716914
5.134361233480177,11.559932506528824
5.154185022026432,11.446395529513856
5.174008810572688,11.32153314509437
5.193832599118943,11.185467236124047
5.213656387665199,11.038330813609784
5.2334801762114544,10.880267892233778
5.25330396475771,10.71143335594298
5.2731277533039655,10.53199281391888
5.292951541850221,10.342122447295388
5.312775330396477,10.142008847059486
5.332599118942731,9.93184884365329
5.352422907488988,9.711849328900723
5.372246696035242,9.482227071017451
5.392070484581499,9.243208523637405
5.4118942731277535,8.995029630019555
5.43171806167401,8.737935623906052
5.451541850220265,8.472180828917788
5.47136563876652,8.198028458942256
5.491189427312777,7.915750422758507
5.511013215859031,7.625627137256424
5.530837004405288,7.327947355197852
5.550660792951542,7.02300801577857
5.570484581497798,6.711114129663331
5.5903083700440535,6.392578715305723
5.610132158590309,6.067722811253716
5.6299559471365646,5.736875601526297
5.64977973568282,5.400374711061066
5.669603524229076,5.058566761134544
5.689427312775331,4.711808330684499
5.709251101321586,4.360467568186536
5.729074889867842,4.004926879596431
5.748898678414098,3.645587464381305
5.768722466960353,3.282877171082279
5.788546255506609,2.917264645183191
5.808370044052864,2.5492862114759918
5.82819383259912,2.1796007078273085
5.848017621145375,1.8091123398931355
5.867841409691631,1.439283129467128
5.887665198237886,1.0730822509165956
5.907488986784142,0.7187399400073633
5.927312775330397,0.41163840012416875
5.9471365638766525,0.33408367468817923
5.966960352422908,0.5860637157092835
5.986784140969164,0.9296580903090746
6.00660792951542,1.2930939119898048
6.026431718061675,1.6625035988504941
6.04625550660793,2.0336135712681425
6.066079295154186,2.404542190474412
6.085903083700441,2.7742172864577475
6.105726872246697,3.1419012331178613
6.125550660792952,3.507015691350114
6.145374449339208,3.8690668978402476
6.1651982378854635,4.22761027500261
6.185022026431718,4.582232285821951
6.204845814977975,4.932540555995705
6.224669603524229,5.278158251858377
6.244493392070486,5.618720780197958
6.264317180616741,5.95387381743787
6.284140969162996,6.28327213129061
6.303964757709252,6.606578891130488
6.323788546255507,6.923465288435045
6.3436123348017635,7.233610358591281
6.363436123348018,7.536700935902384
6.3832599118942746,7.832431697883982
6.403083700440529,8.120505269864038
6.422907488986785,8.400632370320622
6.44273127753304,8.672531983474409
6.462555066079296,8.935931549662945
6.482378854625551,9.190567166718356
6.502202643171807,9.436183797412491
6.5220264317180625,9.672535479314007
6.541850220264318,9.899385534305663
6.561674008810574,10.116506775656964
6.581497797356829,10.323681711017286
6.601321585903085,10.52070274003968
6.62114537444934,10.707372345604039
6.640969162995596,10.883503277802184
6.6607929515418505,11.048918729997123
6.680616740088107,11.203452506384265
6.700440528634362,11.346949180573162
6.720264317180618,11.479264244782078
6.740088105726873,11.600264249295353
6.759911894273129,11.709826931883928
6.779735682819384,11.807841336928709
6.799559471365639,11.894207924022385
6.819383259911895,11.968838665854948
6.83920704845815,12.031657135214926
6.859030837004407,12.08259858096259
6.8788546255506615,12.121609992852347
6.898678414096917,12.14865015510312
6.918502202643173,12.163689688632449
6.938325991189428,12.166711081890176
6.958149779735684,12.15770871024299
6.977973568281939,12.13668884387934
6.997797356828195,12.103669644219623
7.01762114537445,12.058681148834253
7.037444933920705,12.001765244887041
7.0572687224669615,11.932975631140017
7.077092511013216,11.852377768571122
7.096916299559473,11.760048819675308
7.116740088105728,11.65607757653746
7.136563876651983,11.540564377785566
7.156387665198239,11.413621014554323
7.176211453744494,11.275370625611837
7.19603524229075,11.125947581829275
7.215859030837005,10.96549736020171
7.235682819383261,10.794176407663127
7.255506607929516,10.612151994977964
7.275330396475772,10.419602061039011
7.295154185022027,10.21671504795998
7.314977973568283,10.003689727421015
7.334801762114538,9.780735018816596
7.354625550660794,9.54806979986833
7.374449339207049,9.305922710513771
7.394273127753305,9.054531951076436
7.4140969162995605,8.794145075981355
7.433920704845816,8.525018784630268
7.453744493392072,8.247418711529658
7.473568281938327,7.961619218430917
7.493392070484583,7.66790319218062
7.513215859030838,7.366561853323453
7.533039647577093,7.0578945824557255
7.552863436123348,6.742208774224006
7.572687224669605,6.419819733230955
7.59251101321586,6.091050632835784
7.612334801762115,5.756232568422302
7.6321585903083715,5.415704753788256
7.651982378854627,5.069814937635222
7.671806167400882,4.718920165581904
7.691629955947137,4.363388098907204
7.711453744493394,4.003599259292295
7.731277533039649,3.639950873719532
7.751101321585904,3.272863614083067
7.7709251101321595,2.902793870884204
7.790748898678416,2.5302573461914255
7.81057268722467,2.155877832137784
7.830396475770926,1.7804984077649324
7.850220264317182,1.4054711714314283
7.870044052863436,1.03357106808966
7.889867841409693,0.6728562022118809
7.909691629955948,0.3624895772192436
7.929515418502204,0.3251888216068881
7.9493392070484585,0.6132728475264311
7.969162995594715,0.9703695796970936
7.9889867841409705,1.3417422316193057
8.008810572687224,1.7172340984071925
8.02863436123348,2.093598720493654
8.048458149779737,2.469332940729215
8.068281938325994,2.8435323716997716
8.088105726872246,3.2155433291755293
8.107929515418503,3.584832961182084
8.12775330396476,3.950933418358416
8.147577092511014,4.3134152536075385
8.167400881057269,4.671873740446148
8.187224669603525,5.025921424522886
8.207048458149782,5.375183900946842
8.226872246696036,5.719297359328144
8.246696035242293,6.05790714448907
8.266519823788547,6.390666924271621
8.286343612334802,6.717238232391922
8.306167400881058,7.037290249381938
8.325991189427315,7.350499738009408
8.345814977973568,7.656551080582985
8.365638766519824,7.955136384158098
8.38546255506608,8.245955631138278
8.405286343612337,8.528716860030313
8.42511013215859,8.803136365810971
8.444933920704846,9.068938912468434
8.464757709251103,9.325857952371917
8.484581497797357,9.573635848555323
8.504405286343614,9.812024096998716
8.524229074889869,10.040783546696023
8.544052863436125,10.259684615805249
8.56387665198238,10.468507502544304
8.583700440528636,10.667042389769374
8.60352422907489,10.855089642375074
8.623348017621145,11.0324599968113
8.643171806167402,11.198974742129774
8.662995594713658,11.354465892066761
8.682819383259913,11.498776347742325
8.702643171806168,11.631760050615474
8.722466960352424,11.753282125383754
8.74229074889868,11.86321901255617
8.762114537444935,11.961458590463282
8.78193832599119,12.047900286497587
8.801762114537446,12.122455177403925
8.821585903083701,12.185046078462927
8.841409691629957,12.235607621431894
8.861233480176212,12.274086321127031
8.881057268722468,12.300440630549662
8.900881057268723,12.314640984475627
8.92070484581498,12.316669831445122
8.940528634361234,12.306521654104909
8.960352422907489,12.284202977871514
8.980176211453745,12.249732367899352
9.000000000000002,12.203140414352927
9.019823788546258,12.144469705998082
9.039647577092511,12.073774792142508
9.059471365638768,11.991122132971775
9.079295154185024,11.89659003834393
9.099118942731279,11.790268595121711
9.118942731277533,11.672259583140246
9.13876651982379,11.542676379926446
9.158590308370046,11.401643854307034
9.1784140969163,11.249298249064443
9.198237885462555,11.085787052824635
9.218061674008812,10.91126886138925
9.237885462555067,10.725913228757088
9.257709251101323,10.529900508117974
9.27753303964758,10.32342168314824
9.297356828193834,10.106678189992868
9.317180616740089,9.879881730389156
9.337004405286345,9.643254076474795
9.356828193832602,9.397026867936662
9.376651982378855,9.141441402304952
9.396475770925111,8.876748419394167
9.416299559471367,8.603207881157774
9.436123348017622,8.321088748586563
9.455947136563877,8.030668757785572
9.475770925110133,7.73223419807555
9.49559471365639,7.426079695985801
9.515418502202644,7.112508010491097
9.5352422907489,6.791829847051266
9.555066079295155,6.464363701346439
9.57488986784141,6.130435748749503
9.594713656387666,5.790379803707916
9.614537444933923,5.444537386375029
9.634361233480178,5.0932579557623034
9.654185022026432,4.7368994063737855
9.674008810572689,4.375828992404248
9.693832599118945,4.010424968070032
9.713656387665198,3.6410794746356774
9.733480176211454,3.268203701700962
9.75330396475771,2.8922374399084765
9.773127753303967,2.5136677272827685
9.792951541850222,2.133068053967431
9.812775330396477,1.7511896277231238
9.832599118942733,1.3692062434042314
9.852422907488988,0.9895231094502408
9.872246696035244,0.6195014314919791
9.892070484581499,0.30206875777604497
9.911894273127754,0.3209244482869145
9.93171806167401,0.6475080930293209
9.951541850220266,1.0193665234661078
9.971365638766521,1.4001270030889652
9.991189427312776,1.783158750632019
10.011013215859032,2.1662113996440038
10.030837004405289,2.5481576544726856
10.050660792951543,2.928262613575506
10.070484581497798,3.3059582421673706
10.090308370044054,3.680758235027582
10.11013215859031,4.052221115530106
10.129955947136565,4.419932572767595
10.14977973568282,4.7834963730901086
10.169603524229077,5.1425294373451615
10.189427312775331,5.4966590861614115
10.209251101321588,5.845521478669636
10.229074889867842,6.188760739258119
10.248898678414099,6.526028496462041
10.268722466960353,6.856983676606689
10.28854625550661,7.181292458939331
10.308370044052865,7.498628335092261
10.32819383259912,7.808672236783019
10.348017621145376,8.111112708332959
10.367841409691632,8.405646108428074
10.387665198237887,8.691976830519897
10.407488986784141,8.969817534492213
10.427312775330398,9.23888938435588
10.447136563876654,9.4989222881773
10.466960352422909,9.74965513743649
10.486784140969164,9.99083604370333
10.50660792951542,10.22222257101102
10.526431718061675,10.443581962660188
10.546255506607931,10.65469136144516
10.566079295154186,10.855338022486334
10.585903083700442,11.045319517996923
10.605726872246697,11.224443933423165
10.625550660792953,11.392530054483036
10.645374449339208,11.54940754469645
10.665198237885463,11.69491711305479
10.685022026431719,11.828910671522147
10.704845814977975,11.951251482098225
10.724669603524232,12.061814293204753
10.744493392070485,12.160485465184149
