Time (s),Filtered Signal
0.0,0.012357271816213499
0.0334075723830735,0.020349966004647425
0.066815144766147,0.02610713909221816
0.1002227171492205,0.028329762826090277
0.133630289532294,0.027109877824735226
0.1670378619153675,0.023745383090068167
0.200445434298441,0.020042930300260317
0.23385300668151449,0.01750070735341744
0.267260579064588,0.01677673894897864
0.3006681514476615,0.017645205197079898
0.334075723830735,0.019360091769231143
0.3674832962138085,0.021148912182461947
0.400890868596882,0.022546659665163175
0.4342984409799555,0.023431804969414126
0.46770601336302897,0.02383135717372064
0.5011135857461025,0.02369413593294319
0.534521158129176,0.022821077890497893
0.5679287305122495,0.02100827082635533
0.601336302895323,0.018292707053216065
0.6347438752783965,0.015099725557537675
0.66815144766147,0.012136947728351666
0.7015590200445435,0.010039604766157612
0.734966592427617,0.008947762464163227
0.7683741648106905,0.008271294979256303
0.801781737193764,0.00681667101930948
0.8351893095768375,0.003253338236825574
0.868596881959911,-0.0032965627595740224
0.9020044543429845,-0.012837140359950146
0.9354120267260579,-0.024452611076666006
0.9688195991091315,-0.0366482902478803
1.002227171492205,-0.04790098678888985
1.0356347438752784,-0.05715748047859237
1.069042316258352,-0.06407642891412944
1.1024498886414256,-0.06895794911400065
1.135857461024499,-0.07245269732082281
1.1692650334075725,-0.07521117764730859
1.202672605790646,-0.07760849396220412
1.2360801781737194,-0.07960450950852002
1.269487750556793,-0.08073683884124955
1.3028953229398665,-0.08022601905849844
1.33630289532294,-0.07718178781309751
1.3697104677060135,-0.07089407493826765
1.403118040089087,-0.061147323213866546
1.4365256124721606,-0.04843483316975789
1.469933184855234,-0.03393091109553532
1.5033407572383075,-0.01915197778538757
1.536748329621381,-0.005391687184839974
1.5701559020044544,0.006832338527501297
1.603563474387528,0.018035234009383026
1.6369710467706016,0.02955018044777599
1.670378619153675,0.042891217986487845
1.7037861915367485,0.05896231334226077
1.737193763919822,0.07747634467992649
1.7706013363028954,0.09686493461661586
1.804008908685969,0.11474013517110683
1.8374164810690425,0.128718203749898
1.8708240534521159,0.13725130801954247
1.9042316258351895,0.14011053005429333
1.937639198218263,0.138325124000794
1.9710467706013366,0.13363426068806272
2.00445434298441,0.12772737827079808
2.0378619153674835,0.12162728133741395
2.071269487750557,0.11546785593610669
2.1046770601336307,0.10869707018971474
2.138084632516704,0.10052463335592707
2.1714922048997773,0.09034927180880954
2.204899777282851,0.07797450560356907
2.2383073496659245,0.06358504554011105
2.271714922048998,0.04759249952355332
2.3051224944320716,0.030487369570409747
2.338530066815145,0.012758504326831165
2.3719376391982183,-0.005160028045088136
2.405345211581292,-0.022990303440271895
2.4387527839643655,-0.0407717244787521
2.472160356347439,-0.0589809152694567
2.5055679287305126,-0.07845033015836589
2.538975501113586,-0.09999758927203155
2.5723830734966593,-0.12386519052387691
2.605790645879733,-0.1492602916127126
2.6391982182628064,-0.17433261312607168
2.67260579064588,-0.19675794338145047
2.7060133630289536,-0.2147586451715736
2.739420935412027,-0.22806366189221894
2.7728285077951007,-0.238198126952964
2.806236080178174,-0.24772743868465016
2.8396436525612474,-0.25861885229513526
2.873051224944321,-0.27048372091499634
2.9064587973273945,-0.2797713835420613
2.939866369710468,-0.2807183760967737
2.9732739420935417,-0.2680038029888045
3.006681514476615,-0.23997812192586954
3.0400890868596884,-0.2006253803233485
3.073496659242762,-0.15864216292118022
3.1069042316258355,-0.12331195841352789
3.140311804008909,-0.09874348099428379
3.1737193763919826,-0.07953965181019
3.207126948775056,-0.05102954812390602
3.2405345211581293,0.00464686992457551
3.273942093541203,0.09851308967401269
3.3073496659242765,0.2257178084865711
3.34075723830735,0.3633473873766209
3.3741648106904236,0.47860278896957825
3.407572383073497,0.5456461938097267
3.4409799554565703,0.5636323647548864
3.474387527839644,0.565368830156017
3.5077951002227175,0.608330231790849
3.541202672605791,0.7475754450953829
3.5746102449888646,1.0004269331088773
3.608017817371938,1.3202185325161482
3.6414253897550113,1.5959551593784662
3.674832962138085,1.6847222088006941
3.7082405345211584,1.4677211356075113
3.7416481069042318,0.9067366400953172
3.7750556792873056,0.07392819085600738
3.808463251670379,-0.8621769744746184
3.8418708240534527,-1.6915884666021614
3.875278396436526,-2.2358432414012523
3.9086859688195994,-2.407329817723718
3.942093541202673,-2.2301955350513634
3.9755011135857465,-1.8170089813615415
4.00890868596882,-1.3157638130578357
4.042316258351893,-0.8532539836912719
4.075723830734967,-0.49864967041333397
4.109131403118041,-0.2581866128508106
4.142538975501114,-0.09614766956376669
4.1759465478841875,0.03324145459976185
4.209354120267261,0.15974558128498773
4.242761692650334,0.28702122437490546
4.276169265033408,0.39884615830194786
4.309576837416482,0.47435610735996797
4.342984409799555,0.5024846495335986
4.3763919821826285,0.4884802841224379
4.409799554565702,0.4507869449113036
4.443207126948775,0.41159699973427005
4.476614699331849,0.386791247623159
4.510022271714923,0.3802290110452328
4.543429844097996,0.38443555862252915
4.5768374164810695,0.3863949115854825
4.610244988864143,0.37497224997355416
4.643652561247216,0.34624353762964016
4.67706013363029,0.3045078279030119
4.710467706013364,0.2590771711857813
4.743875278396437,0.21892441651317304
4.77728285077951,0.18805584261571076
4.810690423162584,0.16383250078496706
4.844097995545657,0.13883260598833636
4.877505567928731,0.10508189967585056
4.910913140311805,0.05842318929209077
4.944320712694878,0.000891500278349729
4.977728285077951,-0.0599324560185101
5.011135857461025,-0.11411201244643225
5.044543429844098,-0.15345561797792834
5.077951002227172,-0.17461259108963284
5.111358574610246,-0.17988145552799953
5.144766146993319,-0.17560910801920213
5.178173719376392,-0.16914547834460722
5.211581291759466,-0.1658379862149525
5.244988864142539,-0.16733857438007835
5.278396436525613,-0.17174872299546903
5.311804008908687,-0.17525423383002925
5.34521158129176,-0.1743046930182086
5.378619153674833,-0.16729117608580635
5.412026726057907,-0.15504169146677324
5.445434298440981,-0.14006554348366732
5.478841870824054,-0.12504375443609086
5.512249443207128,-0.11135141587399652
5.545657015590201,-0.09832153975571054
5.579064587973274,-0.08358664585070703
5.612472160356348,-0.0643381784580677
5.645879732739422,-0.038929235404809345
5.679287305122495,-0.008077997312346699
5.712694877505569,0.02491799221960523
5.746102449888642,0.05512207367913085
5.779510022271715,0.07769550463998948
5.812917594654789,0.08969141500925061
5.846325167037863,0.09111840956249695
5.879732739420936,0.0848105320428819
5.91314031180401,0.07518303373411316
5.946547884187083,0.06645009542959228
5.979955456570156,0.06109533931025888
6.01336302895323,0.059229910276074424
6.046770601336304,0.059038183685657136
6.080178173719377,0.058013452915762154
6.1135857461024505,0.05435599387448446
6.146993318485524,0.04788308677201736
6.180400890868597,0.04007398004433824
6.213808463251671,0.03329491988253345
6.247216035634745,0.029616193286321854
6.280623608017818,0.029786621485599473
6.3140311804008915,0.03282599176272599
6.347438752783965,0.03640167193904588
6.380846325167038,0.037808026570665246
6.414253897550112,0.03510948244272838
6.447661469933186,0.027941987077888645
6.481069042316259,0.017620470650538834
6.5144766146993325,0.00651098251498201
6.547884187082406,-0.003037836482829912
6.581291759465479,-0.009703782300525777
6.614699331848553,-0.013670189469631545
6.648106904231627,-0.016362896025718523
6.6815144766147,-0.019593938512036637
6.7149220489977735,-0.024542535175710686
6.748329621380847,-0.031067033872722007
6.78173719376392,-0.037664626377454505
6.815144766146994,-0.042079976246949466
6.848552338530068,-0.04227132403139636
6.881959910913141,-0.037307394590793935
6.915367483296214,-0.027832232358926238
6.948775055679288,-0.015938554909398023
6.982182628062361,-0.0045212693076870395
7.015590200445435,0.00365275845410556
7.048997772828509,0.006857043794498952
7.082405345211582,0.005012195248178655
7.115812917594655,-0.00023166438027454004
7.149220489977729,-0.00602772623695963
7.182628062360802,-0.009374027786791205
7.216035634743876,-0.008325576938982799
7.24944320712695,-0.002881605393103126
7.282850779510023,0.0049003546376649755
7.316258351893096,0.011711616448975417
7.34966592427617,0.014422818970933888
7.383073496659243,0.011482492880572142
7.416481069042317,0.003588059336212345
7.449888641425391,-0.00672186879113343
7.4832962138084635,-0.01633715001087824
7.516703786191537,-0.023016605758617706
7.550111358574611,-0.026214674274568348
7.583518930957685,-0.026870623863037534
7.616926503340758,-0.026350811526222147
7.650334075723832,-0.025237255927145215
7.683741648106905,-0.022743102410187323
7.717149220489978,-0.017153304706677506
7.750556792873052,-0.007065164441999224
7.783964365256126,0.007294294063921745
7.817371937639199,0.0234817798981524
7.850779510022273,0.037414363787985544
7.884187082405346,0.04491481125295549
7.917594654788419,0.04349465967071643
7.951002227171493,0.033487990437601
7.984409799554567,0.017959516642635967
8.01781737193764,0.0014260968377505505
8.051224944320714,-0.011973971491120894
8.084632516703786,-0.019969871654594785
8.118040089086861,-0.022622104244155894
8.151447661469934,-0.021638310765589783
8.184855233853007,-0.019018709228592234
8.218262806236082,-0.015825039928363028
8.251670378619155,-0.011739882434708115
8.285077951002227,-0.005601368441079786
8.318485523385302,0.003461119379477984
8.351893095768375,0.01499418930509589
8.385300668151448,0.026922804263806957
8.418708240534523,0.03619930012071043
8.452115812917596,0.04008261315517737
8.485523385300668,0.03738890271612576
8.518930957683743,0.02907713915917731
8.552338530066816,0.01788987691788097
8.585746102449889,0.0072498042687620815
8.619153674832964,-4.334877793192593e-05
8.652561247216036,-0.0027268584662955863
8.68596881959911,-0.001257183792071829
8.719376391982184,0.0027036461931521107
8.752783964365257,0.007152167454504317
8.78619153674833,0.010512411917786235
8.819599109131405,0.011989446725776964
8.853006681514477,0.011447208914417804
8.88641425389755,0.009003615907338478
8.919821826280625,0.004660547971508101
8.953229398663698,-0.0017709804081594875
8.98663697104677,-0.01039286408904731
9.020044543429846,-0.020768473330986848
9.053452115812918,-0.0316142156983013
9.086859688195991,-0.04090380547911758
9.120267260579066,-0.04644223911805802
9.153674832962139,-0.0467018384469514
9.187082405345212,-0.04154089436638678
9.220489977728286,-0.03244032797699458
9.25389755011136,-0.02209182087526255
9.287305122494432,-0.013459324557379665
9.320712694877507,-0.008681085711703784
9.35412026726058,-0.008267505522819634
9.387527839643653,-0.01093730155733186
9.420935412026727,-0.014167257313845666
9.4543429844098,-0.015227283647160389
9.487750556792873,-0.012268120377234102
9.521158129175948,-0.005014299024539088
9.55456570155902,0.005205567061475281
9.587973273942094,0.016068080995581914
9.621380846325168,0.025209481547627356
9.654788418708241,0.031098804390617206
9.688195991091314,0.03346539003114984
9.721603563474389,0.033138181199607944
9.755011135857462,0.03143124952708637
9.788418708240535,0.029414922345250123
9.82182628062361,0.027450063987788483
9.855233853006682,0.025213142858035803
9.888641425389755,0.022168116820308736
9.92204899777283,0.018182287275081584
9.955456570155903,0.013881726767008502
9.988864142538976,0.01047313240571753
10.02227171492205,0.00907148859524878
10.055679287305123,0.009898050651448725
10.089086859688196,0.011852086840854103
10.12249443207127,0.012804387507269558
10.155902004454344,0.010572378563532825
10.189309576837417,0.0041259207582720146
10.222717149220491,-0.005619954694014431
10.256124721603564,-0.01591698216582844
10.289532293986637,-0.023258433246645702
10.322939866369712,-0.024978610037579823
10.356347438752785,-0.020633033825904652
10.389755011135858,-0.012459209840844972
10.423162583518932,-0.004605723145754145
10.456570155902005,-0.0013840952057893648
10.489977728285078,-0.0052874680914145565
10.523385300668153,-0.015692318233972616
10.556792873051226,-0.02890186696565755
10.590200445434299,-0.03959224861276842
10.623608017817373,-0.04305799498119647
10.657015590200446,-0.03725311403949636
10.69042316258352,-0.023699731042744306
10.723830734966594,-0.006857545222348247
10.757238307349667,0.0077447543577296545
10.790645879732741,0.015765977306941927
10.824053452115814,0.015708182601498883
10.857461024498887,0.00929659597607547
10.890868596881962,0.0005035528640470413
10.924276169265035,-0.0062740389736307845
10.957683741648108,-0.008052550309361247
10.991091314031182,-0.004349231844261977
11.024498886414255,0.002860907563047403
11.057906458797328,0.010198386275574022
11.091314031180403,0.014430651075700109
11.124721603563476,0.013867926511268941
11.158129175946549,0.009070604683121647
11.191536748329623,0.002631920904758038
11.224944320712696,-0.0018520162684821633
11.25835189309577,-0.0012259384781784185
11.291759465478844,0.005909633907293171
11.325167037861917,0.018511104130744027
11.35857461024499,0.03330549994681169
11.391982182628064,0.04584031780259718
11.425389755011137,0.05198105301566326
11.45879732739421,0.04929708171675866
11.492204899777285,0.037836479332973606
11.525612472160358,0.020051162904935145
11.55902004454343,-2.955028215927375e-05
11.592427616926505,-0.01801925899806514
11.625835189309578,-0.030350479097339313
11.659242761692651,-0.03507131863822501
11.692650334075726,-0.032130155444310714
11.726057906458799,-0.023200763617282027
11.759465478841872,-0.011191054376698963
11.792873051224946,0.00042468384810578756
11.82628062360802,0.008348428805430994
11.859688195991092,0.010186614370649499
11.893095768374167,0.00504548226764119
11.92650334075724,-0.0061594656212497325
11.959910913140313,-0.020819647025294964
11.993318485523387,-0.03522404305552887
12.02672605790646,-0.045521809423365804
12.060133630289533,-0.04880069815007895
12.093541202672608,-0.04394175036195114
12.12694877505568,-0.03195030476562632
12.160356347438753,-0.015629175497374772
12.193763919821828,0.0013043165922882417
12.227171492204901,0.015345967964429469
12.260579064587974,0.024174202012601256
12.293986636971049,0.027130119381976656
12.327394209354122,0.025084110007670364
12.360801781737194,0.019820180734133008
12.39420935412027,0.013258817977506892
12.427616926503342,0.006874642660540403
12.461024498886415,0.0015267223279127283
12.49443207126949,-0.0023249332947146263
12.527839643652563,-0.004263226716866381
12.561247216035635,-0.003733570850418684
12.59465478841871,-0.00022388336540270782
12.628062360801783,0.0062713983729708375
12.661469933184856,0.014812718603367725
12.69487750556793,0.023460064397300074
12.728285077951004,0.029770233403345288
12.761692650334076,0.03168934032530882
12.795100222717151,0.02841661823371136
12.828507795100224,0.020782752215524173
12.861915367483297,0.010920354287220267
12.895322939866372,0.0013735512137402468
12.928730512249444,-0.005916734571092336
12.962138084632517,-0.010268088930897904
12.995545657015592,-0.012278480103114891
13.028953229398665,-0.013274800798356303
13.062360801781738,-0.014517890990349079
13.095768374164813,-0.016567791177352804
13.129175946547885,-0.019081767334897387
13.162583518930958,-0.02107851666295034
13.195991091314033,-0.02148694594308101
13.229398663697106,-0.0196989321608707
13.262806236080179,-0.015880031347988568
13.296213808463254,-0.010918099033484563
13.329621380846326,-0.0060445910624369265
13.3630289532294,-0.002293842455963802
13.396436525612474,-3.50770369699745e-05
13.429844097995547,0.0012045003736926615
13.46325167037862,0.0025167781114718043
13.496659242761694,0.005056639818412248
13.530066815144767,0.009390784815760967
13.56347438752784,0.015067867192275364
13.596881959910915,0.020652338461736197
13.630289532293988,0.024253864794338796
13.66369710467706,0.02433432248602266
13.697104677060135,0.02041756191455784
13.730512249443208,0.013355174472672622
13.763919821826281,0.005008400832048435
13.797327394209356,-0.002511264112845344
13.830734966592429,-0.007686178155600023
13.864142538975502,-0.010127233254567738
13.897550111358576,-0.01056217806890022
13.93095768374165,-0.010313074304200162
13.964365256124722,-0.010548299442951157
13.997772828507797,-0.011694610396563313
14.03118040089087,-0.013293783784327043
14.064587973273943,-0.014341054199630249
14.097995545657017,-0.013885450383333036
14.13140311804009,-0.011549577735794006
14.164810690423163,-0.007703726800182301
14.198218262806238,-0.0032489352974685846
14.23162583518931,0.0008171206318568871
14.265033407572384,0.003790092083613356
14.298440979955458,0.005422089712143217
14.331848552338531,0.005845380048105247
14.365256124721604,0.005385203300790541
14.398663697104679,0.0044199377240394236
14.432071269487752,0.003365164554263719
14.465478841870825,0.002734072633553887
14.4988864142539,0.0031468342008624628
14.532293986636972,0.005179083779496797
14.565701559020045,0.00904681252503418
14.59910913140312,0.014259985259140713
14.632516703786193,0.01945781641990122
14.665924276169266,0.022606754497563247
14.69933184855234,0.021596688913026404
14.732739420935413,0.01507275399311799
14.766146993318486,0.0031857305732374266
14.79955456570156,-0.012082606488018363
14.832962138084634,-0.027234345126955925
14.866369710467707,-0.03818667532607412
14.899777282850781,-0.04154278683471742
14.933184855233854,-0.035764886394720315
14.966592427616927,-0.021814545973549617
15.0,-0.002998772957351762
