Frequency (Hz),Amplitude
0.0,2.347503154138577
0.019801980198019802,2.356878014418332
0.039603960396039604,2.3847450070265133
0.0594059405940594,2.430360907676743
0.07920792079207921,2.492577723579532
0.09900990099009901,2.569955099196981
0.1188118811881188,2.660880566971223
0.13861386138613863,2.763677994204363
0.15841584158415842,2.8766928027107954
0.1782178217821782,2.9983507284203053
0.19801980198019803,3.1271925698573657
0.21782178217821782,3.2618900938118998
0.2376237623762376,3.4012487509756335
0.25742574257425743,3.544202109983563
0.27722772277227725,3.6898017366882385
0.297029702970297,3.8372050860968687
0.31683168316831684,3.9856630325561517
0.33663366336633666,4.1345079786226675
0.3564356435643564,4.283143022288815
0.37623762376237624,4.4310323721315035
0.39603960396039606,4.577693029068221
0.4158415841584158,4.722687660854171
0.43564356435643564,4.865618551793656
0.45544554455445546,5.006122495484341
0.4752475247524752,5.143866499948253
0.495049504950495,5.278544184296918
0.5148514851485149,5.409872759406176
0.5346534653465347,5.537590499256423
0.5544554455445545,5.661454623196428
0.5742574257425742,5.781239521731384
0.594059405940594,5.896735269267941
0.613861386138614,6.007746376553342
0.6336633663366337,6.114090743427569
0.6534653465346534,6.21559877912163
0.6732673267326733,6.312112662851759
0.6930693069306931,6.403485722043777
0.7128712871287128,6.4895819093234355
0.7326732673267327,6.570275362558141
0.7524752475247525,6.645450034846409
0.7722772277227723,6.71499938351719
0.7920792079207921,6.7788261090020745
0.8118811881188118,6.836841935943645
0.8316831683168316,6.888967430158416
0.8514851485148516,6.935131846126172
0.8712871287128713,6.975273000566723
0.891089108910891,7.009337168420327
0.9108910891089109,7.037278998193584
0.9306930693069307,7.059061444191291
0.9504950495049505,7.0746557136414365
0.9702970297029703,7.084041227152467
0.99009900990099,7.087205591330396
1.00990099009901,7.084144582739945
1.0297029702970297,7.0748621427284375
1.0495049504950495,7.059370382952869
1.0693069306930694,7.037689601768124
1.0891089108910892,7.00984831195579
1.108910891089109,6.975883280607713
1.1287128712871286,6.935839582334901
1.1485148514851484,6.889770667360931
1.1683168316831685,6.837738446490443
1.188118811881188,6.779813395430458
1.2079207920792079,6.716074681500514
1.227722772277228,6.6466103164128
1.2475247524752475,6.571517339559074
1.2673267326732673,6.4909020371298585
1.2871287128712872,6.404880203444475
1.3069306930693068,6.313577452126034
1.3267326732673268,6.217129586255087
1.3465346534653466,6.115683038436756
1.3663366336633662,6.009395393882118
1.3861386138613863,5.898436012215785
1.405940594059406,5.78298676687174
1.4257425742574257,5.663242924742727
1.4455445544554455,5.5394141933343555
1.4653465346534653,5.4117259681956424
1.4851485148514851,5.28042082001662
1.504950495049505,5.145760268673494
1.5247524752475248,5.008026900818259
1.5445544554455446,4.867526898459739
1.5643564356435644,4.724593058352458
1.5841584158415842,4.579588395651848
1.6039603960396038,4.432910439533079
1.6237623762376237,4.284996341883914
1.6435643564356437,4.1363289300976405
1.6633663366336633,3.9874438367017597
1.683168316831683,3.838937824145468
1.7029702970297032,3.691478379736605
1.7227722772277227,3.545814563594283
1.7425742574257426,3.4027889221179524
1.7623762376237624,3.263349989924228
1.782178217821782,3.1285644428752715
1.801980198019802,2.9996272796790966
1.8217821782178218,2.877867466683376
1.8415841584158414,2.764745318151213
1.8613861386138615,2.66183669674905
1.881188118811881,2.5707983649472355
1.900990099009901,2.4933092899106835
1.920792079207921,2.4309854125894272
1.9405940594059405,2.385271072049277
1.9603960396039604,2.357318485288532
1.98019801980198,2.3478749507589787
2.0,2.3572015421595087
2.01980198019802,2.385043191168537
2.0396039603960396,2.430658013708179
2.0594059405940595,2.492898171536309
2.0792079207920793,2.5703224537634153
2.099009900990099,2.661316808920934
2.118811881188119,2.764203093628729
2.1386138613861387,2.8773245522504673
2.1584158415841586,2.9991047659358667
2.1782178217821784,3.1280825183947036
2.1980198019801978,3.262927760044603
2.217821782178218,3.4024443410290215
2.237623762376238,3.545564437565426
2.257425742574257,3.691338410470692
2.2772277227722775,3.838922671233769
2.297029702970297,3.9875671859198203
2.3168316831683167,4.136603559797601
2.336633663366337,4.285434183406905
2.3564356435643563,4.433522629871862
2.376237623762376,4.580385321964641
2.3960396039603964,4.725584394688315
2.4158415841584158,4.8687216354337215
2.4356435643564356,5.009433369123758
2.455445544554456,5.147386157337817
2.4752475247524752,5.282273190256017
2.495049504950495,5.413811263643709
2.514851485148515,5.541738247324728
2.5346534653465347,5.665810965234575
2.5544554455445545,5.785803419521141
2.5742574257425743,5.901505302019638
2.594059405940594,6.012720745755004
2.6138613861386135,6.119267277023776
2.633663366336634,6.22097493523587
2.6534653465346536,6.317685533223719
2.673267326732673,6.409252035319714
2.6930693069306932,6.495538034310697
2.712871287128713,6.5764173115334215
2.7326732673267324,6.651773466990081
2.7524752475247527,6.721499608531749
2.7722772277227725,6.785498090961391
2.792079207920792,6.843680297410282
2.811881188118812,6.895966456598462
2.8316831683168315,6.942285490644688
2.8514851485148514,6.982574888981405
2.8712871287128716,7.016780604686349
2.891089108910891,7.04485697018901
2.910891089108911,7.066766629868706
2.9306930693069306,7.082480487548814
2.9504950495049505,7.091977667323657
2.9702970297029703,7.095245486543489
2.99009900990099,7.092279440139471
3.00990099009901,7.083083195805978
3.0297029702970297,7.0676685998787825
3.0495049504950495,7.046055694065757
3.0693069306930694,7.018272743508157
3.089108910891089,6.984356276985668
3.108910891089109,6.944351140434736
3.128712871287129,6.898310565338647
3.148514851485148,6.846296253979419
3.1683168316831685,6.78837848402906
3.1881188118811883,6.724636235516106
3.2079207920792077,6.65515734384979
3.227722772277228,6.580038683339521
3.2475247524752473,6.499386386537496
3.267326732673267,6.41331610578678
3.2871287128712874,6.321953324613543
3.3069306930693068,6.225433728104781
3.3267326732673266,6.123903643216483
3.346534653465347,6.017520562127196
3.366336633663366,5.906453764368536
3.386138613861386,5.790885056622098
3.4059405940594063,5.671009652884755
3.4257425742574257,5.547037222304921
3.4455445544554455,5.419193137530788
3.4653465346534653,5.287719963057004
3.485148514851485,5.152879230980564
3.504950495049505,5.014953560942087
3.5247524752475248,4.8742491919443305
3.5445544554455446,4.7310990061998
3.564356435643564,4.585866138924796
3.5841584158415842,4.438948282402384
3.603960396039604,4.290782806274657
3.6237623762376234,4.141852826236531
3.6435643564356437,3.9926943553974574
3.6633663366336635,3.8439046586454975
3.683168316831683,3.696151887585009
3.702970297029703,3.5501859821015076
3.722772277227723,3.4068506547549093
3.7425742574257423,3.267095984791
3.762376237623762,3.1319906874654144
3.7821782178217824,3.0027324366703727
3.801980198019802,2.8806536703361707
3.8217821782178216,2.767219135443844
3.841584158415842,2.664010225926277
3.8613861386138613,2.5726903921384374
3.881188118811881,2.4949463533188188
3.9009900990099013,2.4324025480459572
3.9207920792079207,2.386511966471166
3.9405940594059405,2.3584347915018458
3.96039603960396,2.348924652050829
3.98019801980198,2.3582464830727363
4.0,2.3861461318681316
4.01980198019802,2.4318797062939437
4.03960396039604,2.4942949273860036
4.0594059405940595,2.5719444937498888
4.079207920792079,2.6632074581327716
4.099009900990099,2.7663986973462293
4.118811881188119,2.8798548981123946
4.138613861386139,3.001993790864292
4.158415841584159,3.1313491226270864
4.178217821782178,3.2665866096660885
4.198019801980198,3.4065065931514478
4.217821782178218,3.5500383605453365
4.237623762376238,3.696229895301946
4.257425742574258,3.84423564286195
4.2772277227722775,3.993303928529684
4.297029702970297,4.142764971197057
4.316831683168317,4.292019972560682
4.336633663366336,4.440531469689354
4.356435643564357,4.587814967311263
4.376237623762377,4.733431773602778
4.3960396039603955,4.876982919827327
4.415841584158416,5.0181040298381925
4.435643564356436,5.156461007322845
4.455445544554455,5.291746418754806
4.475247524752476,5.423676463598418
4.4950495049504955,5.551988437695769
4.514851485148514,5.676438609530179
4.534653465346535,5.796800441531004
4.554455445544555,5.912863099515059
4.574257425742574,6.024430202741481
4.594059405940594,6.1313187749973155
4.613861386138614,6.233358363790348
4.633663366336633,6.330390300277584
4.653465346534653,6.422267077168573
4.673267326732674,6.5088518256651255
4.693069306930693,6.590017875664457
4.712871287128713,6.665648386075691
4.732673267326733,6.735636034275616
4.752475247524752,6.799882755536893
4.772277227722772,6.858299524769014
4.792079207920793,6.9108061741710225
4.811881188118812,6.957331241452642
4.8316831683168315,6.9978118441719905
4.851485148514852,7.032193576495656
4.871287128712871,7.060430425334463
4.891089108910891,7.082484703367733
4.910891089108912,7.098326996957287
4.930693069306931,7.107936127385067
4.9504950495049505,7.11129912423719
4.97029702970297,7.108411210114984
4.99009900990099,7.099275796188326
5.00990099009901,7.083904488428794
5.02970297029703,7.062317104678374
5.0495049504950495,7.034541703031166
5.069306930693069,7.0006146223409615
5.089108910891089,6.960580536024413
5.108910891089109,6.9144925207189205
5.128712871287129,6.862412141786341
5.148514851485149,6.804409558142334
5.1683168316831685,6.740563649449932
5.188118811881188,6.670962169363909
5.207920792079208,6.595701929269437
5.227722772277227,6.514889017850611
5.247524752475248,6.428639062881891
5.267326732673268,6.33707754289518
5.2871287128712865,6.240340157883133
5.306930693069307,6.138573270008655
5.326732673267327,6.031934427469616
5.346534653465346,5.920592987295137
5.366336633663367,5.804730856022706
5.3861386138613865,5.684543371038482
5.405940594059405,5.560240349989809
5.425742574257426,5.43204734125434
5.445544554455446,5.300207115143752
5.465346534653465,5.164981443510445
5.485148514851486,5.026653224879162
5.504950495049505,4.885529023260629
5.524752475247524,4.741942101424771
5.544554455445545,4.596256043390925
5.564356435643565,4.44886907558339
5.584158415841584,4.300219210113002
5.603960396039604,4.15079034434167
5.623762376237624,4.00111945358849
5.643564356435643,3.8518050006337483
5.663366336633663,3.7035166437243188
5.683168316831684,3.5570062340345645
5.702970297029703,3.413119924135573
5.7227722772277225,3.272810919207027
5.742574257425743,3.1371519394147516
5.762376237623762,3.007345768634091
5.782178217821782,2.8847313052453756
5.801980198019803,2.7707813395655005
5.821782178217822,2.6670870519257712
5.841584158415841,2.575323418761368
5.861386138613861,2.497190141654934
5.881188118811881,2.4343254227486124
5.900990099009901,2.3881956826600446
5.920792079207921,2.359972737738033
5.9405940594059405,2.350418508742461
5.96039603960396,2.3598016561270994
5.98019801980198,2.3878666598541014
6.0,2.433863510071748
6.01980198019802,2.496630143129106
6.03960396039604,2.5747072763340877
6.0594059405940595,2.6664612411936215
6.079207920792079,2.7701946090610305
6.099009900990099,2.884232918072857
6.118811881188119,3.0069842609662243
6.138613861386139,3.1369743242214936
6.158415841584159,3.2728622306046464
6.178217821782178,3.4134429993009117
6.198019801980198,3.557641647548245
6.217821782178218,3.704502731255603
6.237623762376237,3.8531779287937726
6.257425742574258,4.002913308336428
6.2772277227722775,4.153037221446138
6.297029702970296,4.3029492986223215
6.316831683168317,4.452110729996337
6.336633663366337,4.600035843082052
6.356435643564356,4.746284897508878
6.376237623762377,4.890457973933901
6.396039603960396,5.032189820655797
6.415841584158415,5.171145523881083
6.435643564356436,5.3070168781390015
6.455445544554456,5.439519347279161
6.475247524752475,5.568389521145673
6.495049504950495,5.6933829869962755
6.514851485148515,5.814272547362082
6.534653465346534,5.930846727092748
6.554455445544554,6.042908521800945
6.574257425742575,6.150274347926159
6.594059405940594,6.252773161346251
6.6138613861386135,6.350245717053375
6.633663366336634,6.44254394704916
6.653465346534653,6.529530437456546
6.673267326732673,6.611077989026967
6.693069306930694,6.687069247855627
6.712871287128713,6.757396395302223
6.732673267326732,6.821960887928955
6.752475247524753,6.880673239778843
6.772277227722772,6.933452840580772
6.792079207920792,6.980227804527598
6.811881188118813,7.020934845167584
6.8316831683168315,7.055519172708974
6.851485148514851,7.08393441068585
6.871287128712871,7.106142529494625
6.891089108910891,7.122113794798986
6.910891089108911,7.1318267292351285
6.930693069306931,7.135268086238103
6.9504950495049505,7.132432835168444
6.97029702970297,7.123324157253469
6.99009900990099,7.107953452180347
7.00990099009901,7.086340355496193
7.02970297029703,7.058512767293309
7.0495049504950495,7.02450689299302
7.069306930693069,6.98436729739931
7.089108910891089,6.938146973583554
7.108910891089109,6.885907428594631
7.128712871287128,6.827718788478493
7.148514851485149,6.763659925651729
7.1683168316831685,6.693818612323543
7.188118811881187,6.618291704420126
7.207920792079208,6.537185361361032
7.227722772277228,6.450615308098715
7.247524752475247,6.358707147098358
7.267326732673268,6.261596729450187
7.287128712871287,6.159430596126343
7.306930693069306,6.052366502586397
7.326732673267327,5.940574042580962
7.346534653465347,5.824235390199089
7.366336633663366,5.7035461830693235
7.3861386138613865,5.57871657429322
7.405940594059406,5.449972486320847
7.425742574257425,5.317557106746393
7.445544554455446,5.181732674092738
7.465346534653466,5.042782611241611
7.485148514851485,4.901014075381165
7.504950495049505,4.756761006203624
7.524752475247524,4.610387768384763
7.544554455445544,4.462293499488848
7.564356435643565,4.312917289002814
7.584158415841584,4.162744325598121
7.603960396039604,4.012313153284201
7.623762376237624,3.862224164928964
7.643564356435643,3.7131494207540148
7.663366336633663,3.5658437896107125
7.683168316831684,3.4211572418092855
7.702970297029703,3.2800478313993446
7.7227722772277225,3.1435944385632464
7.742574257425743,3.013007640505244
7.762376237623762,2.8896361026444444
7.782178217821782,2.774964662615176
7.801980198019803,2.670599009236319
7.821782178217822,2.578231006714308
7.841584158415841,2.4995791102756626
7.861386138613862,2.436301044948665
7.881188118811881,2.3898817990644363
7.900990099009901,2.3615086174264346
7.92079207920792,2.351953496897656
7.9405940594059405,2.3614881827146608
7.96039603960396,2.389852716816616
7.980198019801979,2.4362858967056447
8.0,2.4996095208132356
8.01980198019802,2.578345503918048
8.03960396039604,2.6708408630232703
8.05940594059406,2.7753799695168277
8.07920792079208,2.890272248815117
8.099009900990099,3.0139121637251045
8.118811881188119,3.1448142413513676
8.138613861386139,3.2816286694533097
8.158415841584159,3.423143410865306
8.178217821782178,3.568277945794717
8.198019801980198,3.7160724852375835
8.217821782178218,3.865675278324987
8.237623762376238,4.0163296568785825
8.257425742574258,4.167361755018504
8.277227722772277,4.318169371760874
8.297029702970297,4.468212151655473
8.316831683168317,4.617003088062903
8.336633663366337,4.764101262917845
8.356435643564357,4.909105695341223
8.376237623762377,5.0516501588892115
8.396039603960396,5.191398830556382
8.415841584158416,5.328042645906889
8.435643564356436,5.461296249189077
8.455445544554456,5.590895442360031
8.475247524752476,5.716595051226754
8.495049504950495,5.838167139765365
8.514851485148515,5.9553995148956345
8.534653465346535,6.0680944735805165
8.554455445544555,6.176067752217145
8.574257425742575,6.279147645060288
8.594059405940595,6.377174264056583
8.613861386138613,6.469998917142217
8.633663366336634,6.557483585925553
8.653465346534654,6.639500486877257
8.673267326732672,6.7159317027989305
8.693069306930694,6.786668873536809
8.712871287128714,6.8516129367291
8.732673267326732,6.910673910893184
8.752475247524753,6.963770714426152
8.772277227722773,7.0108310151557465
8.792079207920791,7.051791105974876
8.811881188118813,7.086595802854481
8.831683168316832,7.115198362178869
8.85148514851485,7.137560414910305
8.871287128712872,7.153651915578662
8.891089108910892,7.163451104526383
8.91089108910891,7.1669444822290265
8.930693069306932,7.164126794869967
8.950495049504951,7.155001030683581
8.97029702970297,7.139578426904348
8.990099009900991,7.117878487478233
9.00990099009901,7.089929012015282
9.029702970297029,7.055766136799218
9.04950495049505,7.015434389027756
9.06930693069307,6.968986755848537
9.089108910891088,6.916484770190107
9.10891089108911,6.857998615878379
9.12871287128713,6.793607255091829
9.148514851485148,6.7233985818615585
9.16831683168317,6.647469606084922
9.188118811881187,6.5659266734224335
9.207920792079207,6.478885727515
9.227722772277229,6.386472622232968
9.247524752475247,6.288823493193909
9.267326732673267,6.186085199620581
9.287128712871288,6.078415849820899
9.306930693069306,5.96598542624215
9.326732673267326,5.848976529280805
9.346534653465348,5.727585262937794
9.366336633663366,5.602022290136035
9.386138613861386,5.472514091226753
9.405940594059407,5.339304466084304
9.425742574257425,5.202656328420238
9.445544554455445,5.062853850723608
9.465346534653467,4.920205029700736
9.485148514851485,4.775044755283936
9.504950495049505,4.627738481022106
9.524752475247526,4.478686609362634
9.544554455445544,4.3283297206515785
9.564356435643564,4.177154787036775
9.584158415841586,4.025702517206258
9.603960396039604,3.874575967081008
9.623762376237623,3.724450512160056
9.643564356435645,3.5760851886249174
9.663366336633663,3.430335241608326
9.683168316831683,3.2881654264055524
9.702970297029704,3.150663135274573
9.722772277227723,3.0190497070080795
9.742574257425742,2.894687275286677
9.762376237623764,2.7790772525752008
9.782178217821782,2.673845220265455
9.801980198019802,2.5807060818952388
9.821782178217823,2.501403691909541
9.841584158415841,2.437621929559909
9.861386138613861,2.390870228241616
9.881188118811881,2.3623555113161165
9.900990099009901,2.3528616704663543
9.92079207920792,2.3626624408446655
9.94059405940594,2.3914894469671824
9.96039603960396,2.43856398790267
9.98019801980198,2.5026840060559157
10.0,2.5823444783550817
10.01980198019802,2.6758653862261794
10.03960396039604,2.781506133689603
10.05940594059406,2.897554460973357
10.07920792079208,3.0223868359372656
10.099009900990099,3.154503343393989
10.118811881188119,3.2925428496255664
10.138613861386139,3.435284577012861
10.158415841584159,3.58164131244299
10.178217821782178,3.73064814950387
10.198019801980198,3.8814494070387435
10.217821782178218,4.033285366642174
10.237623762376238,4.185479756885775
10.257425742574258,4.337428439244464
10.277227722772277,4.488589458160155
10.297029702970297,4.638474448948996
10.316831683168317,4.786641308580011
10.336633663366337,4.932687994824577
10.356435643564357,5.076247308355888
10.376237623762377,5.216982517029092
10.396039603960396,5.354583693847158
10.415841584158416,5.4887646553668255
10.435643564356436,5.619260402939549
10.455445544554454,5.745824983881122
10.475247524752476,5.868229702824582
10.495049504950495,5.986261624949242
10.514851485148514,6.099722322532667
10.534653465346535,6.208426824486406
10.554455445544555,6.312202735395631
10.574257425742573,6.4108894962817775
10.594059405940595,6.5043377640259585
10.613861386138614,6.592408890292393
10.633663366336632,6.6749744840152045
10.653465346534654,6.751916044177743
10.673267326732674,6.823124651820961
10.693069306930692,6.888500712048712
10.712871287128714,6.947953738321606
10.732673267326733,7.0014021726030435
10.752475247524751,7.0487732359878
10.772277227722773,7.090002805342306
10.792079207920793,7.125035312248479
10.81188118811881,7.153823661194242
10.831683168316832,7.176329164516425
10.851485148514852,7.192521492092285
