Time (s),Filtered Signal
0.0,0.004309995538795116
0.03337000366703337,0.4003998284038877
0.06674000733406674,0.705552590672785
0.1001100110011001,0.8600137780505379
0.13348001466813347,0.8534056863252182
0.16685001833516683,0.7227924654986386
0.2002200220022002,0.5327181510433517
0.2335900256692336,0.3471864155678894
0.26696002933626695,0.20640526458770517
0.3003300330033003,0.11778265479055972
0.33370003667033366,0.06301778046835076
0.36707004033736707,0.015218370097024193
0.4004400440044004,-0.04412979474244019
0.4338100476714338,-0.11690935043465595
0.4671800513384672,-0.19143857702914727
0.5005500550055005,-0.252878288419864
0.5339200586725339,-0.29357902732528657
0.5672900623395672,-0.31727548782803555
0.6006600660066006,-0.3356329352069315
0.634030069673634,-0.36031536099961053
0.6674000733406673,-0.395702367482885
0.7007700770077008,-0.43600681798737556
0.7341400806747341,-0.467410978215138
0.7675100843417675,-0.4732607509367709
0.8008800880088008,-0.4396753084867937
0.8342500916758342,-0.3598200390674361
0.8676200953428675,-0.23625663360158672
0.9009900990099009,-0.08124364183791691
0.9343601026769344,0.08529556903705827
0.9677301063439677,0.2403514023659395
1.001100110011001,0.36426136456510455
1.0344701136780343,0.44690105465394137
1.0678401173450678,0.4907487997263332
1.1012101210121013,0.508763241002662
1.1345801246791345,0.5174056548441054
1.167950128346168,0.5278578901139582
1.2013201320132012,0.5398371132129801
1.2346901356802347,0.5413872178262462
1.268060139347268,0.5150382565166955
1.3014301430143014,0.4473658795225889
1.3348001466813346,0.33708238476610886
1.368170150348368,0.19738218209568228
1.4015401540154016,0.05108344744999918
1.4349101576824348,-0.07921503317424522
1.4682801613494683,-0.18102352908136876
1.5016501650165015,-0.2566443513916892
1.535020168683535,-0.3198542124463952
1.5683901723505682,-0.38599390886498725
1.6017601760176017,-0.46070276093170803
1.6351301796846351,-0.5337889219149741
1.6685001833516684,-0.5823857178129678
1.7018701870187019,-0.5825703186641179
1.735240190685735,-0.5236398193386723
1.7686101943527686,-0.41713688354327116
1.8019801980198018,-0.2949334084971862
1.8353502016868353,-0.19625826801209634
1.8687202053538687,-0.14955881130538998
1.902090209020902,-0.15820398598718022
1.9354602126879354,-0.1974575866398881
1.9688302163549687,-0.22461901798122322
2.002200220022002,-0.19766206251394927
2.0355702236890356,-0.09356876083402534
2.0689402273560686,0.08203733501778118
2.102310231023102,0.2977901879417694
2.1356802346901356,0.5097088320053772
2.169050238357169,0.6777987588314978
2.2024202420242025,0.7786711812197564
2.2357902456912355,0.8096074463478578
2.269160249358269,0.783965466940083
2.3025302530253025,0.7214827583307651
2.335900256692336,0.6384449181456763
2.369270260359369,0.5418269479150052
2.4026402640264024,0.42925965714904374
2.436010267693436,0.29408681417317617
2.4693802713604693,0.13270460190503297
2.502750275027503,-0.04957574245483734
2.536120278694536,-0.23731912974074665
2.5694902823615693,-0.4094626216853676
2.6028602860286028,-0.5475969851190893
2.636230289695636,-0.6437195733829897
2.6696002933626692,-0.7028572340108734
2.7029702970297027,-0.738405282025886
2.736340300696736,-0.7622046028771146
2.7697103043637696,-0.7749237885471385
2.803080308030803,-0.7628596447614695
2.836450311697836,-0.7040579738728129
2.8698203153648696,-0.5812692583542176
2.903190319031903,-0.3948371399059157
2.9365603226989365,-0.16798571732432313
2.96993032636597,0.059225357180027985
3.003300330033003,0.24483582033743465
3.0366703337000365,0.3614259185031099
3.07004033736707,0.4058864244890836
3.1034103410341034,0.39809161122715553
3.1367803447011364,0.37000378369603665
3.17015034836817,0.35136412237347847
3.2035203520352034,0.35894963820327336
3.236890355702237,0.39342128726257053
3.2702603593692703,0.44329579766418664
3.3036303630363033,0.49233278165325656
3.3370003667033368,0.5261479005971595
3.3703703703703702,0.5356617055423439
3.4037403740374037,0.5173669360686246
3.4371103777044367,0.4718486757171266
3.47048038137147,0.40212975718135036
3.5038503850385037,0.3127603410387935
3.537220388705537,0.20977758301812155
3.5705903923725706,0.10101553047252038
3.6039603960396036,-0.004179377660132648
3.637330399706637,-0.09675194848831313
3.6707004033736705,-0.1713997872760257
3.704070407040704,-0.23037207384833933
3.7374404107077375,-0.2850135906531032
3.7708104143747705,-0.35261335721614395
3.804180418041804,-0.44827871397491165
3.8375504217088374,-0.5748642542931158
3.870920425375871,-0.7163627981184647
3.904290429042904,-0.8396330253063513
3.9376604327099374,-0.9055273685620965
3.971030436376971,-0.8852041690777552
4.004400440044004,-0.7737429103845216
4.037770443711038,-0.5936208287248681
4.071140447378071,-0.385400578935815
4.104510451045105,-0.18974836994135497
4.137880454712137,-0.029860074106695483
4.171250458379171,0.09651155421966887
4.204620462046204,0.21132442249555108
4.237990465713238,0.34025959271504697
4.271360469380271,0.4955805496350272
4.304730473047305,0.6673173159077929
4.338100476714338,0.8271400242532744
4.3714704803813715,0.9418521178064698
4.404840484048405,0.9882398761468272
4.438210487715438,0.9610785685402985
4.471580491382471,0.8709976534273502
4.5049504950495045,0.735236661172319
4.538320498716538,0.568066343353196
4.571690502383571,0.37680989487046357
4.605060506050605,0.1650619094525338
4.638430509717638,-0.060038671853819205
4.671800513384672,-0.2819139435843909
4.705170517051705,-0.4743842423890749
4.738540520718738,-0.6082736582641762
4.771910524385771,-0.662257527526703
4.805280528052805,-0.6331946379846406
4.838650531719838,-0.5409498387911089
4.872020535386872,-0.4244348511880185
4.905390539053905,-0.3288545864605222
4.938760542720939,-0.28810120570702263
4.972130546387972,-0.30943005655062283
5.005500550055006,-0.36813202686673285
5.038870553722038,-0.41663434921697945
5.072240557389072,-0.4059305837617538
5.105610561056105,-0.31035760323458383
5.138980564723139,-0.14345971557919965
5.172350568390172,0.04436080994025365
5.2057205720572055,0.18718424851846138
5.239090575724239,0.23468146676976176
5.272460579391272,0.17775498292654995
5.305830583058306,0.05521240947708981
5.3392005867253385,-0.06288325127138218
5.372570590392372,-0.10757414692124698
5.405940594059405,-0.043150756525901564
5.439310597726439,0.11683870320558953
5.472680601393472,0.3172143852908868
5.506050605060506,0.48775177783513207
5.539420608727539,0.5747742681536142
5.572790612394573,0.5622394887249286
5.606160616061606,0.47332857271184897
5.63953061972864,0.3540881400080569
5.672900623395672,0.24934010791928257
5.706270627062706,0.18353914475174157
5.739640630729739,0.15496567957314134
5.773010634396773,0.143668156044561
5.806380638063806,0.1265226224420172
5.83975064173084,0.09019725176505418
5.873120645397873,0.035473474528439145
5.9064906490649065,-0.027769458024017236
5.93986065273194,-0.09010300056078284
5.9732306563989725,-0.14974845206237228
6.006600660066006,-0.21280771096111056
6.0399706637330395,-0.2868550894058335
6.073340667400073,-0.3726459697985784
6.106710671067106,-0.45981710483870775
6.14008067473414,-0.5296516541795993
6.173450678401173,-0.5632186175527815
6.206820682068207,-0.5497070915645254
6.24019068573524,-0.4898820319516157
6.273560689402273,-0.393119573882461
6.306930693069306,-0.2709321740087754
6.34030069673634,-0.13217418948328188
6.373670700403373,0.016373268042466537
6.407040704070407,0.16466402824606147
6.44041070773744,0.29417635815413024
6.473780711404474,0.3788260586317482
6.507150715071507,0.3947005403452232
6.540520718738541,0.33515295727719524
6.573890722405573,0.22253838711610446
6.607260726072607,0.10734900283992503
6.64063072973964,0.05106340426168966
6.6740007334066735,0.09822898380387153
6.707370737073707,0.25094794902380185
6.7407407407407405,0.4600567903666219
6.774110744407774,0.6402763788228328
6.807480748074807,0.7045997011998317
6.840850751741841,0.6025934263887286
6.8742207554088735,0.3442245639684166
6.907590759075907,-0.0025999534735327797
6.94096076274294,-0.3397039155433041
6.974330766409974,-0.5781912941671742
7.007700770077007,-0.6714332223594732
7.041070773744041,-0.6274214509999341
7.074440777411074,-0.49732227538927154
7.107810781078108,-0.34833663540966137
7.141180784745141,-0.23493180569473995
7.174550788412174,-0.18095673252274047
7.207920792079207,-0.17802237674136098
7.241290795746241,-0.19724200216821558
7.274660799413274,-0.20620994624584804
7.308030803080308,-0.1828360407675581
7.341400806747341,-0.12132153193223605
7.3747708104143745,-0.030334617218561687
7.408140814081408,0.07336227361934677
7.4415108177484415,0.1720163550461099
7.474880821415475,0.25223506897952946
7.5082508250825075,0.30782193157619137
7.541620828749541,0.34035624950631277
7.5749908324165744,0.35792669651228737
7.608360836083608,0.3722047355275087
7.641730839750641,0.394031321930283
7.675100843417675,0.42817941030291745
7.708470847084708,0.4688192505570752
7.741840850751742,0.4979360653562456
7.775210854418775,0.4887865338524258
7.808580858085808,0.41488524478512556
7.841950861752841,0.2622213453985638
7.875320865419875,0.03970638000354496
7.908690869086908,-0.21792307447842207
7.942060872753942,-0.4581750867843422
7.975430876420975,-0.6282949182303043
8.008800880088009,-0.6953705202162319
8.042170883755041,-0.6597690422766679
8.075540887422076,-0.5548834023673225
8.108910891089108,-0.43251901331285036
8.142280894756142,-0.3404919828898166
8.175650898423175,-0.3031188464030658
8.20902090209021,-0.3138383292624045
8.242390905757242,-0.342924868028477
8.275760909424275,-0.3555472225253495
8.309130913091309,-0.3303990564216051
8.342500916758341,-0.2693000432944692
8.375870920425376,-0.19325530276497435
8.409240924092408,-0.12772341190261172
8.442610927759443,-0.08554519790313213
8.475980931426475,-0.057219596809657595
8.50935093509351,-0.01429735545242172
8.542720938760542,0.07544650390166754
8.576090942427575,0.22897363968268303
8.60946094609461,0.43540906052347345
8.642830949761642,0.6570593712689518
8.676200953428676,0.84395902943761
8.709570957095709,0.9546599189484191
8.742940960762743,0.9727381127469896
8.776310964429776,0.9109520925613679
8.80968096809681,0.8016174981701885
8.843050971763843,0.6788008611600569
8.876420975430875,0.5616672061016806
8.90979097909791,0.44712482013750887
8.943160982764942,0.3148644905207159
8.976530986431976,0.14178971346261848
9.009900990099009,-0.08143786859283926
9.043270993766043,-0.3397780841707475
9.076640997433076,-0.5943769937088369
9.11001100110011,-0.7945947006981147
9.143381004767143,-0.8967008353034791
9.176751008434175,-0.8813928775323898
9.21012101210121,-0.762585773085911
9.243491015768242,-0.5834929380032327
9.276861019435277,-0.40136830265555157
9.31023102310231,-0.26707594944781016
9.343601026769344,-0.20777756513640508
9.376971030436376,-0.2195582447682759
9.41034103410341,-0.2724667290382887
9.443711037770443,-0.32522342594920256
9.477081041437476,-0.343040357185848
9.51045104510451,-0.31111293166191384
9.543821048771543,-0.2385192598551898
9.577191052438577,-0.15139286759058215
9.61056105610561,-0.07862229588668072
9.643931059772644,-0.036384529165745194
9.677301063439677,-0.018479086477621115
9.710671067106711,0.0026474124774825084
9.744041070773743,0.06361395481217443
9.777411074440776,0.19112239640129713
9.81078107810781,0.3846710225040385
9.844151081774843,0.609760512606908
9.877521085441877,0.8064761513351584
9.91089108910891,0.9113481000308832
9.944261092775944,0.8835720239934403
9.977631096442977,0.7236968427042908
10.011001100110011,0.4757226908830608
10.044371103777044,0.21107143304213477
10.077741107444076,0.0013101587063848435
10.11111111111111,-0.1084920053805698
10.144481114778143,-0.11468134922552346
10.177851118445178,-0.052889158003499984
10.21122112211221,0.018947609299936764
10.244591125779245,0.04455065642273125
10.277961129446277,-0.009333059921922045
10.311331133113312,-0.14159525710641133
10.344701136780344,-0.318479926102399
10.378071140447377,-0.48665794336508894
10.411441144114411,-0.5924569651009431
10.444811147781444,-0.6004888056320723
10.478181151448478,-0.5055133900432109
10.51155115511551,-0.33381176579146615
10.544921158782545,-0.1338404540969021
10.578291162449577,0.04054924538696191
10.611661166116612,0.14855077517230064
10.645031169783644,0.17601073221128577
10.678401173450677,0.13915015271717424
10.711771177117711,0.07674876640642848
10.745141180784744,0.03358463574743523
10.778511184451778,0.04171807018863511
10.81188118811881,0.10750009036226749
10.845251191785845,0.20995108850726582
10.878621195452878,0.31106364520484175
10.911991199119912,0.37298044062127494
10.945361202786945,0.3737934845298214
10.978731206453979,0.31469704662123155
11.012101210121012,0.21590324311761816
11.045471213788044,0.10450752016217627
11.078841217455079,0.0012235579476905512
11.112211221122111,-0.08726616695252609
11.145581224789145,-0.1672658085472221
11.178951228456178,-0.2501319038998257
11.212321232123212,-0.34262018153775314
11.245691235790245,-0.4408958989236952
11.27906123945728,-0.5309100858240451
11.312431243124312,-0.5941123403976488
11.345801246791344,-0.6148994932260741
11.379171250458379,-0.5860334839209027
11.412541254125411,-0.5101344009482648
11.445911257792446,-0.39772995165642305
11.479281261459478,-0.2636874980292809
11.512651265126513,-0.12365464401252003
11.546021268793545,0.008946338451711569
11.57939127246058,0.1256173320865623
11.612761276127612,0.22518339769617488
11.646131279794645,0.31487349310521545
11.67950128346168,0.40835083688201407
11.712871287128712,0.5196795896046957
11.746241290795746,0.6544911151947711
11.779611294462779,0.802185258697073
11.812981298129813,0.9339371856738149
11.846351301796846,1.0093810431491244
11.87972130546388,0.9906755886663743
11.913091309130913,0.8584075566153305
11.946461312797945,0.6219958789536979
11.97983131646498,0.3192508949133872
12.013201320132012,0.004720622329377634
12.046571323799046,-0.2681678062347985
12.079941327466079,-0.4633243252814787
12.113311331133113,-0.5699597010064179
12.146681334800146,-0.6001875111923255
12.18005133846718,-0.579246892236484
12.213421342134213,-0.5341577144816542
12.246791345801245,-0.48591811920215544
12.28016134946828,-0.44711066148389034
12.313531353135312,-0.4233914187408863
12.346901356802347,-0.4158736376181718
12.38027136046938,-0.422313175001595
12.413641364136414,-0.43701631900762106
12.447011367803446,-0.45077942985578834
12.48038137147048,-0.4520448418484752
12.513751375137513,-0.42928881208038583
12.547121378804546,-0.3736648073736539
12.58049138247158,-0.2809503188680099
12.613861386138613,-0.15264851049786277
12.647231389805647,0.0033413306727854528
12.68060139347268,0.17249453306118023
12.713971397139714,0.33490460819968193
12.747341400806746,0.46933085054561696
12.78071140447378,0.5599570871577193
12.814081408140813,0.6031672939891976
12.847451411807846,0.6099197908765267
12.88082141547488,0.6004818367250541
12.914191419141913,0.5925069993942241
12.947561422808947,0.5883666029072553
12.98093142647598,0.5698213130876549
13.014301430143014,0.5053288907176144
13.047671433810047,0.36834833788682353
13.081041437477081,0.15768534195636977
13.114411441144114,-0.09211458926765617
13.147781444811146,-0.318463250629327
13.18115144847818,-0.4553223426944442
13.214521452145213,-0.46371719239577414
13.247891455812248,-0.35274583675942195
13.28126145947928,-0.17947579409194836
13.314631463146315,-0.02641797517938492
13.348001466813347,0.03344428677009916
13.381371470480381,-0.03220014220423602
13.414741474147414,-0.20205709594639126
13.448111477814447,-0.41198772492012525
13.481481481481481,-0.583683189394151
13.514851485148514,-0.6574495848429043
13.548221488815548,-0.6142230886240934
13.58159149248258,-0.47793638810710226
13.614961496149615,-0.299140612500628
13.648331499816647,-0.1294337614339083
13.681701503483682,0.0003108811878473432
13.715071507150714,0.08799015896716504
13.748441510817747,0.15232767540750705
13.781811514484781,0.21493112432629674
13.815181518151814,0.28311836507964633
13.848551521818848,0.3433756048597289
13.88192152548588,0.3692996163030571
13.915291529152915,0.3397937484314663
13.948661532819948,0.2572412266226191
13.982031536486982,0.1546151295111878
14.015401540154015,0.0857040323928281
14.048771543821047,0.10143132467919161
14.082141547488082,0.22315037083084763
14.115511551155114,0.42652082951833936
14.148881554822148,0.6453431929538794
14.182251558489181,0.7953800578391834
14.215621562156215,0.8083184443207819
14.248991565823248,0.6606334523090501
14.282361569490282,0.3840299222414413
14.315731573157315,0.052565355129634214
14.349101576824348,-0.24756536297626927
14.382471580491382,-0.4516176572650966
14.415841584158414,-0.5381682841959583
14.449211587825449,-0.530440370395225
14.482581591492481,-0.4785957139282136
14.515951595159516,-0.4335055137959543
14.549321598826548,-0.4255541637077606
14.582691602493583,-0.4578470091059143
14.616061606160615,-0.5144619805625499
14.649431609827648,-0.5761373324371205
14.682801613494682,-0.6325582842255524
14.716171617161715,-0.6837414375619776
14.749541620828749,-0.7306837739698657
14.782911624495782,-0.7627572209215226
14.816281628162816,-0.7518680966695809
14.849651631829849,-0.6595729195529061
14.883021635496883,-0.4553371719870304
14.916391639163916,-0.1366760449112233
14.94976164283095,0.26043569495898805
14.983131646497982,0.6681084694184825
15.016501650165015,1.008439219502612
15.04987165383205,1.220899571099391
15.083241657499082,1.2823504485006454
15.116611661166116,1.210773233796363
15.149981664833149,1.052326284898362
15.183351668500183,0.8595153575690123
15.216721672167216,0.6716621354584678
15.25009167583425,0.5060619435324477
15.283461679501283,0.36144968023620094
15.316831683168315,0.2288339260300744
15.35020168683535,0.10196442424904832
15.383571690502382,-0.018352182302637184
15.416941694169417,-0.12698744281384816
15.45031169783645,-0.2205792047505766
15.483681701503484,-0.30163100394912795
15.517051705170516,-0.37725433510148043
15.55042170883755,-0.4532477716809839
15.583791712504583,-0.5276741454273757
15.617161716171616,-0.5887609947245132
15.65053171983865,-0.6193929650768931
15.683901723505683,-0.6062980747094486
15.717271727172717,-0.548871197913491
15.75064173083975,-0.4623950287035325
15.784011734506784,-0.3733158203089137
15.817381738173816,-0.30847065973358656
15.85075174184085,-0.28332017673684035
15.884121745507883,-0.2946682057294643
15.917491749174916,-0.3210456350456334
15.95086175284195,-0.33036772401458964
15.984231756508983,-0.2915601832256417
16.017601760176017,-0.18578635257180526
16.05097176384305,-0.013639778203545382
16.084341767510082,0.2037043090492217
16.117711771177117,0.4296935759303235
16.15108177484415,0.6227331442451406
16.184451778511182,0.7488742195487106
16.217821782178216,0.7927051850885377
16.25119178584525,0.7619601954996692
16.284561789512285,0.6830683170021371
16.317931793179316,0.5886444646512098
16.35130179684635,0.5022009306868088
16.384671800513384,0.4275961799458352
16.41804180418042,0.3490807477537502
16.45141180784745,0.24256577910587915
16.484781811514484,0.09255904257074855
16.51815181518152,-0.09439753022821783
16.55152181884855,-0.28769108242272934
16.584891822515583,-0.44411264284837765
16.618261826182618,-0.5275769955763544
16.651631829849652,-0.5269013179302975
16.685001833516683,-0.4619528197320972
16.718371837183717,-0.37446402539669954
16.75174184085075,-0.3081443786040838
16.785111844517782,-0.28861529392742924
16.818481848184817,-0.3136135596480065
16.85185185185185,-0.35784608483853925
16.885221855518886,-0.3885253667997486
16.918591859185916,-0.3820523380149346
16.95196186285295,-0.3327738803024996
16.985331866519985,-0.2505735329852511
17.01870187018702,-0.1512321264858754
17.05207187385405,-0.04732727616119406
17.085441877521085,0.0543402451182783
17.11881188118812,0.14859886032380704
17.15218188485515,0.22635090764373114
17.185551888522184,0.27414238163179216
17.21892189218922,0.2813914738320643
17.252291895856253,0.25139521676305376
17.285661899523284,0.2080105075069933
