Frequency (Hz),Amplitude
0.0,0.7668664224919373
0.019867549668874173,0.7679527544929685
0.039735099337748346,0.7711983378999208
0.059602649006622516,0.7765635108511459
0.07947019867549669,0.7839840302739692
0.09933774834437085,0.793373663917183
0.11920529801324503,0.8046274597472821
0.13907284768211922,0.8176254084003391
0.15894039735099338,0.8322362182002376
0.17880794701986755,0.8483209597002658
0.1986754966887417,0.8657363949625069
0.2185430463576159,0.8843378722902288
0.23841059602649006,0.9039817287643583
0.2582781456953642,0.9245271936161019
0.27814569536423844,0.9458378221755703
0.2980132450331126,0.9677825130223784
0.31788079470198677,0.9902361721210595
0.33774834437086093,1.0130800900607917
0.3576158940397351,1.0362020949657142
0.3774834437086093,1.0594965366940976
0.3973509933774834,1.0828641494939584
0.4172185430463576,1.106211831619277
0.4370860927152318,1.129452372322117
0.45695364238410596,1.1525041495298414
0.4768211920529801,1.1752908155431812
0.49668874172185434,1.1977409832387245
0.5165562913907285,1.2197879214279457
0.5364238410596026,1.2413692650737411
0.5562913907284769,1.2624267438439265
0.5761589403973509,1.282905930847765
0.5960264900662252,1.3027560122298318
0.6158940397350993,1.3219295774798567
0.6357615894039735,1.3403824297702782
0.6556291390728477,1.3580734152866836
0.6754966887417219,1.3749642703155005
0.695364238410596,1.3910194847570936
0.7152317880794702,1.4062061807096713
0.7350993377483444,1.420494004796603
0.7549668874172186,1.4338550329692845
0.7748344370860927,1.446263686598299
0.7947019867549668,1.4576966587569242
0.8145695364238411,1.4681328496984922
0.8344370860927152,1.4775533106266694
0.8543046357615894,1.4859411949548658
0.8741721854304636,1.4932817163436345
0.8940397350993378,1.4995621128943406
0.9139072847682119,1.5047716169614662
0.9337748344370861,1.5089014301259744
0.9536423841059603,1.5119447029472608
0.9735099337748344,1.5138965191829665
0.9933774834437087,1.514753884233729
1.0132450331125828,1.514515717635465
1.033112582781457,1.5131828494845865
1.0529801324503312,1.5107580207434679
1.0728476821192052,1.5072458874341348
1.0927152317880795,1.502653028788956
1.1125827814569538,1.4969879594884843
1.1324503311258278,1.4902611461789956
1.1523178807947019,1.4824850285267173
1.1721854304635762,1.4736740451324497
1.1920529801324504,1.4638446646999326
1.2119205298013245,1.4530154229240118
1.2317880794701985,1.4412069656412143
1.2516556291390728,1.4284420988647555
1.271523178807947,1.4147458464086997
1.2913907284768211,1.4001455158911569
1.3112582781456954,1.3846707739911466
1.3311258278145695,1.368353731918056
1.3509933774834437,1.3512290421299635
1.370860927152318,1.3333340074045894
1.390728476821192,1.314708703414647
1.410596026490066,1.2953961159787104
1.4304635761589404,1.2754422941337056
1.4503311258278146,1.254896520086718
1.4701986754966887,1.2338114969253104
1.4900662251655628,1.2122435546628232
1.5099337748344372,1.1902528747230412
1.5298013245033113,1.1679037322706094
1.5496688741721854,1.1452647547982242
1.5695364238410596,1.122409194002448
1.5894039735099337,1.0994152061137674
1.609271523178808,1.076366133377797
1.6291390728476822,1.0533507761889298
1.6490066225165563,1.0304636413380173
1.6688741721854303,1.0078051468617981
1.6887417218543048,0.9854817580495756
1.7086092715231789,0.9636060223654295
1.728476821192053,0.9422964636686193
1.7483443708609272,0.9216772887309723
1.7682119205298013,0.9018778526134463
1.7880794701986755,0.8830318254003499
1.8079470198675496,0.8652760030273424
1.8278145695364238,0.8487487118183122
1.847682119205298,0.8335877723400481
1.8675496688741722,0.8199280153547938
1.8874172185430464,0.8078983818391219
1.9072847682119205,0.797618688879169
1.9271523178807946,0.7891961993030693
1.9470198675496688,0.7827221873093656
1.9668874172185429,0.7782687345002833
1.9867549668874174,0.7758860092920908
2.0066225165562916,0.7756002686562192
2.0264900662251657,0.777412771219195
2.0463576158940397,0.7812997094997338
2.066225165562914,0.7872131689086665
2.086092715231788,0.7950830195690197
2.1059602649006623,0.8048195619113577
2.1258278145695364,0.8163166918188662
2.1456953642384105,0.8294553317093504
2.165562913907285,0.8441068881365389
2.185430463576159,0.8601365359286747
2.205298013245033,0.8774061823348184
2.2251655629139075,0.8957770212195459
2.2450331125827816,0.9151116386567117
2.2649006622516556,0.9352756723429834
2.2847682119205297,0.9561390562939093
2.3046357615894038,0.9775768998730773
2.324503311258278,0.9994700582848354
2.3443708609271523,1.0217054526977773
2.364238410596027,1.0441761945570764
2.384105960264901,1.066781562397545
2.403973509933775,1.0894268720957374
2.423841059602649,1.1120232740233467
2.443708609271523,1.1344875036108257
2.463576158940397,1.156741605721056
2.4834437086092715,1.1787126480870078
2.5033112582781456,1.2003324348710906
2.52317880794702,1.2215372280744936
2.543046357615894,1.2422674819453519
2.562913907284768,1.262467593579923
2.5827814569536423,1.2820856714627735
2.6026490066225163,1.3010733226436844
2.622516556291391,1.319385458511886
2.642384105960265,1.3369801186273822
2.662251655629139,1.353818311745612
2.6821192052980134,1.369863872979262
2.7019867549668874,1.385083335942824
2.7218543046357615,1.3994458186944962
2.741721854304636,1.4129229223055317
2.76158940397351,1.4254886409335863
2.781456953642384,1.4371192823426466
2.801324503311258,1.4477933978905952
2.821192052980132,1.4574917210890492
2.8410596026490067,1.4661971139263454
2.8609271523178808,1.4738945202302012
2.8807947019867552,1.4805709254297206
2.9006622516556293,1.4862153221566055
2.9205298013245033,1.490818681201777
2.9403973509933774,1.4943739274164576
2.9602649006622515,1.496875920215532
2.9801324503311255,1.4983214384066488
3.0,1.4987091691312506
3.0198675496688745,1.4980397007637503
3.0397350993377485,1.4963155196731734
3.0596026490066226,1.4935410108081504
3.0794701986754967,1.4897224621219314
3.0993377483443707,1.484868072908942
3.119205298013245,1.478987966179668
3.1390728476821192,1.4720942052560029
3.1589403973509933,1.464200814825277
3.1788079470198674,1.4553238067478713
3.198675496688742,1.4454812109716382
3.218543046357616,1.4346931119644712
3.23841059602649,1.4229816911357431
3.2582781456953644,1.4103712757756282
3.2781456953642385,1.396888395098732
3.2980132450331126,1.3825618440314678
3.3178807947019866,1.3674227554301568
3.3377483443708607,1.3515046814540639
3.3576158940397347,1.3348436848390495
3.3774834437086096,1.3174784408172941
3.3973509933774837,1.29945035039565
3.4172185430463577,1.2808036656279573
3.437086092715232,1.261585627378516
3.456953642384106,1.2418466158537143
3.47682119205298,1.2216403138499756
3.4966887417218544,1.2010238821952872
3.5165562913907285,1.180058146207344
3.5364238410596025,1.1588077911055918
3.556291390728477,1.1373415631375923
3.576158940397351,1.115732471650204
3.596026490066225,1.0940579853818253
3.615894039735099,1.0724002138083515
3.6357615894039736,1.0508460613870874
3.6556291390728477,1.0294873389841925
3.6754966887417218,1.0084208126694247
3.695364238410596,0.9877481655292158
3.7152317880794703,0.967575843427648
3.7350993377483444,0.9480147511525883
3.754966887417219,0.9291797617658297
3.774834437086093,0.9111890001371918
3.794701986754967,0.8941628627482838
3.814569536423841,0.8782227412575433
3.834437086092715,0.8634894284049388
3.854304635761589,0.850081202708558
3.8741721854304636,0.8381116134803186
3.8940397350993377,0.8276870191898135
3.9139072847682117,0.8189039677283737
3.9337748344370858,0.8118465424365133
3.9536423841059607,0.8065838270649556
3.9735099337748347,0.8031676596694288
3.993377483443709,0.8016308440959434
4.013245033112583,0.801985964982456
4.033112582781457,0.8042249087665975
4.052980132450331,0.8083191341319507
4.072847682119205,0.8142206693595537
4.0927152317880795,0.8218637515716777
4.112582781456953,0.8311669734174555
4.132450331125828,0.842035772834141
4.152317880794702,0.8543650933083036
4.172185430463576,0.8680420535360018
4.19205298013245,0.8829484914697682
4.211920529801325,0.8989632820194043
4.231788079470199,0.9159643639522965
4.251655629139073,0.9338304449725856
4.271523178807947,0.952442381508655
4.291390728476821,0.9716842501193718
4.311258278145695,0.9914441407167425
4.33112582781457,1.011614708936448
4.3509933774834435,1.0320935273109915
4.370860927152318,1.0527832738189211
4.390728476821192,1.0735917931514227
4.410596026490066,1.0944320616597694
4.43046357615894,1.1152220821600896
4.450331125827815,1.13588473006744
4.470198675496689,1.1563475680067106
4.490066225165563,1.1765426422523757
4.509933774834438,1.1964062711346448
4.529801324503311,1.2158788329012462
4.549668874172186,1.2349045583952172
4.569536423841059,1.2534313322319115
4.589403973509934,1.2714105048638176
4.6092715231788075,1.2887967169416386
4.629139072847682,1.305547736652918
4.649006622516556,1.3216243101927794
4.66887417218543,1.336990025150942
4.688741721854305,1.3516111863481326
4.708609271523179,1.3654567034946867
4.728476821192054,1.3784979899514909
4.748344370860927,1.3907088718298577
4.768211920529802,1.4020655066591237
4.788079470198675,1.4125463108685459
4.80794701986755,1.4221318953636561
4.827814569536423,1.4308050085235784
4.847682119205298,1.4385504859978226
4.867549668874172,1.4453552067375295
4.887417218543046,1.451208054753718
4.9072847682119205,1.4560998861534262
4.927152317880794,1.4600235010610583
4.947019867549669,1.4629736200883499
4.966887417218543,1.4649468650696933
4.986754966887418,1.4659417438314184
5.006622516556291,1.465958638813544
5.026490066225166,1.464999799410179
5.04635761589404,1.4630693379412356
5.066225165562914,1.4601732292125693
5.086092715231788,1.456319313664768
5.105960264900662,1.4515173041526754
5.125827814569536,1.4457787964381377
5.14569536423841,1.4391172835174366
5.1655629139072845,1.4315481739423122
5.185430463576159,1.4230888143290803
5.205298013245033,1.4137585162828792
5.225165562913908,1.4035785879941962
5.245033112582782,1.392572370789155
5.264900662251656,1.3807652809342068
5.28476821192053,1.3681848570060084
5.304635761589404,1.3548608131360997
5.324503311258278,1.3408250984241556
5.344370860927152,1.3261119627774307
5.364238410596027,1.3107580293720231
5.3841059602649,1.2948023738362553
5.403973509933775,1.2782866101174053
5.4238410596026485,1.2612549828000712
5.443708609271523,1.2437544653819035
5.463576158940397,1.2258348636653327
5.483443708609272,1.2075489229713516
5.503311258278146,1.188952437302964
5.52317880794702,1.1701043578557926
5.543046357615895,1.1510668973692033
5.562913907284768,1.1319056257060178
5.582781456953643,1.1126895507264383
5.602649006622516,1.0934911769684448
5.622516556291391,1.0743865328705986
5.642384105960264,1.0554551553018983
5.662251655629139,1.0367800180661455
5.682119205298013,1.0184473889412813
5.701986754966887,1.0005465978811068
5.7218543046357615,0.9831696975092031
5.741721854304636,0.9664109963229888
5.7615894039735105,0.95036644553265
5.781456953642384,0.9351328626835804
5.801324503311259,0.9208069796634206
5.821192052980132,0.9074843098204837
5.841059602649007,0.8952578389789407
5.860927152317881,0.884216558057806
5.880794701986755,0.8744438702401635
5.900662251655629,0.866015922064926
5.920529801324503,0.858999923690112
5.940397350993377,0.8534525366858075
5.960264900662251,0.8494184156496165
5.980132450331126,0.846928990548546
6.0,0.8460015686064885
6.0198675496688745,0.8466388176385932
6.039735099337749,0.8488286683187172
6.059602649006623,0.8525446436719036
6.079470198675497,0.8577465937624542
6.099337748344371,0.8643817859821853
6.119205298013245,0.872386279876808
6.139072847682119,0.8816865022653173
6.158940397350993,0.8922009342234442
6.178807947019867,0.903841825614652
6.198675496688741,0.9165168634870141
6.218543046357616,0.9301307354714217
6.23841059602649,0.9445865459164002
6.258278145695365,0.9597870588138675
6.2781456953642385,0.9756357561042543
6.298013245033113,0.9920377118142447
6.317880794701987,1.00890029134703
6.337748344370861,1.0261336912070156
6.357615894039735,1.0436513378620242
6.377483443708609,1.0613701658234473
6.397350993377484,1.0792107948832443
6.417218543046357,1.0970976252710722
6.437086092715232,1.114958867692211
6.456953642384105,1.1327265230944674
6.47682119205298,1.1503363248210037
6.496688741721854,1.1677276536901993
6.516556291390729,1.1848434345989791
6.5364238410596025,1.201630021521249
6.556291390728477,1.2180370762861419
6.5761589403973515,1.2340174452679105
6.596026490066225,1.2495270370842146
6.6158940397351,1.26452470355927
6.635761589403973,1.2789721255370634
6.655629139072848,1.2928337046018068
6.675496688741721,1.306076461354529
6.695364238410596,1.3186699405837898
6.715231788079469,1.3305861234371428
6.735099337748344,1.3417993465312599
6.754966887417219,1.3522862278202643
6.774834437086093,1.3620255989618304
6.794701986754967,1.3709984438709195
6.814569536423841,1.3791878431240423
6.8344370860927155,1.3865789238671817
6.854304635761589,1.3931588148832885
6.874172185430464,1.3989166064875693
6.894039735099337,1.4038433149370066
6.913907284768212,1.4079318510640082
6.933774834437086,1.4111769928693048
6.95364238410596,1.4135753618370477
6.973509933774834,1.415125402762762
6.993377483443709,1.4158273669130312
7.013245033112583,1.4156832983630272
7.033112582781457,1.4146970233846006
7.052980132450331,1.412874142782419
7.072847682119205,1.4102220270991632
7.0927152317880795,1.4067498146318138
7.112582781456954,1.4024684122198385
7.132450331125828,1.3973904987819812
7.152317880794702,1.3915305315906932
7.172185430463576,1.3849047552814973
7.19205298013245,1.3775312135979945
7.211920529801324,1.369429763870859
7.231788079470198,1.3606220942191387
7.251655629139073,1.3511317434443548
7.271523178807947,1.3409841235587405
7.291390728476822,1.3302065448479985
7.311258278145695,1.3188282433122258
7.33112582781457,1.3068804102540437
7.3509933774834435,1.2943962236868125
7.370860927152318,1.2814108811135174
7.390728476821192,1.2679616330753847
7.410596026490066,1.254087816681945
7.430463576158941,1.2398308881078188
7.450331125827814,1.22523445276917
7.470198675496689,1.210344291570922
7.490066225165562,1.1952083812396017
7.509933774834438,1.1798769063238639
7.52980132450331,1.164402259955292
7.549668874172186,1.1488390299196054
7.569536423841059,1.1332439660017897
7.589403973509934,1.1176759239551222
7.6092715231788075,1.1021957808284515
7.629139072847682,1.0868663158065717
7.649006622516557,1.0717520502273714
7.66887417218543,1.0569190401025896
7.6887417218543055,1.0424346143712255
7.708609271523178,1.0283670523533681
7.728476821192054,1.0147851945555382
7.748344370860927,1.0017579822182683
7.768211920529802,0.989353922892217
7.788079470198675,0.9776404819535691
7.80794701986755,0.9666834033462097
7.827814569536423,0.9565459669178502
7.847682119205298,0.9472881943541811
7.8675496688741715,0.9389660206547209
7.887417218543046,0.9316304529666001
7.907284768211921,0.9253267429333351
7.927152317880795,0.9200936020022257
7.9470198675496695,0.9159624908490905
7.966887417218543,0.9129570137921542
7.986754966887418,0.9110924465112528
8.006622516556291,0.9103754205406355
8.026490066225167,0.9108037811117559
8.046357615894038,0.9123666265087861
8.066225165562914,0.9150445278988942
8.086092715231787,0.9188099194628037
8.105960264900663,0.9236276404224447
8.125827814569536,0.9294556039576966
8.14569536423841,0.936245563514246
8.165562913907285,0.9439439448464545
8.185430463576159,0.9524927122507935
8.205298013245034,0.9618302395330741
8.225165562913906,0.9718921598598687
8.245033112582782,0.9826121732403126
8.264900662251655,0.9939227954402579
8.28476821192053,1.0057560371821381
8.304635761589404,1.0180440071703492
8.324503311258278,1.0307194365571635
8.344370860927151,1.043716125796771
8.364238410596027,1.0569693173868593
8.3841059602649,1.0704159998033222
8.403973509933774,1.0839951490755508
8.42384105960265,1.0976479150356984
8.443708609271523,1.1113177594206278
8.463576158940398,1.1249505528224535
8.483443708609272,1.1384946370716773
8.503311258278146,1.1519008590811604
8.52317880794702,1.165122581545312
8.543046357615895,1.1781156752295894
8.562913907284768,1.1908384969356762
8.582781456953642,1.203251856613596
8.602649006622515,1.2153189765278525
8.62251655629139,1.227005444879312
8.642384105960264,1.238279165839172
8.66225165562914,1.2491103075670829
8.682119205298013,1.259471249456678
8.701986754966887,1.2693365295756256
8.721854304635762,1.2786827930367817
8.741721854304636,1.2874887418481091
8.76158940397351,1.2957350866341075
8.781456953642383,1.3034045004978738
8.801324503311259,1.3104815751935912
8.821192052980132,1.3169527797017795
8.841059602649008,1.3228064212390342
8.86092715231788,1.3280326086881213
8.880794701986755,1.332623218399596
8.90066225165563,1.3365718622906748
8.920529801324504,1.3398738581491108
8.940397350993377,1.3425262020368762
8.960264900662251,1.3445275426802066
8.980132450331126,1.3458781577268562
9.0,1.3465799317478802
9.019867549668875,1.3466363358588345
9.039735099337747,1.3460524088329597
9.059602649006623,1.3448347395766502
9.079470198675496,1.3429914508342136
9.099337748344372,1.3405321839839326
9.119205298013245,1.3374680847810063
9.139072847682119,1.3338117898937476
9.158940397350994,1.3295774140672074
9.178807947019868,1.3247805377332333
9.198675496688743,1.3194381948664105
9.218543046357615,1.3135688608617195
9.23841059602649,1.3071924401812316
9.258278145695364,1.3003302534831707
9.27814569536424,1.293005023907127
9.298013245033111,1.285240862143345
9.317880794701987,1.2770632498617385
9.33774834437086,1.2684990210172673
9.357615894039736,1.2595763404828775
9.37748344370861,1.2503246793890286
9.397350993377483,1.240774786470854
9.417218543046358,1.2309586546414857
9.437086092715232,1.2209094819234851
9.456953642384107,1.210661625783117
9.47682119205298,1.20025054982614
9.496688741721854,1.1897127617336887
9.516556291390728,1.179085741246399
9.536423841059603,1.1684078569511909
9.556291390728477,1.1577182705946225
9.57615894039735,1.147056827647416
9.596026490066224,1.13646393288661
9.6158940397351,1.125980409854129
9.635761589403973,1.1156473432039857
9.655629139072847,1.1055059031750243
9.675496688741722,1.0955971517304304
9.695364238410596,1.0859618302970975
9.715231788079471,1.0766401295191828
9.735099337748345,1.0676714420111848
9.754966887417218,1.0590940997480152
9.774834437086092,1.0509450984487805
9.794701986754967,1.0432598120740761
9.814569536423841,1.0360717013329497
9.834437086092716,1.0294120208445354
9.854304635761588,1.0233095302762514
9.874172185430464,1.0177902153342877
9.894039735099337,1.012877024862831
9.913907284768213,1.008589630469258
9.933774834437086,1.0049442149961243
9.95364238410596,1.0019532957823225
9.973509933774835,0.9996255879903135
9.993377483443709,0.9979659123366635
10.013245033112582,0.9969751503863248
10.033112582781456,0.9966502492114581
10.052980132450331,0.9969842757451353
10.072847682119205,0.9979665196601752
10.09271523178808,0.9995826421583742
10.112582781456952,1.001814866745679
10.132450331125828,1.0046422069629326
10.152317880794701,1.008040725191488
10.172185430463577,1.0119838160893873
10.192052980132452,1.0164425079461263
10.211920529801324,1.021385775261007
10.2317880794702,1.026780856123109
10.251655629139073,1.032593568457745
10.271523178807948,1.0387886198546836
10.29139072847682,1.0453299064547075
10.311258278145695,1.052180797190926
10.331125827814569,1.0593044005129395
10.350993377483444,1.0666638115267115
10.370860927152318,1.074222338229074
10.390728476821192,1.0819437061825175
10.410596026490065,1.089792241549784
10.43046357615894,1.0977330328831088
10.450331125827816,1.1057320724405044
10.470198675496688,1.113756378086715
10.490066225165563,1.1217740970368777
10.509933774834437,1.1297545928286468
10.529801324503312,1.1376685169727252
10.549668874172186,1.14548786674579
10.56953642384106,1.1531860305631119
10.589403973509933,1.1607378223109637
10.609271523178808,1.168119505940205
10.629139072847682,1.1753088115288224
10.649006622516556,1.1822849439194418
10.66887417218543,1.1890285849321427
10.688741721854305,1.1955218900476356
