Time (s),Filtered Signal
0.0,-0.026156384296936445
0.033370165745856356,0.8008468044975137
0.06674033149171271,1.4146160774310033
0.10011049723756907,1.6636265871202625
0.13348066298342542,1.4993910532700863
0.16685082872928178,0.9818568469414224
0.20022099447513814,0.2506198057397004
0.2335911602209945,-0.5243384752896944
0.26696132596685085,-1.1927265714408868
0.30033149171270723,-1.6577871783777935
0.33370165745856356,-1.8859060374255563
0.3670718232044199,-1.894765423164916
0.4004419889502763,-1.7305079771495098
0.43381215469613266,-1.446100717417259
0.467182320441989,-1.0890259170868766
0.5005524861878453,-0.6994437558236257
0.5339226519337017,-0.31402149498274945
0.5672928176795581,0.031362854613229886
0.6006629834254145,0.3044051199928923
0.6340331491712707,0.48419226130452986
0.6674033149171271,0.5694923455250407
0.7007734806629835,0.5818734979568095
0.7341436464088398,0.5602964920616169
0.7675138121546962,0.5480156211422373
0.8008839779005525,0.5765026824913337
0.8342541436464089,0.6529051247426367
0.8676243093922653,0.7565647639632201
0.9009944751381216,0.8467681762168382
0.934364640883978,0.8794066891130121
0.9677348066298344,0.8262848318827382
1.0011049723756906,0.6891111709938669
1.0344751381215471,0.5017449970981825
1.0678453038674034,0.31876928505031593
1.1012154696132597,0.19420955261436532
1.1345856353591162,0.1587519591030464
1.1679558011049724,0.20504384482500343
1.201325966850829,0.2878611087307284
1.2346961325966852,0.3400734361133367
1.2680662983425415,0.2987197156833971
1.301436464088398,0.13086045625802553
1.3348066298342542,-0.15165085953830248
1.3681767955801105,-0.4951209826306277
1.401546961325967,-0.8238213193897423
1.4349171270718233,-1.068173657583728
1.4682872928176796,-1.188883490140816
1.501657458563536,-1.1865222219722018
1.5350276243093923,-1.0932180975556982
1.5683977900552488,-0.9519379908870169
1.601767955801105,-0.7946968085795534
1.6351381215469614,-0.6308016898412119
1.6685082872928179,-0.45013912778177395
1.7018784530386741,-0.238017686689468
1.7352486187845306,0.00805248224738755
1.768618784530387,0.2697185948087337
1.8019889502762432,0.5121489244023834
1.8353591160220997,0.698605420996704
1.868729281767956,0.8067426655546364
1.9020994475138122,0.8375032093560432
1.9354696132596687,0.8119519307916715
1.968839779005525,0.7582520765018246
2.0022099447513813,0.6963581197411436
2.0355801104972375,0.6290000004138829
2.0689502762430942,0.5437486261215967
2.1023204419889505,0.42459350033901294
2.135690607734807,0.266112325596059
2.169060773480663,0.08191689348628843
2.2024309392265193,-0.09771210154994386
2.235801104972376,-0.23814006591356468
2.2691712707182323,-0.3163863025893681
2.3025414364640886,-0.3325011233580679
2.335911602209945,-0.31015909373089656
2.369281767955801,-0.2855358461366364
2.402651933701658,-0.2893017855916285
2.436022099447514,-0.3302286602862253
2.4693922651933704,-0.3887234297207865
2.5027624309392267,-0.42442847825300073
2.536132596685083,-0.3954831252762666
2.5695027624309392,-0.28103933579803336
2.602872928176796,-0.09616697284484305
2.636243093922652,0.10903398397609373
2.6696132596685085,0.26730900050568474
2.7029834254143648,0.3221297697558121
2.736353591160221,0.25322775742245235
2.7697237569060777,0.08773664009438786
2.803093922651934,-0.10893410056605486
2.8364640883977903,-0.25911750550023743
2.8698342541436466,-0.30451570759350644
2.903204419889503,-0.22946741866860887
2.936574585635359,-0.06574417439735236
2.969944751381216,0.12273614987952758
3.003314917127072,0.26782457729715714
3.0366850828729284,0.3248344276174306
3.0700552486187846,0.2878551186011185
3.103425414364641,0.18684933967463893
3.1367955801104976,0.06950232302572637
3.170165745856354,-0.022286756344916947
3.20353591160221,-0.06974771588644618
3.2369060773480665,-0.08113270737312993
3.2702762430939227,-0.08239237974673325
3.3036464088397794,-0.10137180260477453
3.3370165745856357,-0.15430180294490403
3.370386740331492,-0.24033943185521156
3.4037569060773483,-0.3443200654388981
3.4371270718232045,-0.4435414216407826
3.4704972375690613,-0.5138478897161597
3.5038674033149175,-0.5331302861178584
3.537237569060774,-0.48375792373368365
3.57060773480663,-0.3564038949247596
3.6039779005524863,-0.15542199557062492
3.6373480662983426,0.09751074570455705
3.6707182320441993,0.36600619532973405
3.7040883977900556,0.6095467190540896
3.737458563535912,0.7983262376106692
3.770828729281768,0.9244655642490336
3.8041988950276244,1.0022632358585373
3.837569060773481,1.0557785721424962
3.8709392265193374,1.0995787799753691
3.9043093922651937,1.1232718619364135
3.93767955801105,1.0894258459137411
3.9710497237569062,0.9480123559397893
4.0044198895027625,0.6620271479137124
4.037790055248619,0.23277166000063104
4.071160220994475,-0.2876370058456332
4.104530386740332,-0.8042438997741895
4.1379005524861885,-1.2070118974170767
4.171270718232044,-1.4088189071670083
4.204640883977901,-1.378614588501886
4.238011049723757,-1.1552298455664411
4.271381215469614,-0.8345876926906269
4.30475138121547,-0.5343757426983665
4.338121546961326,-0.35049175953348155
4.371491712707183,-0.3235720185124176
4.404861878453039,-0.4293054567016717
4.438232044198895,-0.5951002279306894
4.471602209944752,-0.7336171738406867
4.504972375690608,-0.7768651355562155
4.538342541436465,-0.6962384922149674
4.5717127071823205,-0.5026561393538587
4.605082872928177,-0.2316092767617127
4.638453038674034,0.07552633005551676
4.67182320441989,0.3833439720370744
4.7051933701657465,0.6636679610905227
4.738563535911602,0.890449872242731
4.771933701657459,1.0364607909629762
4.805303867403316,1.0775595543258107
4.8386740331491715,1.0036142347179913
4.872044198895028,0.8289436812653772
4.905414364640884,0.5938554897967306
4.938784530386741,0.3536169901080715
4.972154696132597,0.1590373532491029
5.005524861878453,0.03856040918880674
5.03889502762431,-0.008614777445460232
5.072265193370166,-0.005333130729529069
5.105635359116023,0.019460338720162382
5.1390055248618784,0.04527447150203789
5.172375690607735,0.06498248431582565
5.205745856353592,0.0789274251070972
5.239116022099448,0.08444868873213213
5.272486187845304,0.0698254997074715
5.30585635359116,0.018159936436569952
5.339226519337017,-0.08046753884909953
5.372596685082874,-0.21637911506917215
5.4059668508287295,-0.35625371111856263
5.439337016574586,-0.45228173131611654
5.472707182320442,-0.4616931786753853
5.506077348066299,-0.36754781345775517
5.5394475138121555,-0.19005209730651598
5.572817679558011,0.018298891537113067
5.606187845303868,0.1926949011475574
5.639558011049724,0.28242886366134
5.672928176795581,0.271536267144453
5.706298342541437,0.18387909544902847
5.739668508287293,0.07025989326415792
5.77303867403315,-0.01621024381946253
5.806408839779006,-0.044691339179579515
5.839779005524862,-0.01960962110740875
5.873149171270718,0.023587925618063495
5.906519337016575,0.037161841106800125
5.939889502762432,-0.015167625855227448
5.9732596685082875,-0.14069318488551458
6.006629834254144,-0.31397729275279684
6.04,-0.4874805440714454
6.073370165745857,-0.6105641299354372
6.1067403314917135,-0.6478438483570449
6.140110497237569,-0.5894856507279609
6.173480662983426,-0.4508612550003873
6.206850828729282,-0.26409837565001437
6.240220994475139,-0.06680766736329131
6.273591160220995,0.10726813220681135
6.306961325966851,0.23365097791313097
6.340331491712708,0.29926897185803925
6.373701657458564,0.30308009225701493
6.40707182320442,0.25605236645947466
6.440441988950277,0.17983805996063512
6.473812154696133,0.10286500864796978
6.50718232044199,0.053563581312516505
6.5405524861878455,0.05234186670854232
6.573922651933702,0.10524930466252189
6.607292817679559,0.2019905931427345
6.640662983425415,0.31918195942356414
6.674033149171271,0.42754473227389966
6.707403314917127,0.5003040864219213
6.740773480662984,0.5199896949510213
6.774143646408841,0.4818786330900991
6.8075138121546965,0.3937380355755469
6.840883977900553,0.27262509115528727
6.874254143646409,0.14001946629501225
6.907624309392266,0.01663463909827281
6.9409944751381225,-0.08189468715627345
6.974364640883978,-0.14756509398155987
7.007734806629835,-0.18044679910353986
7.041104972375691,-0.1873299556662735
7.074475138121548,-0.17934674625168817
7.107845303867403,-0.16927748833034004
7.14121546961326,-0.16876183674013823
7.174585635359117,-0.18527943206478256
7.207955801104973,-0.21907550932481126
7.241325966850829,-0.26110939453075205
7.274696132596685,-0.29379369350397383
7.308066298342542,-0.29582496700065547
7.341436464088399,-0.2505454153160645
7.3748066298342545,-0.15487952908984934
7.408176795580111,-0.024483398211755346
7.441546961325967,0.10846552854543809
7.474917127071824,0.20538894618912482
7.5082872928176805,0.2359441425353565
7.541657458563536,0.19094435375286323
7.575027624309393,0.0872903190169429
7.608397790055249,-0.038204516929144075
7.641767955801106,-0.144101507625121
7.675138121546962,-0.20208751063438044
7.708508287292818,-0.20879600164049422
7.741878453038675,-0.18568236286417475
7.775248618784531,-0.16658494404011578
7.808618784530387,-0.17883694441009015
7.841988950276244,-0.2273755732572695
7.8753591160221,-0.2901675452265422
7.908729281767957,-0.32776536990392746
7.9420994475138125,-0.3026141327350733
7.975469613259669,-0.19857415405070414
8.008839779005525,-0.030818892950864162
8.042209944751383,0.1589162323308805
8.075580110497238,0.31936428054879273
8.108950276243094,0.4106776776006398
8.14232044198895,0.4194662108842072
8.175690607734808,0.36159782907634963
8.209060773480664,0.27268593225310533
8.24243093922652,0.19175607226566432
8.275801104972377,0.14588553081058048
8.309171270718233,0.14207734171195016
8.342541436464089,0.16861141432543836
8.375911602209946,0.20380735924983645
8.409281767955802,0.2273928111125725
8.442651933701658,0.22931764301962515
8.476022099447514,0.21262497723659224
8.509392265193371,0.1898934709857682
8.542762430939227,0.1755427820193243
8.576132596685083,0.17784571216997647
8.60950276243094,0.19425426977076807
8.642872928176796,0.2118465883634344
8.676243093922652,0.21228201662208643
8.709613259668508,0.1788051952578411
8.742983425414366,0.10234508147454362
8.776353591160222,-0.015413564025360111
8.809723756906077,-0.16261201800782538
8.843093922651935,-0.3206865648334284
8.87646408839779,-0.4691392075202269
8.909834254143647,-0.5899021239739356
8.943204419889504,-0.670088792413872
8.97657458563536,-0.7028321445307611
9.009944751381216,-0.6868231791970965
9.043314917127072,-0.6255952435181616
9.07668508287293,-0.527278076378742
9.110055248618785,-0.4046702931822315
9.143425414364641,-0.2746528232527385
9.176795580110499,-0.15582872577413395
9.210165745856354,-0.06408749752603966
9.24353591160221,-0.007219541914791791
9.276906077348068,0.01907942192578624
9.310276243093924,0.031365804581722785
9.34364640883978,0.05367671159121045
9.377016574585635,0.10901416563710753
9.410386740331493,0.2102312118138502
9.443756906077349,0.3539775115837736
9.477127071823205,0.5201439040327835
9.510497237569062,0.6770184395444857
9.543867403314918,0.7902927965097435
9.577237569060774,0.832971268757399
9.610607734806631,0.7932529937932882
9.643977900552487,0.6781952587082063
9.677348066298343,0.5120341148586073
9.710718232044199,0.3293296523768212
9.744088397790057,0.1646050833682389
9.777458563535912,0.04156959607094709
9.810828729281768,-0.03430384606725668
9.844198895027626,-0.07677503949946227
9.877569060773482,-0.11249294890157509
9.910939226519337,-0.1692813214405303
9.944309392265193,-0.2634068708338097
9.97767955801105,-0.3909685279423266
10.011049723756907,-0.5272836002717421
10.044419889502763,-0.6351926208589984
10.07779005524862,-0.6795700085472671
10.111160220994476,-0.6423914052940024
10.144530386740332,-0.5318171190252681
10.17790055248619,-0.3806553871216507
10.211270718232045,-0.2338738698139583
10.244640883977901,-0.12986955341990714
10.278011049723757,-0.08364624325735864
10.311381215469615,-0.07998146125048466
10.34475138121547,-0.0806742877331377
10.378121546961326,-0.043533050215428776
10.411491712707184,0.055225160733627966
10.44486187845304,0.2059859856568317
10.478232044198895,0.36630361879598905
10.511602209944753,0.4780787009071423
10.544972375690609,0.4941073231912802
10.578342541436465,0.4014812141464702
10.61171270718232,0.230108775307443
10.645082872928178,0.04149298595491531
10.678453038674034,-0.09745576491127265
10.71182320441989,-0.14332322360912342
10.745193370165747,-0.09415905840717054
10.778563535911603,0.011770187956861524
10.811933701657459,0.11538093922622462
10.845303867403315,0.16468980627596863
10.878674033149172,0.13795470531400456
10.912044198895028,0.05153713136496703
10.945414364640884,-0.0504149522314636
10.978784530386742,-0.11875366603166151
11.012154696132598,-0.12331683174110199
11.045524861878453,-0.06677411687322865
11.078895027624311,0.017782120199034912
11.112265193370167,0.0837416535076218
11.145635359116023,0.09386506991334845
11.179005524861878,0.03814658646405251
11.212375690607736,-0.0615703523441612
11.245745856353592,-0.16188747229330858
11.279116022099448,-0.21766369258927537
11.312486187845305,-0.20177873799200813
11.345856353591161,-0.11581971580140495
11.379226519337017,0.012598313781727162
11.412596685082875,0.14367361847663815
11.44596685082873,0.24310377566013716
11.479337016574586,0.29493041394820835
11.512707182320442,0.3037767739386248
11.5460773480663,0.2863990517851677
11.579447513812156,0.25803354239115106
11.612817679558011,0.2215956191907146
11.646187845303869,0.16601204554063612
11.679558011049725,0.07474489958335286
11.71292817679558,-0.060337180185729485
11.746298342541436,-0.2279260785025811
11.779668508287294,-0.3960706174507219
11.81303867403315,-0.5225374894840344
11.846408839779006,-0.5719857826852963
11.879779005524863,-0.5311836244768342
11.91314917127072,-0.41434737110569986
11.946519337016575,-0.25600699271597355
11.979889502762433,-0.0955364818168642
12.013259668508288,0.0382716017533495
12.046629834254144,0.13485497124846907
12.08,0.19899929795550045
12.113370165745858,0.24086239121134448
12.146740331491714,0.2660234122395236
12.18011049723757,0.2718002889678465
12.213480662983427,0.2514696685432082
12.246850828729283,0.2027380841801529
12.280220994475139,0.1341524856469559
12.313591160220996,0.06461437830697357
12.346961325966852,0.01566955912517562
12.380331491712708,0.0008775290939111185
12.413701657458564,0.01847729827721721
12.447071823204421,0.05170339541289738
12.480441988950277,0.07673049657634608
12.513812154696133,0.07400572177255574
12.54718232044199,0.03705528296014042
12.580552486187846,-0.025517765560863586
12.613922651933702,-0.09534074712640422
12.64729281767956,-0.1536391535305211
12.680662983425416,-0.18966826686462646
12.714033149171271,-0.2041333644673115
12.747403314917127,-0.2063722368868622
12.780773480662985,-0.20725683565258224
12.81414364640884,-0.21173957351259698
12.847513812154697,-0.21492194557154057
12.880883977900554,-0.20364874609290573
12.91425414364641,-0.16291231552626775
12.947624309392266,-0.0840740938619073
12.980994475138122,0.02891746627757076
13.01436464088398,0.15823571145472926
13.047734806629835,0.276641216528064
13.081104972375691,0.35621919857958234
13.114475138121549,0.37824718147966896
13.147845303867404,0.3405283930362164
13.18121546961326,0.2592498307977915
13.214585635359118,0.16424681098903676
13.247955801104974,0.0890062799858703
13.28132596685083,0.05894085450425063
13.314696132596685,0.08238040482348971
13.348066298342543,0.14776677148549303
13.381436464088399,0.22804087745284526
13.414806629834255,0.290351356666401
13.448176795580112,0.3073068195861908
13.481546961325968,0.2657483775185241
13.514917127071824,0.17025632291036008
13.548287292817681,0.04057442218708261
13.581657458563537,-0.09592354867084346
13.615027624309393,-0.2141199933811151
13.648397790055249,-0.2999536868962261
13.681767955801106,-0.35472979339269284
13.715138121546962,-0.39275530404777276
13.748508287292818,-0.43257871269054954
13.781878453038676,-0.4851495666002436
13.815248618784532,-0.5444004241236432
13.848618784530387,-0.5855956917791613
13.881988950276245,-0.5737542941656508
13.9153591160221,-0.4796010871288333
13.948729281767957,-0.2961909107996983
13.982099447513813,-0.04802325025940972
14.01546961325967,0.21278099356808894
14.048839779005526,0.4228862759951165
14.082209944751382,0.5303510815482477
14.11558011049724,0.5138503114717697
14.148950276243095,0.39021899455164644
14.182320441988951,0.20721821114249084
14.215690607734807,0.0249645245633295
14.249060773480664,-0.10579805111867438
14.28243093922652,-0.15961234851956438
14.315801104972376,-0.14069991194609732
14.349171270718234,-0.07558540434725551
14.38254143646409,0.0013576179463239478
14.415911602209945,0.06250735980600355
14.449281767955803,0.09585922990021195
14.482651933701659,0.10562287300492444
14.516022099447515,0.10583924119451069
14.54939226519337,0.11094815154446502
14.582762430939228,0.12787267574968528
14.616132596685084,0.15292173012516558
14.64950276243094,0.17440357318470678
14.682872928176797,0.17930959384545417
14.716243093922653,0.16071859774349598
14.749613259668509,0.12231642994779317
14.782983425414367,0.07774091013613013
14.816353591160222,0.044844813797153195
14.849723756906078,0.037396521219880144
14.883093922651934,0.05806018363756154
14.916464088397792,0.0960254983945986
14.949834254143648,0.13059250640925799
14.983204419889503,0.13937270447996428
15.016574585635361,0.10777915093113279
15.049944751381217,0.03593533820403456
15.083314917127073,-0.059884053278303824
15.116685082872928,-0.1521100211785966
15.150055248618786,-0.21144268224517904
15.183425414364642,-0.2175816252291201
15.216795580110498,-0.16693202774779156
15.250165745856355,-0.07420412867170958
15.283535911602211,0.03263486583103749
15.316906077348067,0.12178489056814275
15.350276243093925,0.1674693492946297
15.38364640883978,0.1565452662826272
15.417016574585636,0.09009461146592938
15.450386740331492,-0.019378455021318818
15.48375690607735,-0.15290201476211746
15.517127071823205,-0.28975371394750354
15.550497237569061,-0.4106783318431185
15.583867403314919,-0.49983039001422624
15.617237569060775,-0.546456505674549
15.65060773480663,-0.5468978686694764
15.683977900552488,-0.506227576922822
15.717348066298344,-0.43783147925820914
15.7507182320442,-0.3595285419369988
15.784088397790056,-0.28659368551219755
15.817458563535913,-0.22436782046057288
15.85082872928177,-0.1644571813001172
15.884198895027625,-0.08760247081399163
15.917569060773483,0.026867792476009258
15.950939226519338,0.18898351762700008
15.984309392265194,0.3897211117217328
16.01767955801105,0.6012965344448952
16.051049723756908,0.7867816358697837
16.084419889502765,0.914364678992222
16.11779005524862,0.9687340590513507
16.151160220994477,0.9536607662061672
16.18453038674033,0.8850592440963612
16.21790055248619,0.7794015033322045
16.251270718232046,0.6448420005861516
16.2846408839779,0.4802812889239786
16.318011049723758,0.2822909472066466
16.351381215469615,0.05473687937912307
16.38475138121547,-0.18574410251828624
16.418121546961327,-0.4125411729217283
16.451491712707185,-0.5989169953864629
16.48486187845304,-0.7290999307659345
16.518232044198896,-0.8038757634421202
16.551602209944754,-0.8371917986886973
16.584972375690608,-0.8456857253455949
16.618342541436466,-0.8373009922420667
16.651712707182323,-0.80576321157532
16.685082872928177,-0.7343737555886891
16.718453038674035,-0.6072504776217492
16.751823204419892,-0.42179992709248804
16.785193370165747,-0.19527219591684114
16.818563535911604,0.03869354317754554
16.851933701657458,0.24220196305668548
16.885303867403316,0.38778674245533484
16.918674033149173,0.4680686746813333
16.952044198895027,0.49556782839004565
16.985414364640885,0.4932964849529816
17.018784530386743,0.48178588331019384
17.052154696132597,0.4699005164349634
17.085524861878454,0.45418948963053574
17.118895027624312,0.4262004096190217
17.152265193370166,0.3823636008801649
17.185635359116024,0.3296339299862105
17.21900552486188,0.28284559592560926
17.252375690607735,0.2549835423290776
17.285745856353593,0.24622341301025644
