Frequency (Hz),Amplitude
0.0,2.9887948538355364
0.019867549668874173,2.9876966714109052
0.039735099337748346,2.984404036416445
0.059602649006622516,2.9789226897107977
0.07947019867549669,2.9712622128567276
0.09933774834437085,2.9614360485445625
0.11920529801324503,2.949461529639076
0.13907284768211922,2.935359917310581
0.15894039735099338,2.9191564488517256
0.17880794701986755,2.90088039592865
0.1986754966887417,2.8805651341709115
0.2185430463576159,2.8582482251684267
0.23841059602649006,2.833971512118062
0.2582781456953642,2.8077812305459924
0.27814569536423844,2.7797281357250863
0.2980132450331126,2.7498676486077884
0.31788079470198677,2.7182600223002895
0.33774834437086093,2.6849705313094487
0.3576158940397351,2.6500696859909545
0.3774834437086093,2.6136334748046988
0.3973509933774834,2.5757436371228866
0.4172185430463576,2.536487969415379
0.4370860927152318,2.4959606676200163
0.45695364238410596,2.4542627083480206
0.4768211920529801,2.4115022712127674
0.49668874172185434,2.367795203922719
0.5165562913907285,2.3232655307358647
0.5364238410596026,2.2780460032953584
0.5562913907284769,2.2322786905757988
0.5761589403973509,2.1861156014500023
0.5960264900662252,2.139719328975559
0.6158940397350993,2.0932636996017275
0.6357615894039735,2.0469344027893537
0.6556291390728477,2.000929566713524
0.6754966887417219,1.9554602335442839
0.695364238410596,1.9107506732134534
0.7152317880794702,1.867038457832515
0.7350993377483444,1.8245742008080468
0.7549668874172186,1.7836208467663794
0.7748344370860927,1.744452383257317
0.7947019867549668,1.7073518367413136
0.8145695364238411,1.6726084187734127
0.8344370860927152,1.6405137097706075
0.8543046357615894,1.6113568135535583
0.8741721854304636,1.5854184906726747
0.8940397350993378,1.5629643830770732
0.9139072847682119,1.5442375710376708
0.9337748344370861,1.5294508407948502
0.9536423841059603,1.5187791648583673
0.9735099337748344,1.5123529774335795
0.9933774834437087,1.510252837579437
1.0132450331125828,1.5125059952481446
1.033112582781457,1.5190852115350484
1.0529801324503312,1.5299099571135832
1.0728476821192052,1.5448498622564757
1.0927152317880795,1.5637300650279515
1.1125827814569538,1.5863379413242045
1.1324503311258278,1.612430624019991
1.1523178807947019,1.6417427295150213
1.1721854304635762,1.67399379112104
1.1920529801324504,1.708895022429099
1.2119205298013245,1.7461551712832144
1.2317880794701985,1.785485353055446
1.2516556291390728,1.826602856087938
1.271523178807947,1.869233986607044
1.2913907284768211,1.9131160659001452
1.3112582781456954,1.9579987137844528
1.3311258278145695,2.0036445556582687
1.3509933774834437,2.049829481884557
1.370860927152318,2.0963425730932377
1.390728476821192,2.142985787067756
1.410596026490066,2.1895734847961092
1.4304635761589404,2.235931856565457
1.4503311258278146,2.2818982944346833
1.4701986754966887,2.32732074528477
1.4900662251655628,2.3720570688574165
1.5099337748344372,2.4159744175130586
1.5298013245033113,2.4589486485623953
1.5496688741721854,2.5008637756325465
1.5695364238410596,2.5416114623214443
1.5894039735099337,2.5810905591138167
1.609271523178808,2.61920668296005
1.6291390728476822,2.6558718378809165
1.6490066225165563,2.691004074315943
1.6688741721854303,2.724527184573236
1.6887417218543048,2.756370431581939
1.7086092715231789,2.786468308131923
1.728476821192053,2.8147603238640833
1.7483443708609272,2.8411908174143137
1.7682119205298013,2.865708791290854
1.7880794701986755,2.8882677672615773
1.8079470198675496,2.908825660232606
1.8278145695364238,2.9273446688048295
1.847682119205298,2.9437911808953943
1.8675496688741722,2.958135693003903
1.8874172185430464,2.9703527418864324
1.9072847682119205,2.9804208475740617
1.9271523178807946,2.988322466836616
1.9470198675496688,2.99404395634734
1.9668874172185429,2.9975755449512786
1.9867549668874174,2.9989113145809165
2.0066225165562916,2.9980491894973316
2.0264900662251657,2.994990933666866
2.0463576158940397,2.9897421562118924
2.066225165562914,2.9823123250027006
2.086092715231788,2.972714788585769
2.1059602649006623,2.960966806775006
2.1258278145695364,2.9470895903666214
2.1456953642384105,2.9311083505781577
2.165562913907285,2.9130523589573705
2.185430463576159,2.892955018660433
2.205298013245033,2.8708539481598705
2.2251655629139075,2.8467910786133093
2.2450331125827816,2.820812766302924
2.2649006622516556,2.792969921742921
2.2847682119205297,2.763318157245618
2.3046357615894038,2.731917954932935
2.324503311258278,2.698834857373686
2.3443708609271523,2.6641396832092554
2.364238410596027,2.627908770289185
2.384105960264901,2.590224248955503
2.403973509933775,2.551174348165516
2.423841059602649,2.5108537370930466
2.443708609271523,2.469363904650242
2.463576158940397,2.42681357896394
2.4834437086092715,2.383319188138589
2.5033112582781456,2.3390053625342717
2.52317880794702,2.2940054771449048
2.543046357615894,2.248462230305026
2.562913907284768,2.2025282516717284
2.5827814569536423,2.15636672797121
2.6026490066225163,2.1101520290833613
2.622516556291391,2.064070309366813
2.642384105960265,2.018320049422553
2.662251655629139,1.9731124915630192
2.6821192052980134,1.9286719080815087
2.7019867549668874,1.8852356253129727
2.7218543046357615,1.8430537092730994
2.741721854304636,1.8023882019424429
2.76158940397351,1.7635117836161929
2.781456953642384,1.7267057299481379
2.801324503311258,1.6922570373514865
2.821192052980132,1.6604546130897686
2.8410596026490067,1.6315844724349458
2.8609271523178808,1.605923958753021
2.8807947019867552,1.5837351034698695
2.9006622516556293,1.565257365416941
2.9205298013245033,1.550700118837578
2.9403973509933774,1.5402353742236174
2.9602649006622515,1.5339912892788656
2.9801324503311255,1.532047033445396
3.0,1.5344294932670803
3.0198675496688745,1.5411121492330526
3.0397350993377485,1.5520162393404229
3.0596026490066226,1.5670140880509364
3.0794701986754967,1.5859342651650228
3.0993377483443707,1.6085680846383785
3.119205298013245,1.6346768796266837
3.1390728476821192,1.6639994983035782
3.1589403973509933,1.6962595395357594
3.1788079470198674,1.731171962956524
3.198675496688742,1.7684488375853906
3.218543046357616,1.807804115012379
3.23841059602649,1.8489574133510709
3.2582781456953644,1.8916368707375968
3.2781456953642385,1.9355811724262704
3.2980132450331126,1.980540877637499
3.3178807947019866,2.0262791769900916
3.3377483443708607,2.0725722043780017
3.3576158940397347,2.119209013455911
3.3774834437086096,2.165991312216176
3.3973509933774837,2.2127330320207896
3.4172185430463577,2.2592597914555137
3.437086092715232,2.305408301310297
3.456953642384106,2.351025745159228
3.47682119205298,2.3959691603962563
3.4966887417218544,2.440104836983048
3.5165562913907285,2.483307745305988
3.5364238410596025,2.5254610001257194
3.556291390728477,2.5664553643530548
3.576158940397351,2.6061887940516226
3.596026490066225,2.6445660244405804
3.615894039735099,2.681498195578014
3.6357615894039736,2.716902515710802
3.6556291390728477,2.7507019598722584
3.6754966887417218,2.782825001113433
3.695364238410596,2.813205371704182
3.7152317880794703,2.841781851691373
3.7350993377483444,2.868498082317164
3.754966887417219,2.893302401958598
3.774834437086093,2.9161477024300937
3.794701986754967,2.9369913036826807
3.814569536423841,2.9557948451285774
3.834437086092715,2.972524192011753
3.854304635761589,2.9871493554308515
3.8741721854304636,2.9996444247991425
3.8940397350993377,3.009987511695213
3.9139072847682117,3.0181607042185754
3.9337748344370858,3.0241500311168763
3.9536423841059607,3.0279454350960227
3.9735099337748347,3.0295407548633007
3.993377483443709,3.0289337155870117
4.013245033112583,3.026125927586048
4.033112582781457,3.021122893190203
4.052980132450331,3.01393402183874
4.072847682119205,3.0045726536114876
4.0927152317880795,2.9930560915157702
4.112582781456953,2.9794056429844002
4.132450331125828,2.9636466711761753
4.152317880794702,2.945808656812238
4.172185430463576,2.9259252714298407
4.19205298013245,2.904034463089958
4.211920529801325,2.8801785557378055
4.231788079470199,2.8544043635839
4.251655629139073,2.826763322048214
4.271523178807947,2.7973116369870876
4.291390728476821,2.766110454099051
4.311258278145695,2.733226050574891
4.33112582781457,2.698730051208962
4.3509933774834435,2.662699671311018
4.370860927152318,2.625217988829911
4.390728476821192,2.5863742480977034
4.410596026490066,2.5462641974883833
4.43046357615894,2.5049904630124553
4.450331125827815,2.462662959373326
4.470198675496689,2.4193993392120774
4.490066225165563,2.375325480056916
4.509933774834438,2.3305760067401557
4.529801324503311,2.2852948445830434
4.549668874172186,2.2396357952800146
4.569536423841059,2.1937631229097505
4.589403973509934,2.147852131609858
4.6092715231788075,2.1020897089217505
4.629139072847682,2.056674799424398
4.649006622516556,2.0118187619090926
4.66887417218543,1.9677455500734546
4.688741721854305,1.9246916419288373
4.708609271523179,1.882905627720081
4.728476821192054,1.8426473517541893
4.748344370860927,1.8041864926327678
4.768211920529802,1.76780046251799
4.788079470198675,1.7337715137373395
4.80794701986755,1.7023829653261315
4.827814569536423,1.6739145077908104
4.847682119205298,1.6486366144647622
4.867549668874172,1.6268041816576215
4.887417218543046,1.608649631040185
4.9072847682119205,1.5943758230934597
4.927152317880794,1.5841492302091016
4.947019867549669,1.5780938788525862
4.966887417218543,1.5762865708028526
4.986754966887418,1.5787538215230574
5.006622516556291,1.5854708116584286
5.026490066225166,1.5963624547708866
5.04635761589404,1.6113064732959406
5.066225165562914,1.630138182897209
5.086092715231788,1.652656545165925
5.105960264900662,1.6786309787249754
5.125827814569536,1.7078084211955926
5.14569536423841,1.7399201964750075
5.1655629139072845,1.7746883419500412
5.185430463576159,1.8118311654171875
5.205298013245033,1.8510679120404032
5.225165562913908,1.8921225146321055
5.245033112582782,1.9347264697699111
5.264900662251656,1.9786209272282667
5.28476821192053,2.0235581039834956
5.304635761589404,2.0693021414158506
5.324503311258278,2.115629520329078
5.344370860927152,2.1623291374945866
5.364238410596027,2.2092021330952964
5.3841059602649,2.2560615431626143
5.403973509933775,2.3027318364463873
5.4238410596026485,2.349048382011439
5.443708609271523,2.3948568826035395
5.463576158940397,2.4400127995375254
5.483443708609272,2.4843807874100836
5.503311258278146,2.5278341511109383
5.52317880794702,2.5702543331493413
5.543046357615895,2.611530435977872
5.562913907284768,2.651558781557557
5.582781456953643,2.6902425086704613
5.602649006622516,2.727491207286399
5.622516556291391,2.763220588496543
5.642384105960264,2.7973521880343046
5.662251655629139,2.8298131011313776
5.682119205298013,2.86053574634181
5.701986754966887,2.8894576559622003
5.7218543046357615,2.9165212907463527
5.741721854304636,2.941673876731949
5.7615894039735105,2.9648672621465466
5.781456953642384,2.986057792526603
5.801324503311259,3.005206202357345
5.821192052980132,3.022277521716583
5.841059602649007,3.0372409965782308
5.860927152317881,3.0500700215982675
5.880794701986755,3.06074208436682
5.900662251655629,3.069238720263375
5.920529801324503,3.075545477199006
5.940397350993377,3.079651889669799
5.960264900662251,3.081551461680395
5.980132450331126,3.081241658227128
6.0,3.0787239051566386
6.0198675496688745,3.074003597340963
6.039735099337749,3.0670901152334404
6.059602649006623,3.0579968499936845
6.079470198675497,3.0467412374949463
6.099337748344371,3.0333448016548075
6.119205298013245,3.017833207661041
6.139072847682119,3.0002363257996643
6.158940397350993,2.9805883067318226
6.178807947019867,2.9589276692112194
6.198675496688741,2.93529740138272
6.218543046357616,2.9097450769560114
6.23841059602649,2.8823229877020586
6.258278145695365,2.8530882938736912
6.2781456953642385,2.8221031942966297
6.298013245033113,2.7894351180097727
6.317880794701987,2.755156939440046
6.337748344370861,2.719347219164457
6.357615894039735,2.6820904723190693
6.377483443708609,2.6434774666342804
6.397350993377484,2.603605551871265
6.417218543046357,2.562579022057466
6.437086092715232,2.5205095113070715
6.456953642384105,2.47751642308546
6.47682119205298,2.433727391433262
6.496688741721854,2.3892787707821492
6.516556291390729,2.344316148419533
6.5364238410596025,2.2989948702188485
6.556291390728477,2.253480565749276
6.5761589403973515,2.2079496531101337
6.596026490066225,2.162589796609275
6.6158940397351,2.1176002815842025
6.635761589403973,2.073192260223386
6.655629139072848,2.0295888103584274
6.675496688741721,1.987024736357512
6.695364238410596,1.9457460284145973
6.715231788079469,1.9060088852740096
6.735099337748344,1.8680781980917491
6.754966887417219,1.8322253928549608
6.774834437086093,1.7987255393836563
6.794701986754967,1.7678536605142052
6.814569536423841,1.7398802191641864
6.8344370860927155,1.7150658253872861
6.854304635761589,1.6936552887452523
6.874172185430464,1.6758712371185343
6.894039735099337,1.6619076197223113
6.913907284768212,1.6519234930289968
6.933774834437086,1.646037534727163
6.95364238410596,1.6443237262085297
6.973509933774834,1.646808579335657
6.993377483443709,1.653470161202782
7.013245033112583,1.664239007191557
7.033112582781457,1.6790008340884148
7.052980132450331,1.6976008015258517
7.072847682119205,1.719848947770089
7.0927152317880795,1.745526360825752
7.112582781456954,1.7743916407674802
7.132450331125828,1.8061872551400944
7.152317880794702,1.8406454696820922
7.172185430463576,1.8774936327910152
7.19205298013245,1.91645868755359
7.211920529801324,1.957270868116706
7.231788079470198,1.9996666014521003
7.251655629139073,2.0433906796551455
7.271523178807947,2.0881977935746496
7.291390728476822,2.133853529316233
7.311258278145695,2.18013492905643
7.33112582781457,2.226830710448609
7.3509933774834435,2.273741227819211
7.370860927152318,2.3206782456681823
7.390728476821192,2.367464582274561
7.410596026490066,2.413933669421476
7.430463576158941,2.4599290638908435
7.450331125827814,2.5053039376126183
7.470198675496689,2.5499205661665854
7.490066225165562,2.5936498295905834
7.509933774834438,2.636370734961008
7.52980132450331,2.677969966777488
7.549668874172186,2.718341468610615
7.569536423841059,2.757386057585517
7.589403973509934,2.7950110719267567
7.6092715231788075,2.8311300508569452
7.629139072847682,2.8656624455233697
7.649006622516557,2.8985333592433906
7.66887417218543,2.9296733151484284
7.6887417218543055,2.9590180492201332
7.708609271523178,2.9865083267136914
7.728476821192054,3.012089780025748
7.748344370860927,3.0357127661665473
7.768211920529802,3.0573322421238305
7.788079470198675,3.076907656548489
7.80794701986755,3.0944028563414747
7.827814569536423,3.109786006873525
7.847682119205298,3.123029524719092
7.8675496688741715,3.1341100219336626
7.887417218543046,3.143008261045519
7.907284768211921,3.149709120071264
7.927152317880795,3.154201566997117
7.9470198675496695,3.1564786432965306
7.966887417218543,3.156537456179682
7.986754966887418,3.154379179392107
8.006622516556291,3.150009062499759
8.026490066225167,3.1434364487164497
8.046357615894038,3.134674801448179
8.066225165562914,3.1237417398481653
8.086092715231787,3.110659083796853
8.105960264900663,3.095452908843934
8.125827814569536,3.078153611774439
8.14569536423841,3.0587959875884168
8.165562913907285,3.0374193188135297
8.185430463576159,3.0140674782003627
8.205298013245034,2.988789045980647
8.225165562913906,2.9616374429954377
8.245033112582782,2.9326710811188104
8.264900662251655,2.901953532508317
8.28476821192053,2.869553719295779
8.304635761589404,2.8355461253800796
8.324503311258278,2.8000110319813585
8.344370860927151,2.7630347785413734
8.364238410596027,2.7247100503796284
8.3841059602649,2.6851361942027268
8.403973509933774,2.644419562066672
8.42384105960265,2.602673883649745
8.443708609271523,2.560020665630535
8.463576158940398,2.516589615490388
8.483443708609272,2.4725190850611347
8.503311258278146,2.4279565264880487
8.52317880794702,2.383058949831359
8.543046357615895,2.337993367133908
8.562913907284768,2.2929372022918506
8.582781456953642,2.248078639363007
8.602649006622515,2.203616873985198
8.62251655629139,2.1597622234286353
8.642384105960264,2.1167360407452347
8.66225165562914,2.074770368069813
8.682119205298013,2.0341072543422767
8.701986754966887,1.99499765503344
8.721854304635762,1.957699827924565
8.741721854304636,1.9224771422282836
8.76158940397351,1.8895952313524529
8.781456953642383,1.8593184453916562
8.801324503311259,1.8319056002846354
8.821192052980132,1.8076050771506316
8.841059602649008,1.7866493955355107
8.86092715231788,1.7692494624195165
8.880794701986755,1.7555887751422237
8.90066225165563,1.7458179179265874
8.920529801324504,1.7400497243392907
8.940397350993377,1.738355469872253
8.960264900662251,1.7407624038076528
8.980132450331126,1.7472528303314006
9.0,1.757764817698178
9.019867549668875,1.7721944707941557
9.039735099337747,1.7903995693304091
9.059602649006623,1.8122042712342725
9.079470198675496,1.8374045215318306
9.099337748344372,1.8657737946321178
9.119205298013245,1.8970688270430986
9.139072847682119,1.9310350566346908
9.158940397350994,1.9674115596244104
9.178807947019868,2.005935354400318
9.198675496688743,2.0463450121148505
9.218543046357615,2.088383571627526
9.23841059602649,2.1318007984836878
9.258278145695364,2.176354854633667
9.27814569536424,2.2218134596932013
9.298013245033111,2.2679546286566645
9.317880794701987,2.3145670680948442
9.33774834437086,2.3614503056359393
9.357615894039736,2.4084146180316095
9.37748344370861,2.4552808128647823
9.397350993377483,2.5018799089664085
9.417218543046358,2.548052751471311
9.437086092715232,2.593649589453065
9.456953642384107,2.6385296373270632
9.47682119205298,2.682560635661223
9.496688741721854,2.725618422577238
9.516556291390728,2.7675865234196615
9.536423841059603,2.8083557636656553
9.556291390728477,2.8478239080019883
9.57615894039735,2.885895326978942
9.596026490066224,2.9224806915529866
9.6158940397351,2.9574966950574395
9.635761589403973,2.990865801618941
9.655629139072847,3.0225160197039593
9.675496688741722,3.0523806992883107
9.695364238410596,3.0803983510540935
9.715231788079471,3.106512486004767
9.735099337748345,3.130671473928325
9.754966887417218,3.1528284192134732
9.774834437086092,3.172941052622793
9.794701986754967,3.190971637740943
9.814569536423841,3.2068868909380677
9.834437086092716,3.22065791381561
9.854304635761588,3.232260137228568
9.874172185430464,3.2416732761052263
9.894039735099337,3.2488812944095367
9.913907284768213,3.253872379713152
9.933774834437086,3.256638926963163
9.95364238410596,3.2571775311477755
9.973509933774835,3.255488988676608
9.993377483443709,3.251578307404403
10.013245033112582,3.245454725338273
10.033112582781456,3.2371317381792526
10.052980132450331,3.2266271359588488
10.072847682119205,3.2139630491422655
10.09271523178808,3.1991660046802393
10.112582781456952,3.1822669926027665
10.132450331125828,3.16330154385845
10.152317880794701,3.1423098202125015
10.172185430463577,3.1193367171230593
10.192052980132452,3.094431980615944
10.211920529801324,3.067650339269891
10.2317880794702,3.039051652501044
10.251655629139073,3.008701076390855
10.271523178807948,2.9766692483254604
10.29139072847682,2.9430324916936033
10.311258278145695,2.907873041808444
10.331125827814569,2.871279294052815
10.350993377483444,2.833346074970346
10.370860927152318,2.794174936599961
10.390728476821192,2.75387447373438
10.410596026490065,2.712560662918165
10.43046357615894,2.670357220822627
10.450331125827816,2.627395978061626
10.470198675496688,2.5838172624554105
10.490066225165563,2.5397702831055695
10.509933774834437,2.495413503307719
10.529801324503312,2.450914986195827
10.549668874172186,2.40645269200061
10.56953642384106,2.3622146998720353
10.589403973509933,2.3183993203996387
10.609271523178808,2.2752150574216143
10.629139072847682,2.232880369786529
10.649006622516556,2.1916231760113294
10.66887417218543,2.15168003817925
10.688741721854305,2.1132949572314557
10.70860927152318,2.076717711709905
10.728476821192054,2.0422016780170122
10.748344370860927,2.0100010845270853
10.7682119205298,1.9803676763666442
