Frequency (Hz),Amplitude
0.0,4.848345428898595
0.01978021978021978,4.852823085908755
0.03956043956043956,4.8662137938439605
0.05934065934065934,4.888391987917858
0.07912087912087912,4.919152388218115
0.0989010989010989,4.958215698676751
0.11868131868131868,5.0052360372633915
0.13846153846153844,5.0598096299604265
0.15824175824175823,5.1214842659597855
0.17802197802197803,5.189769025117117
0.1978021978021978,5.264143841978926
0.21758241758241756,5.344068550778856
0.23736263736263735,5.428991148898958
0.2571428571428572,5.518355110136295
0.2769230769230769,5.61160566442469
0.2967032967032967,5.708195031666838
0.31648351648351647,5.8075866515356465
0.3362637362637363,5.909258488579976
0.35604395604395606,6.012705514510209
0.3758241758241758,6.1174414798424595
0.3956043956043956,6.223000088119974
0.4153846153846154,6.328935680518477
0.4351648351648351,6.434823529188369
0.45494505494505494,6.540259826100261
0.4747252747252747,6.644861441850693
0.4945054945054945,6.748265516820005
0.5142857142857143,6.8501289358615685
0.5340659340659341,6.950127727674805
0.5538461538461538,7.047956421309875
0.5736263736263736,7.143327384874957
0.5934065934065934,7.23597016539072
0.6131868131868132,7.325630843738302
0.6329670329670329,7.412071414636183
0.6527472527472528,7.49506919841171
0.6725274725274726,7.574416288868927
0.6923076923076923,7.649919039670144
0.7120879120879121,7.721397590235832
0.7318681318681318,7.788685431132847
0.7516483516483516,7.851629008185964
0.7714285714285715,7.910087364048017
0.7912087912087912,7.963931815647221
0.810989010989011,8.013045665753504
0.8307692307692308,8.057323946836418
0.8505494505494506,8.096673195397432
0.8703296703296702,8.131011255029932
0.8901098901098901,8.16026710657401
0.9098901098901099,8.184380723878471
0.9296703296703297,8.203302953850116
0.9494505494505494,8.216995419653545
0.9692307692307692,8.225430446118112
0.989010989010989,8.22859100660948
1.0087912087912088,8.226470690827846
1.0285714285714287,8.219073693202704
1.0483516483516484,8.20641482176296
1.0681318681318681,8.188519527570824
1.087912087912088,8.16542395501712
1.1076923076923075,8.137175013483962
1.1274725274725275,8.103830471086239
1.1472527472527472,8.065459071405785
1.1670329670329669,8.022140674327158
1.1868131868131868,7.973966422270373
1.2065934065934065,7.921038933287398
1.2263736263736265,7.863472522640198
1.2461538461538462,7.801393454599523
1.2659340659340659,7.73494022628405
1.2857142857142858,7.6642638853835345
1.3054945054945055,7.589528383557828
1.3252747252747252,7.510910967149981
1.3450549450549452,7.428602606564997
1.3648351648351649,7.342808465203573
1.3846153846153846,7.253748408154228
1.4043956043956045,7.161657549872457
1.4241758241758242,7.066786838738443
1.443956043956044,6.9694036745929
1.4637362637362636,6.8697925529985815
1.4835164835164834,6.768255726939357
1.5032967032967033,6.665113872814798
1.523076923076923,6.560706742769955
1.542857142857143,6.455393779474524
1.5626373626373626,6.349554662302935
1.5824175824175823,6.243589745380064
1.6021978021978023,6.13792033812995
1.621978021978022,6.032988767906195
1.6417582417582417,5.929258152283111
1.6615384615384616,5.827211796198677
1.6813186813186813,5.727352117261382
1.7010989010989013,5.63019899249116
1.720879120879121,5.536287413382601
1.7406593406593405,5.446164335788946
1.7604395604395604,5.360384619494959
1.7802197802197801,5.279505972461537
1.7999999999999998,5.204082849395935
1.8197802197802198,5.134659305557592
1.8395604395604395,5.071760875013998
1.8593406593406594,5.015885625943413
1.879120879120879,4.96749463888442
1.8989010989010988,4.927002248361857
1.9186813186813187,4.894766472201927
1.9384615384615385,4.871080112346825
1.9582417582417584,4.856163032755814
1.978021978021978,4.850156094022075
1.9978021978021978,4.853117146827585
2.0175824175824175,4.865019361646618
2.0373626373626372,4.885752012945045
2.0571428571428574,4.915123661842143
2.076923076923077,4.952867514131561
2.096703296703297,4.9986485915901095
2.1164835164835165,5.052072259067317
2.1362637362637362,5.112693605387986
2.1560439560439564,5.180027181579919
2.175824175824176,5.25355664727146
2.195604395604396,5.332743952799173
2.215384615384615,5.417037776728944
2.2351648351648348,5.5058810333808905
2.254945054945055,5.598717352639807
2.2747252747252746,5.694996508411376
2.2945054945054943,5.794178829508608
2.314285714285714,5.895738667208972
2.3340659340659338,5.999167018774061
2.353846153846154,6.103973418477515
2.3736263736263736,6.209687210121698
2.3934065934065933,6.315858310515326
2.413186813186813,6.422057564436066
2.4329670329670328,6.527876780219709
2.452747252747253,6.632928522801514
2.4725274725274726,6.736845728827739
2.4923076923076923,6.839281197022457
2.512087912087912,6.939906996712178
2.5318681318681318,7.038413828444808
2.5516483516483515,7.134510363012491
2.5714285714285716,7.227922578834795
2.5912087912087913,7.3183931124608685
2.610989010989011,7.405680632767326
2.6307692307692307,7.489559246116115
2.6505494505494505,7.569817937154274
2.6703296703296706,7.646260047957579
2.6901098901098903,7.71870279673085
2.70989010989011,7.786976836181786
2.7296703296703297,7.850925850903379
2.7494505494505495,7.910406192563046
2.769230769230769,7.9652865513521
2.7890109890109893,8.015447661951336
2.808791208791209,8.060782042183197
2.8285714285714287,8.101193762520149
2.8483516483516484,8.136598244680954
2.8681318681318677,8.166922087654518
2.887912087912088,8.192102919632786
2.9076923076923076,8.21208927449912
2.9274725274725273,8.226840491700518
2.947252747252747,8.236326638525016
2.9670329670329667,8.240528454006032
2.986813186813187,8.23943731388087
3.0065934065934066,8.233055216238796
3.0263736263736263,8.221394787704144
3.046153846153846,8.204479310210788
3.0659340659340657,8.182342768634905
3.085714285714286,8.155029919762987
3.1054945054945056,8.12259638328016
3.1252747252747253,8.085108755668164
3.145054945054945,8.042644748101926
3.1648351648351647,7.9952933496233625
3.184615384615385,7.943155017048817
3.2043956043956046,7.886341893224367
3.2241758241758243,7.824978055373901
3.243956043956044,7.759199795377324
3.2637362637362637,7.689155933855361
3.2835164835164834,7.615008169905008
3.3032967032967036,7.536931468201132
3.3230769230769233,7.4551144849234445
3.342857142857143,7.369760033545784
3.3626373626373627,7.281085590886567
3.3824175824175824,7.1893238429048685
3.4021978021978025,7.094723268462626
3.4219780219780223,6.997548757570294
3.441758241758242,6.898082258386928
3.4615384615384617,6.796623444334406
3.481318681318681,6.6934903889747135
3.501098901098901,6.589020231641998
3.520879120879121,6.483569811070183
3.5406593406593405,6.377516237275916
3.5604395604395602,6.27125736364366
3.58021978021978,6.165212111480744
3.5999999999999996,6.059820588342029
3.61978021978022,5.955543929417897
3.6395604395604395,5.852863778734054
3.659340659340659,5.752281314658439
3.679120879120879,5.654315713504177
3.6989010989010986,5.55950193760361
3.718681318681319,5.468387732377881
3.7384615384615385,5.381529723375391
3.758241758241758,5.299488522020036
3.7780219780219784,5.222822780833775
3.7978021978021976,5.152082187457184
3.8175824175824173,5.087799452739738
3.8373626373626375,5.030481430053334
3.8571428571428568,4.980599596223645
3.876923076923077,4.938580220918136
3.896703296703296,4.904794639444668
3.916483516483517,4.879550109935752
3.936263736263736,4.863081765970073
3.956043956043956,4.855546158773966
3.9758241758241755,4.857016814026901
3.9956043956043956,4.867482109798698
4.015384615384615,4.886845625775378
4.035164835164835,4.914928938374822
4.054945054945055,4.951476664096694
4.0747252747252745,4.9961634063144915
4.094505494505494,5.048602155594551
4.114285714285715,5.108353639577908
4.134065934065934,5.17493611585193
4.153846153846154,5.247835142892504
4.173626373626373,5.326512937912757
4.193406593406594,5.410417022221381
4.213186813186813,5.498987951179785
4.232967032967033,5.591666016428224
4.252747252747253,5.687896885618048
4.2725274725274724,5.78713620583495
4.292307692307692,5.8888532405238685
4.312087912087913,5.9925336373789815
4.331868131868132,6.097681438878461
4.351648351648352,6.203820450928228
4.371428571428571,6.310495081395744
4.391208791208792,6.417270751774922
4.410989010989011,6.523733973944849
4.43076923076923,6.62949217156641
4.450549450549451,6.734173313225028
4.4703296703296695,6.837425412701369
4.49010989010989,6.938915941153335
4.50989010989011,7.038331186717307
4.52967032967033,7.135375589123293
4.549450549450549,7.2297710703111795
4.569230769230769,7.321256376618378
4.589010989010989,7.409586443743112
4.608791208791209,7.49453179222323
4.628571428571428,7.575877958464973
4.648351648351649,7.65342496427803
4.6681318681318675,7.726986826306525
4.687912087912088,7.796391105589933
4.707692307692308,7.86147849665965
4.7274725274725276,7.92210245500598
4.747252747252747,7.978128861379332
4.767032967032967,8.029435721173389
4.786813186813187,8.075912897039103
4.806593406593407,8.117461872868471
4.826373626373626,8.153995547343108
4.846153846153847,8.185438055347005
4.8659340659340655,8.211724615682817
4.885714285714286,8.232801403695351
4.905494505494506,8.248625447588235
4.9252747252747255,8.259164547413654
4.945054945054945,8.264397215916969
4.964835164835165,8.264312640625217
4.984615384615385,8.258910666778775
5.004395604395604,8.24820180091775
5.024175824175824,8.232207235147873
5.043956043956045,8.21095889232422
5.0637362637362635,8.184499492603978
5.083516483516483,8.152882642030866
5.103296703296703,8.116172944022669
5.123076923076923,8.074446134836913
5.142857142857143,8.027789244285955
5.162637362637362,7.976300783157002
5.182417582417583,7.920090958959399
5.2021978021978015,7.85928192176296
5.221978021978022,7.794008041997011
5.241758241758242,7.724416222135816
5.2615384615384615,7.650666244184623
5.281318681318681,7.572931154777959
5.301098901098901,7.491397689477886
5.320879120879121,7.406266737477393
5.340659340659341,7.317753847324362
5.36043956043956,7.226089773426436
5.380219780219781,7.131521061903961
5.3999999999999995,7.03431067273954
5.41978021978022,6.934738633025274
5.43956043956044,6.833102713312269
5.4593406593406595,6.729719115484856
5.479120879120879,6.624923156066518
5.498901098901099,6.519069923262614
5.518681318681319,6.412534879211608
5.538461538461538,6.3057143707364025
5.558241758241758,6.199026002303657
5.578021978021979,6.09290881396113
5.5978021978021975,5.987823194939424
5.617582417582418,5.8842504508247995
5.637362637362637,5.782691929502273
5.6571428571428575,5.683667599620678
5.676923076923077,5.587713966824273
5.696703296703297,5.4953812096488255
5.716483516483517,5.407229421517288
5.736263736263735,5.3238238607614505
5.756043956043956,5.2457291401210915
5.775824175824176,5.1735023332762005
5.795604395604395,5.107685039898779
5.815384615384615,5.048794531520135
5.835164835164835,4.997314194182071
5.854945054945055,4.953683582713808
5.874725274725275,4.918288494298321
5.894505494505494,4.891451541900745
5.914285714285715,4.873423746687277
5.934065934065933,4.8643776606381
5.953846153846154,4.864402469483248
5.973626373626374,4.873501413193045
5.993406593406593,4.891591706836574
6.013186813186813,4.918506966823578
6.032967032967033,4.9540019691292
6.052747252747253,4.9977594099509215
6.072527472527473,5.049398223830442
6.092307692307692,5.108482950341747
6.112087912087913,5.174533629779482
6.131868131868131,5.24703574457751
6.151648351648352,5.325449794530847
6.171428571428572,5.409220185903973
6.191208791208791,5.497783213245601
6.210989010989011,5.590574006786036
6.230769230769231,5.687032399819395
6.2505494505494505,5.786607735277472
6.270329670329671,5.888762677695899
6.29010989010989,5.992976127109995
6.309890109890111,6.098745347588407
6.329670329670329,6.205587428178793
6.349450549450549,6.313040191076145
6.36923076923077,6.420662653572719
6.3890109890109885,6.528035139052438
6.408791208791209,6.634759119659702
6.428571428571428,6.740456860509394
6.4483516483516485,6.8447709232030585
6.468131868131868,6.947363575436158
6.487912087912088,7.047916143844861
6.507692307692308,7.146128339003256
6.527472527472527,7.241717574592254
6.547252747252747,7.3344182971067555
6.567032967032967,7.423981337904728
6.5868131868131865,7.5101732957787
6.606593406593407,7.592775955397544
6.626373626373626,7.671585744789588
6.6461538461538465,7.7464132333944935
6.665934065934065,7.817082670997801
6.685714285714286,7.883431566990479
6.705494505494506,7.94531030879285
6.725274725274725,8.002581817889304
6.745054945054945,8.055121241688067
6.764835164835165,8.102815679311291
6.7846153846153845,8.14556393940467
6.804395604395605,8.183276328108343
6.824175824175824,8.215874465434277
6.8439560439560445,8.24329112843523
6.863736263736263,8.265470119716905
6.883516483516484,8.282366160028552
6.903296703296704,8.293944803864699
6.923076923076923,8.300182377215057
6.942857142857143,8.301065936810447
6.962637362637362,8.296593250426218
6.9824175824175825,8.28677279802036
7.002197802197802,8.271623793700805
7.021978021978022,8.251176228733517
7.041758241758242,8.225470936020601
7.061538461538461,8.194559676693522
7.081318681318681,8.15850524968072
7.101098901098901,8.117381625318785
7.1208791208791204,8.071274104279636
7.140659340659341,8.020279503278804
7.16043956043956,7.964506369207269
7.1802197802197805,7.904075223482783
7.199999999999999,7.839118838537745
7.21978021978022,7.7697825484349465
7.23956043956044,7.696224595613592
7.259340659340659,7.618616515692496
7.279120879120879,7.537143562066788
7.298901098901099,7.452005171691978
7.318681318681318,7.3634154729076435
7.338461538461539,7.271603835356018
7.358241758241758,7.17681546092497
7.3780219780219785,7.079312013106772
7.397802197802197,6.9793722801078735
7.417582417582418,6.877292864351889
7.437362637362638,6.773388887550229
7.457142857142857,6.667994696120122
7.476923076923077,6.5614645462497165
7.496703296703297,6.454173241189726
7.516483516483516,6.346516685258988
7.536263736263736,6.238912309510129
7.556043956043957,6.131799313028615
7.575824175824176,6.025638651604523
7.595604395604395,5.920912692420022
7.615384615384615,5.818124440149552
7.635164835164835,5.717796227599819
7.654945054945055,5.620467754348753
7.674725274725275,5.526693351959816
7.694505494505494,5.43703835697852
7.7142857142857135,5.352074486201465
7.734065934065935,5.272374135888667
7.753846153846154,5.19850357049336
7.7736263736263735,5.131015028761194
7.793406593406592,5.070437855258487
7.813186813186814,5.017268860045138
7.832967032967034,4.971962211099694
7.852747252747252,4.934919262192028
7.872527472527472,4.906478799137291
7.892307692307693,4.88690823463558
7.912087912087912,4.876396282905814
7.931868131868132,4.875047591899912
7.951648351648351,4.882879702851086
7.971428571428572,4.899822553432372
7.991208791208791,4.925720559585899
8.010989010989011,4.960337125331667
8.03076923076923,5.003361263692157
8.05054945054945,5.054415885461576
8.07032967032967,5.113067238433365
8.09010989010989,5.178834961083048
8.10989010989011,5.251202246098138
8.129670329670331,5.329625678777452
8.149450549450549,5.413544408383405
8.169230769230769,5.50238841231683
8.189010989010988,5.595585711208242
8.20879120879121,5.692568479038594
8.22857142857143,5.792778061418922
8.248351648351647,5.89566896570946
8.268131868131867,6.000711919729976
8.287912087912087,6.1073961138873
8.307692307692308,6.215230747778233
8.327472527472528,6.3237459999324495
8.347252747252746,6.432493531237222
8.367032967032966,6.541046621120136
8.386813186813187,6.6490000225811485
8.406593406593407,6.75596960896105
8.426373626373627,6.861591872762096
8.446153846153845,6.965523325402573
8.465934065934066,7.0674398367357885
8.485714285714286,7.167035944563074
8.505494505494505,7.264024157172226
8.525274725274725,7.358134266023449
8.545054945054945,7.4491126809355475
8.564835164835165,7.536721796338021
8.584615384615384,7.620739394195379
8.604395604395604,7.700958086934462
8.624175824175826,7.777184801989583
8.643956043956043,7.8492403083120745
8.663736263736263,7.916958784280735
8.683516483516483,7.980187425819742
8.703296703296704,8.03878609311911
8.723076923076924,8.092626994109771
8.742857142857142,8.141594402729874
8.762637362637362,8.185584409999949
8.782417582417583,8.224504705977562
8.802197802197803,8.258274390766788
8.821978021978023,8.286823812901341
8.84175824175824,8.310094433589896
8.86153846153846,8.328038715500915
8.881318681318682,8.340620034965484
8.901098901098901,8.347812616686738
8.920879120879121,8.349601490259431
8.940659340659339,8.345982468022251
8.96043956043956,8.33696214398598
8.98021978021978,8.322557913803196
9.0,8.302798015967642
9.01978021978022,8.277721594654606
9.03956043956044,8.247378784835687
9.05934065934066,8.2118308205223
9.079120879120879,8.171150167209499
9.098901098901099,8.125420679803824
9.11868131868132,8.074737787521599
9.138461538461538,8.019208707432838
9.158241758241758,7.958952688493962
9.178021978021977,7.894101288049661
9.197802197802199,7.824798682878815
9.217582417582419,7.751202016893948
9.237362637362637,7.673481787556731
9.257142857142856,7.591822272915578
9.276923076923078,7.506422000868738
9.296703296703297,7.4174942617629505
9.316483516483517,7.3252676646958275
9.336263736263735,7.229986736829831
9.356043956043957,7.1319125635606015
9.375824175824176,7.031323465410176
9.395604395604396,6.9285157049131225
9.415384615384616,6.823804213392812
9.435164835164835,6.717523323227597
9.454945054945055,6.610027485818218
9.474725274725275,6.501691948820216
9.494505494505495,6.392913358152043
9.514285714285714,6.284110240729333
9.534065934065934,6.175723312795659
9.553846153846154,6.06821554625169
9.573626373626373,5.962071911879464
9.593406593406593,5.857798704476609
9.613186813186815,5.755922341729915
9.632967032967032,5.65698751775014
9.652747252747252,5.561554585723772
9.672527472527472,5.470196044865659
9.692307692307693,5.383492018012442
9.712087912087913,5.3020246312137305
9.731868131868131,5.226371248685651
9.75164835164835,5.157096577558036
9.771428571428572,5.094743737028732
9.791208791208792,5.03982448286162
9.810989010989012,4.9928088838104285
9.83076923076923,4.954114850600766
9.850549450549451,4.9240980062171404
9.87032967032967,4.903042442495774
9.89010989010989,4.891152917841921
9.90989010989011,4.888549004550983
9.92967032967033,4.895261590031312
9.94945054945055,4.911231982320879
9.96923076923077,4.936313684109833
9.989010989010989,4.970276704892967
10.008791208791209,5.012814103458454
10.028571428571428,5.063550314757152
10.048351648351648,5.1220507306846415
10.068131868131868,5.187831978065942
10.08791208791209,5.260372364379384
10.107692307692307,5.339122030690337
10.127472527472527,5.423512446476745
10.147252747252747,5.512964986886355
10.167032967032966,5.606898436196752
10.186813186813188,5.7047353523592825
10.206593406593406,5.805907301091145
10.226373626373626,5.909859022227184
10.246153846153845,6.0160516268220015
10.265934065934067,6.1239649433323216
10.285714285714286,6.233099138405402
10.305494505494504,6.342975735749955
10.325274725274724,6.453138148350551
10.345054945054946,6.563151827449792
10.364835164835165,6.672604118216459
10.384615384615385,6.781103898233526
10.404395604395603,6.888281061793663
10.424175824175824,6.9937859010229975
10.443956043956044,7.097288424332801
10.463736263736264,7.198477643697733
10.483516483516484,7.297060854730695
10.503296703296703,7.392762927348122
10.523076923076923,7.485325619839911
10.542857142857143,7.574506925208578
10.562637362637362,7.660080455559048
10.582417582417584,7.741834867954492
10.602197802197802,7.819573333370543
10.621978021978022,7.893113049066228
10.641758241758241,7.962284793748085
10.661538461538463,8.026932524254132
10.681318681318682,8.086913012061434
10.7010989010989,8.14209551767226
10.72087912087912,8.192361500817757
10.740659340659342,8.237604364400985
10.760439560439561,8.277729230158197
10.780219780219781,8.312652744127629
10.799999999999999,8.342302910164648
10.819780219780219,8.366618949918566
10.83956043956044,8.38555118788215
10.85934065934066,8.399060960332793
