Time (s),Filtered Signal
0.0,-0.01697800377885998
0.033370535714285714,-0.52021518011323
0.06674107142857143,-0.9283942043102318
0.10011160714285713,-1.1745576788129386
0.13348214285714285,-1.2364646689147936
0.16685267857142858,-1.1370388136956184
0.20022321428571427,-0.9300305569839543
0.23359375,-0.6785524671508603
0.2669642857142857,-0.4355962494976577
0.30033482142857143,-0.23266865430853115
0.33370535714285715,-0.07773669128865304
0.36707589285714287,0.040100604884306154
0.40044642857142854,0.14263750202030248
0.43381696428571426,0.2533006346135629
0.4671875,0.3872943155228239
0.5005580357142857,0.5424373715887699
0.5339285714285714,0.6940363789901143
0.5672991071428571,0.7981484014871838
0.6006696428571429,0.80521863704876
0.6340401785714286,0.680637745198499
0.6674107142857143,0.42353274263742213
0.70078125,0.07406908689702396
0.7341517857142857,-0.29575756712529055
0.7675223214285715,-0.6047622148522025
0.8008928571428571,-0.7888305593885974
0.8342633928571428,-0.8195582124542206
0.8676339285714285,-0.7084501250401515
0.9010044642857142,-0.4971488693037106
0.934375,-0.24007356240207595
0.9677455357142857,0.012321831788512769
1.0011160714285714,0.2236523888241906
1.0344866071428571,0.37327143744714125
1.0678571428571428,0.45178237847622704
1.1012276785714286,0.4551682269510474
1.1345982142857143,0.38243295962514123
1.16796875,0.23909418229726112
1.2013392857142857,0.044440813166156425
1.2347098214285714,-0.16345654029690232
1.2680803571428572,-0.3314502335613185
1.3014508928571429,-0.4058936272604363
1.3348214285714286,-0.35321226197243405
1.3681919642857143,-0.17635297078851359
1.4015625,0.08248798421131752
1.4349330357142858,0.35583533043878857
1.4683035714285715,0.5756162811422003
1.5016741071428572,0.6967063468271825
1.535044642857143,0.7082872800191604
1.5684151785714286,0.6288431966059752
1.6017857142857141,0.4894355182833057
1.6351562499999999,0.3156229993196785
1.6685267857142856,0.11807143347373308
1.7018973214285713,-0.10391637088016706
1.735267857142857,-0.3495401198406529
1.7686383928571427,-0.60330637240484
1.8020089285714285,-0.8304912405763338
1.8353794642857142,-0.9849623954142747
1.86875,-1.025741456631609
1.9021205357142856,-0.9337965485987005
1.9354910714285714,-0.7208315614549138
1.968861607142857,-0.4265667828044659
2.002232142857143,-0.10682804183685489
2.0356026785714287,0.1817433607558525
2.0689732142857142,0.3946991549733559
2.10234375,0.5075311190740055
2.1357142857142857,0.5180841411586704
2.169084821428571,0.44491375571152825
2.202455357142857,0.32249995485983857
2.2358258928571426,0.19346291725866446
2.2691964285714286,0.09823915690437837
2.302566964285714,0.06424703129435456
2.3359375,0.09803309579379667
2.3693080357142855,0.18363127393808476
2.4026785714285714,0.2881115888419448
2.436049107142857,0.37239582182230047
2.469419642857143,0.4036064244179882
2.5027901785714284,0.36517537810951184
2.5361607142857143,0.26205551124175236
2.56953125,0.11967377026378143
2.6029017857142858,-0.023573158495791613
2.6362723214285713,-0.12902301955858061
2.669642857142857,-0.1723076993240526
2.7030133928571427,-0.15439405910495899
2.7363839285714286,-0.10342111234247948
2.769754464285714,-0.06444903953709558
2.803125,-0.07972064582094138
2.8364955357142856,-0.16757508590331016
2.8698660714285715,-0.31031947622702605
2.903236607142857,-0.4582283631284714
2.936607142857143,-0.5494364434222261
2.9699776785714285,-0.5374050350389918
3.0033482142857144,-0.413125281649174
3.03671875,-0.21095429331127633
3.070089285714286,0.00541708821852916
3.1034598214285714,0.1704597452315672
3.1368303571428573,0.2443532740415561
3.170200892857143,0.22712512657520972
3.2035714285714283,0.15316165310624197
3.2369419642857142,0.07043028906118848
3.2703124999999997,0.01658010852933178
3.3036830357142857,0.004760098973262562
3.337053571428571,0.025417458085997952
3.370424107142857,0.06065485218155789
3.4037946428571426,0.1006621174127073
3.4371651785714286,0.15122350243501126
3.470535714285714,0.22735494283582502
3.50390625,0.3370438467944796
3.5372767857142855,0.4656308173438135
3.5706473214285714,0.571784549196708
3.604017857142857,0.5999447269645112
3.637388392857143,0.5048408894152143
3.6707589285714284,0.2763739605308542
3.7041294642857143,-0.048085858913689994
3.7375,-0.3912838795666726
3.7708705357142858,-0.6613608764609874
3.8042410714285713,-0.7843892899403636
3.837611607142857,-0.7307982069380877
3.8709821428571427,-0.5255714059057813
3.9043526785714286,-0.23916991775427895
3.937723214285714,0.0366094851300404
3.97109375,0.21889433198787914
4.004464285714286,0.25992926587979803
4.0378348214285715,0.16094114909680782
4.0712053571428575,-0.030401247822330286
4.1045758928571425,-0.2377563284293357
4.1379464285714285,-0.3830210026900253
4.171316964285714,-0.4132039768886486
4.2046875,-0.31794393359023165
4.238058035714285,-0.13150953828908063
4.271428571428571,0.08128807751490533
4.304799107142857,0.2498143518319679
4.338169642857142,0.32351149901091103
4.371540178571428,0.28929172136277026
4.404910714285714,0.1742984721126266
4.43828125,0.033654497251821396
4.471651785714285,-0.07160789438570474
4.505022321428571,-0.09781056791859676
4.538392857142857,-0.0342344098517353
4.571763392857143,0.09475969398416674
4.605133928571428,0.2415597033026244
4.638504464285714,0.355774689519476
4.671875,0.4043578713300914
4.705245535714286,0.38273613997751144
4.738616071428571,0.31275293228820944
4.771986607142857,0.22957388497602665
4.805357142857143,0.1646045021875026
4.838727678571429,0.13250391902626513
4.872098214285714,0.12745054047436122
4.90546875,0.1289402587169832
4.938839285714286,0.11320922464153646
4.972209821428572,0.06458151709341514
5.005580357142857,-0.018125241256938217
5.038950892857143,-0.12236700418110075
5.072321428571429,-0.22878352207531938
5.105691964285715,-0.32052718844331946
5.1390625,-0.39023249726018994
5.172433035714286,-0.441065362780574
5.2058035714285715,-0.4814333671278179
5.2391741071428575,-0.5165160606470292
5.2725446428571425,-0.5417925678139421
5.3059151785714285,-0.5428762652393796
5.339285714285714,-0.5024887064675861
5.3726562499999995,-0.4111786996442352
5.406026785714285,-0.2758299091151724
5.439397321428571,-0.12064978241322855
5.472767857142857,0.021011125879809956
5.506138392857142,0.12082339269370855
5.539508928571428,0.168909275720252
5.572879464285714,0.17951881785455173
5.60625,0.1852560426407717
5.639620535714285,0.22169413431034593
5.672991071428571,0.30928053648499804
5.706361607142857,0.44135252061391306
5.739732142857143,0.5846193298458088
5.773102678571428,0.6926004108472171
5.806473214285714,0.7260911359229649
5.83984375,0.6710491771975483
5.873214285714286,0.5453176634088165
5.906584821428571,0.39086088382858053
5.939955357142857,0.2550476431300847
5.973325892857143,0.16961405581180478
6.006696428571429,0.1369229895997078
6.040066964285714,0.12971734131932564
6.0734375,0.10443229581387338
6.106808035714286,0.022072218353867308
6.140178571428572,-0.13264676109938126
6.173549107142857,-0.3422612457082097
6.206919642857143,-0.5613092363186007
6.240290178571429,-0.7324155144674893
6.273660714285715,-0.8067714393730794
6.30703125,-0.7611647522483354
6.340401785714286,-0.6061232884318408
6.3737723214285715,-0.38347946097013463
6.407142857142857,-0.15481392955283502
6.4405133928571425,0.01583318105056467
6.4738839285714285,0.08049723892933597
6.507254464285714,0.022030145278099315
6.5406249999999995,-0.1396067960838029
6.573995535714285,-0.35221823406343583
6.607366071428571,-0.5467012334302039
6.640736607142857,-0.6582319372292761
6.674107142857142,-0.6460800825100524
6.707477678571428,-0.5048343155044906
6.740848214285714,-0.26289893091961974
6.77421875,0.030730552424953702
6.807589285714285,0.32537216618340864
6.840959821428571,0.5847580516793882
6.874330357142857,0.7934437396875799
6.907700892857143,0.9517027460731128
6.941071428571428,1.0630937379596823
6.974441964285714,1.1226713541990008
7.0078125,1.113312574752133
7.041183035714286,1.0130726259094214
7.074553571428571,0.8102272496236715
7.107924107142857,0.5179163621298237
7.141294642857143,0.17956167695975236
7.174665178571429,-0.13988473099715137
7.208035714285714,-0.37488919332578574
7.24140625,-0.483892112563863
7.274776785714286,-0.4661551384639873
7.308147321428572,-0.3625826526052571
7.341517857142857,-0.23960205154647912
7.374888392857143,-0.16307905285930266
7.408258928571429,-0.173497684087767
7.441629464285715,-0.27239224015026137
7.475,-0.4244915508105155
7.508370535714286,-0.5733335771091101
7.5417410714285715,-0.6632768108699594
7.575111607142857,-0.6594490308884232
7.6084821428571425,-0.5590356840657239
7.6418526785714285,-0.3910352972208887
7.675223214285714,-0.2055522295958168
7.7085937499999995,-0.05667200827844321
7.741964285714285,0.015545121398555786
7.775334821428571,-0.0015283845995670562
7.808705357142857,-0.08831027689328705
7.842075892857142,-0.19839602639703408
7.875446428571428,-0.2727128773137963
7.908816964285714,-0.25844489221612893
7.9421875,-0.12716287274978536
7.975558035714285,0.11349034823306584
8.008928571428571,0.41864711569684165
8.042299107142856,0.716735170513303
8.075669642857143,0.9292350491441916
8.109040178571428,0.9941231846036309
8.142410714285715,0.8858256701514481
8.17578125,0.6250071807655495
8.209151785714285,0.27424143635210574
8.242522321428572,-0.07994835669519579
8.275892857142857,-0.3532702190335355
8.309263392857142,-0.4891618294851736
8.342633928571429,-0.4744800762140974
8.376004464285714,-0.33989820593180314
8.409375,-0.14564729244537766
8.442745535714286,0.04099730646931518
8.47611607142857,0.167373460207523
8.509486607142858,0.20852843206958727
8.542857142857143,0.1685528577053228
8.576227678571428,0.07216617209690154
8.609598214285715,-0.04796837311513725
8.64296875,-0.16233109556629874
8.676339285714285,-0.25048742722207124
8.709709821428572,-0.3016940903291307
8.743080357142857,-0.31248616671668417
8.776450892857143,-0.2841595957955039
8.809821428571428,-0.2219048990258327
8.843191964285714,-0.1354048866367791
8.8765625,-0.03912926651532709
8.909933035714285,0.04977961186771124
8.94330357142857,0.11685328284171033
8.976674107142857,0.15718066269189745
9.010044642857142,0.17975357930878716
9.04341517857143,0.2049272217553564
9.076785714285714,0.2536924785371292
9.11015625,0.33278061751965704
9.143526785714286,0.42391327248088495
9.176897321428571,0.48526341784182214
9.210267857142856,0.46747880256499985
9.243638392857143,0.3382416267483128
9.277008928571428,0.10327712684078012
9.310379464285715,-0.1880313215005951
9.34375,-0.45729805594192047
9.377120535714285,-0.6267716930373214
9.410491071428572,-0.6507324496776749
9.443861607142857,-0.5340364724917497
9.477232142857142,-0.3291696291361954
9.510602678571429,-0.1134948510208792
9.543973214285714,0.042245933486395396
9.57734375,0.09949428297518983
9.610714285714286,0.06072024726130155
9.64408482142857,-0.0401349503589925
9.677455357142858,-0.15815277480311063
9.710825892857143,-0.2571588433196791
9.744196428571428,-0.31946457990210964
9.777566964285715,-0.34345662114801745
9.8109375,-0.3338519854924904
9.844308035714285,-0.29245563781513356
9.877678571428572,-0.21527137595263532
9.911049107142857,-0.09683181798124309
9.944419642857143,0.062018909781192774
9.977790178571428,0.24837982636050468
10.011160714285714,0.43739328278202233
10.04453125,0.5983646084118653
10.077901785714285,0.7037858952216511
10.11127232142857,0.7369917343566208
10.144642857142857,0.6955036481191624
10.178013392857142,0.5897789626651068
10.21138392857143,0.4392280189270561
10.244754464285714,0.26774408021930135
10.278125,0.09978760141040666
10.311495535714286,-0.04332646899172017
10.344866071428571,-0.14745437583179555
10.378236607142856,-0.2091828693973829
10.411607142857143,-0.23662781891130158
10.444977678571428,-0.2452405109389705
10.478348214285715,-0.24886078591938834
10.51171875,-0.2499871508895694
10.545089285714285,-0.23553467061288025
10.578459821428572,-0.1828272017905234
10.611830357142857,-0.07513002058659353
10.645200892857142,0.08053145407382552
10.678571428571429,0.24400055636652435
10.711941964285714,0.3492779064163223
10.745312499999999,0.3286532222887074
10.778683035714286,0.14435662098330126
10.81205357142857,-0.18717496053425917
10.845424107142858,-0.5914122312417132
10.878794642857143,-0.9563624619009021
10.912165178571428,-1.1704453549307183
10.945535714285715,-1.1621840638253116
10.97890625,-0.9253307159323317
11.012276785714285,-0.5195648993858926
11.045647321428572,-0.04756453888285377
11.079017857142857,0.38100980621503133
11.112388392857143,0.6835899796355386
11.145758928571428,0.8242491378923914
11.179129464285714,0.8138761151797435
11.2125,0.695091670734294
11.245870535714285,0.5217329788989028
11.27924107142857,0.3426028366494792
11.312611607142857,0.19398619565490605
11.345982142857142,0.09894162874511168
11.37935267857143,0.06799530890046761
11.412723214285714,0.09762897021124395
11.44609375,0.16792171871336226
11.479464285714286,0.24433455439228008
11.512834821428571,0.2873507192958629
11.546205357142856,0.2679626556823991
11.579575892857143,0.18120373051314922
11.612946428571428,0.048999340196774
11.646316964285715,-0.09089901266191085
11.6796875,-0.204497288233026
11.713058035714285,-0.27834764565467635
11.746428571428572,-0.3233614920295386
11.779799107142857,-0.3633019533371187
11.813169642857142,-0.4152386620087047
11.846540178571429,-0.4744276823325693
11.879910714285714,-0.5134253993258703
11.913281249999999,-0.4964636100812098
11.946651785714286,-0.4007903920567051
11.98002232142857,-0.23254464922000093
12.013392857142858,-0.02801758686200961
12.046763392857143,0.16050783575301364
12.080133928571428,0.28684310216724773
12.113504464285715,0.3296525914869756
12.146875,0.2989615524611431
12.180245535714285,0.22814434057852812
12.213616071428572,0.1564179844795456
12.246986607142857,0.11118049685926898
12.280357142857143,0.09892502477528188
12.313727678571428,0.10842361106081515
12.347098214285714,0.12307227068348045
12.38046875,0.13433921991665887
12.413839285714285,0.14792485212965717
12.44720982142857,0.17881429753034447
12.480580357142857,0.23827608894852026
12.513950892857142,0.32091246377693705
12.54732142857143,0.4000209058899901
12.580691964285714,0.43478633312031784
12.6140625,0.38624685184047913
12.647433035714286,0.23453495560063373
12.680803571428571,-0.010201838078504357
12.714174107142856,-0.30731745301785335
12.747544642857143,-0.59533323178713
12.780915178571428,-0.8083914045664744
12.814285714285713,-0.8948441100822966
12.84765625,-0.8330254828886117
12.881026785714285,-0.639442430779763
12.914397321428572,-0.365823452794552
12.947767857142857,-0.0844589099648007
12.981138392857142,0.13427958847141444
13.014508928571429,0.24435605030346536
13.047879464285714,0.2375230207067859
13.081249999999999,0.1422209661072963
13.114620535714286,0.00886747423513861
13.14799107142857,-0.11106015086167205
13.181361607142858,-0.18205341108569048
13.214732142857143,-0.19047886896752217
13.248102678571428,-0.13904292178394634
13.281473214285715,-0.03627904563774637
13.31484375,0.11018836320422504
13.348214285714285,0.2916404094938073
13.381584821428572,0.48991473259715096
13.414955357142857,0.6709051204414334
13.448325892857143,0.7880973507132302
13.481696428571428,0.7981694940590944
13.515066964285714,0.6822538747584569
13.5484375,0.46125372141883264
13.581808035714285,0.19512538935046955
13.61517857142857,-0.036338387366066115
13.648549107142857,-0.1641039819653977
13.681919642857142,-0.15837693234540612
13.71529017857143,-0.04173700119026134
13.748660714285714,0.11940668725696707
13.78203125,0.2412773387125386
13.815401785714286,0.2551579021228967
13.848772321428571,0.1316697420398733
13.882142857142856,-0.11244942708397843
13.915513392857143,-0.4254972238862583
13.948883928571428,-0.7420914866380939
13.982254464285713,-1.0035149815418791
14.015625,-1.1690096549273947
14.048995535714285,-1.2167582244722064
14.082366071428572,-1.1394912326813662
14.115736607142857,-0.9413849716940904
14.149107142857142,-0.6395557769236861
14.182477678571429,-0.26793068905280437
14.215848214285714,0.1221653939565596
14.249218749999999,0.46924029338185186
14.282589285714286,0.7164312387995927
14.31595982142857,0.8285138135633227
14.349330357142858,0.8036447371752944
14.382700892857143,0.6743815785555627
14.416071428571428,0.4973041625954842
14.449441964285715,0.33531497861489634
14.4828125,0.23904653437710852
14.516183035714285,0.23315097851581026
14.549553571428572,0.31078624910805885
14.582924107142857,0.43703354637322034
14.616294642857143,0.5600214364425912
14.649665178571428,0.6268383599242022
14.683035714285714,0.5996694970687445
14.71640625,0.466878523834453
14.749776785714285,0.245243880536783
14.78314732142857,-0.02679045651110049
14.816517857142857,-0.3011758165304406
14.849888392857142,-0.5324849850593419
14.88325892857143,-0.6867951702716625
14.916629464285714,-0.7467238413014248
14.95,-0.7137947075393684
14.983370535714286,-0.6085034016214562
15.016741071428571,-0.46656774111617044
15.050111607142856,-0.3295470210722708
15.083482142857143,-0.23069992783538817
15.116852678571428,-0.18123084659586017
15.150223214285713,-0.16452267994850486
15.18359375,-0.14368895099103465
15.216964285714285,-0.08098987128615288
15.250334821428572,0.03991386399465284
15.283705357142857,0.20115798947017327
15.317075892857142,0.3556400454345394
15.350446428571429,0.44849521210209403
15.383816964285714,0.4442187997529286
15.417187499999999,0.34497771872228133
15.450558035714286,0.19047241619445415
15.48392857142857,0.039955348689727783
15.517299107142858,-0.05366328605035031
15.550669642857143,-0.06465221006592174
15.584040178571428,-0.0014933496398864712
15.617410714285715,0.10065704205160844
15.65078125,0.1962327994825679
15.684151785714285,0.24630756092073483
15.717522321428572,0.2305674937313637
15.750892857142857,0.15187441849099226
15.784263392857143,0.033594127852367414
15.817633928571428,-0.08908398628843303
15.851004464285714,-0.18178418595502044
15.884375,-0.22391344072959965
15.917745535714285,-0.21678776433397232
15.95111607142857,-0.18227224739072084
15.984486607142857,-0.15115587545798734
16.017857142857142,-0.14630621684550668
16.05122767857143,-0.1697381199134939
16.084598214285712,-0.20165636545475918
16.11796875,-0.21303541724002345
16.151339285714286,-0.18500366237512353
16.18470982142857,-0.123462451055478
16.218080357142856,-0.05934468489511401
16.251450892857143,-0.03289702917814296
16.28482142857143,-0.06982758041204648
16.318191964285713,-0.16253344412652082
16.3515625,-0.2675852209639338
16.384933035714287,-0.3221294064662743
16.41830357142857,-0.27163212382769014
16.451674107142857,-0.09526633956616286
16.485044642857144,0.18333176596576936
16.518415178571427,0.5042867289926238
16.551785714285714,0.7934004489685695
16.58515625,0.986609315840921
16.618526785714284,1.0465650067664354
16.65189732142857,0.9669306112836188
16.685267857142858,0.7669696599917302
16.71863839285714,0.48265097855729067
16.752008928571428,0.15920704584605117
16.785379464285715,-0.15418720369072128
16.81875,-0.4103431693568506
16.852120535714285,-0.5729862442792805
16.88549107142857,-0.6273064409636069
16.91886160714286,-0.5867885401817212
16.95223214285714,-0.49047374563796475
16.98560267857143,-0.3889775923829323
17.018973214285715,-0.32414360010697396
17.05234375,-0.31187046326794776
17.085714285714285,-0.3370782369029308
17.119084821428572,-0.3638416084681293
17.152455357142856,-0.35563498018522566
17.185825892857142,-0.29504835088745707
17.21919642857143,-0.19254999345303456
17.252566964285712,-0.07988921687279407
17.2859375,0.00781452910994383
17.319308035714286,0.051163498237818926
17.35267857142857,0.056309248570977466
17.386049107142856,0.05052119316191414
17.419419642857143,0.06639356896260491
17.45279017857143,0.12345589340703386
17.486160714285713,0.21687022310624288
17.51953125,0.31888297285022
17.552901785714287,0.3921687647983782
17.58627232142857,0.4083607110823839
17.619642857142857,0.3624644000439067
17.653013392857144,0.27567196249034825
17.686383928571427,0.18473994693348678
