Time (s),Filtered Signal
0.0,0.016588396445631908
0.033370165745856356,-0.20236130718740333
0.06674033149171271,-0.38331190928052683
0.10011049723756907,-0.4967895183721571
0.13348066298342542,-0.5281022177397691
0.16685082872928178,-0.48016865587126545
0.20022099447513814,-0.37186294601710673
0.2335911602209945,-0.23208202603055786
0.26696132596685085,-0.09112156385902073
0.30033149171270723,0.027890637550807288
0.33370165745856356,0.11444521457450126
0.3670718232044199,0.17092749069436966
0.4004419889502763,0.20783253315476385
0.43381215469613266,0.23646491398507297
0.467182320441989,0.26301344289416284
0.5005524861878453,0.28714299963583095
0.5339226519337017,0.3055321631321323
0.5672928176795581,0.3175553882951854
0.6006629834254145,0.32862493218198224
0.6340331491712707,0.3479384411248289
0.6674033149171271,0.381102662885424
0.7007734806629835,0.42209108041548776
0.7341436464088398,0.45048944356992954
0.7675138121546962,0.4375857984079155
0.8008839779005525,0.35967089670096897
0.8342541436464089,0.21202926751007714
0.8676243093922653,0.015688405866852533
0.9009944751381216,-0.18778014248270733
0.934364640883978,-0.35189842974564467
0.9677348066298344,-0.4441456915357133
1.0011049723756906,-0.4588993637559595
1.0344751381215471,-0.41823711564924804
1.0678453038674034,-0.3605408813514992
1.1012154696132597,-0.3228568015348726
1.1345856353591162,-0.3256740536360454
1.1679558011049724,-0.36694724581961663
1.201325966850829,-0.42703330762735037
1.2346961325966852,-0.48065644060030305
1.2680662983425415,-0.5089979285695265
1.301436464088398,-0.50591156926072
1.3348066298342542,-0.47622779550349553
1.3681767955801105,-0.4286479255405649
1.401546961325967,-0.36828213388913855
1.4349171270718233,-0.2932903443584241
1.4682872928176796,-0.1970956052779466
1.501657458563536,-0.07424117427736082
1.5350276243093923,0.07391804557890774
1.5683977900552488,0.23705097692526556
1.601767955801105,0.39835631500175295
1.6351381215469614,0.540289272837807
1.6685082872928179,0.6504529329700423
1.7018784530386741,0.7246539462059531
1.7352486187845306,0.765665987994273
1.768618784530387,0.778485472779544
1.8019889502762432,0.7647668265983717
1.8353591160220997,0.7197643198545575
1.868729281767956,0.634024401579723
1.9020994475138122,0.49958807003906724
1.9354696132596687,0.3177354600698372
1.968839779005525,0.10388681711739628
2.0022099447513813,-0.11376760210361533
2.0355801104972375,-0.30223791254451826
2.0689502762430942,-0.43502709495966135
2.1023204419889505,-0.5014698423314894
2.135690607734807,-0.5096827173168408
2.169060773480663,-0.48187352099953035
2.2024309392265193,-0.44441883010179845
2.235801104972376,-0.41727457733016876
2.2691712707182323,-0.4070320051323223
2.3025414364640886,-0.4058107176871914
2.335911602209945,-0.3956002143022682
2.369281767955801,-0.3558980914767413
2.402651933701658,-0.2719789734753315
2.436022099447514,-0.1414567843585331
2.4693922651933704,0.02265698923575375
2.5027624309392267,0.19364986285489402
2.536132596685083,0.337923081758175
2.5695027624309392,0.4256995339256894
2.602872928176796,0.44237929061157144
2.636243093922652,0.39589450923366515
2.6696132596685085,0.31587833510582364
2.7029834254143648,0.24328738876014477
2.736353591160221,0.21343435430467655
2.7697237569060777,0.23918336867271542
2.803093922651934,0.3021855324116712
2.8364640883977903,0.35740803078289396
2.8698342541436466,0.3505712188485942
2.903204419889503,0.2418602664199643
2.936574585635359,0.02550730278087974
2.969944751381216,-0.26417914057252656
3.003314917127072,-0.5639225296331544
3.0366850828729284,-0.8051427303983972
3.0700552486187846,-0.9392850892898765
3.103425414364641,-0.9530749625671856
3.1367955801104976,-0.8672803620925686
3.170165745856354,-0.7211537062125033
3.20353591160221,-0.5517404146409453
3.2369060773480665,-0.3789360258802901
3.2702762430939227,-0.20306711004030908
3.3036464088397794,-0.014586715896496773
3.3370165745856357,0.19079625499573652
3.370386740331492,0.40057893950156526
3.4037569060773483,0.5842123181330975
3.4371270718232045,0.7033299211429345
3.4704972375690613,0.7287843627876754
3.5038674033149175,0.6563322918908958
3.537237569060774,0.5132115646721435
3.57060773480663,0.35182336028209854
3.6039779005524863,0.23236739431778464
3.6373480662983426,0.20106696753825304
3.6707182320441993,0.2725757111217032
3.7040883977900556,0.4235743615101154
3.737458563535912,0.6001649878843018
3.770828729281768,0.7362507759440176
3.8041988950276244,0.7758557430932584
3.837569060773481,0.6910359012827235
3.8709392265193374,0.4891598854858535
3.9043093922651937,0.2078587385385974
3.93767955801105,-0.09921824331660184
3.9710497237569062,-0.37962895619369047
4.0044198895027625,-0.5959041732075699
4.037790055248619,-0.731756966938902
4.071160220994475,-0.7902547405355427
4.104530386740332,-0.7867140322591845
4.1379005524861885,-0.7406198100033129
4.171270718232044,-0.670192514935032
4.204640883977901,-0.5908513771365079
4.238011049723757,-0.5161469056592826
4.271381215469614,-0.4583456071242075
4.30475138121547,-0.4265898895072293
4.338121546961326,-0.42291882888535687
4.371491712707183,-0.4387820869674627
4.404861878453039,-0.4552713604786036
4.438232044198895,-0.4485095688808806
4.471602209944752,-0.39850050307900303
4.504972375690608,-0.2972983904332676
4.538342541436465,-0.1522921480438761
4.5717127071823205,0.01713041687668819
4.605082872928177,0.18774339674400284
4.638453038674034,0.34119728843722064
4.67182320441989,0.46898848389853526
4.7051933701657465,0.5716884971483112
4.738563535911602,0.6536445820739255
4.771933701657459,0.7166754501518887
4.805303867403316,0.756547246724672
4.8386740331491715,0.764240589524496
4.872044198895028,0.7312657502652378
4.905414364640884,0.6560349327805655
4.938784530386741,0.5477062398948426
4.972154696132597,0.42521788792709064
5.005524861878453,0.31167780481660834
5.03889502762431,0.22654757603695744
5.072265193370166,0.17902997584491087
5.105635359116023,0.16538927670518436
5.1390055248618784,0.17112655677766944
5.172375690607735,0.1769595937076293
5.205745856353592,0.16622687293864788
5.239116022099448,0.13097097142783196
5.272486187845304,0.07446420941048942
5.30585635359116,0.009078201888046304
5.339226519337017,-0.050051483749887625
5.372596685082874,-0.09342096830441922
5.4059668508287295,-0.1241164318455576
5.439337016574586,-0.15954198354249796
5.472707182320442,-0.22553393903152705
5.506077348066299,-0.34364463936323203
5.5394475138121555,-0.5163276542028836
5.572817679558011,-0.7175703401241816
5.606187845303868,-0.896119309488211
5.639558011049724,-0.9938359169037524
5.672928176795581,-0.9740597416298432
5.706298342541437,-0.8475504385656583
5.739668508287293,-0.680969084423859
5.77303867403315,-0.5779079010466811
5.806408839779006,-0.6345492009581855
5.839779005524862,-0.8862587402676959
5.873149171270718,-1.2704176020942977
5.906519337016575,-1.628343653028276
5.939889502762432,-1.7540186809103466
5.9732596685082875,-1.4751026617554892
6.006629834254144,-0.7330515644422423
6.04,0.3752517244701961
6.073370165745857,1.617566722416192
6.1067403314917135,2.7034971623960247
6.140110497237569,3.3866857578551555
6.173480662983426,3.547255075499472
6.206850828729282,3.2193723374891436
6.240220994475139,2.555857568745816
6.273591160220995,1.7518973858818638
6.306961325966851,0.9674472849722203
6.340331491712708,0.28427891953607926
6.373701657458564,-0.2881255150499316
6.40707182320442,-0.7709075337174206
6.440441988950277,-1.1691488929393197
6.473812154696133,-1.4498155317044432
6.50718232044199,-1.555966679541119
6.5405524861878455,-1.4455431629645705
6.573922651933702,-1.1284580280221264
6.607292817679559,-0.6778342010764128
6.640662983425415,-0.2075746343973742
6.674033149171271,0.1716629067330009
6.707403314917127,0.3943714375554418
6.740773480662984,0.45875105675192995
6.774143646408841,0.41455744819937923
6.8075138121546965,0.32939116834721316
6.840883977900553,0.25259173643337524
6.874254143646409,0.1949055651934019
6.907624309392266,0.13192909700935984
6.9409944751381225,0.02633113779562745
6.974364640883978,-0.14500799443736348
7.007734806629835,-0.37358412643463357
7.041104972375691,-0.6195649281788798
7.074475138121548,-0.8279745782948363
7.107845303867403,-0.9513376216172199
7.14121546961326,-0.9674476300219564
7.174585635359117,-0.8848535055594977
7.207955801104973,-0.7355286598413303
7.241325966850829,-0.5600698269360903
7.274696132596685,-0.3929612433830193
7.308066298342542,-0.2536916742388319
7.341436464088399,-0.14562946045840233
7.3748066298342545,-0.060922431729325585
7.408176795580111,0.012151684173970997
7.441546961325967,0.08280009094861843
7.474917127071824,0.15432974837054703
7.5082872928176805,0.22420271874999184
7.541657458563536,0.28681910644428815
7.575027624309393,0.33772412671402613
7.608397790055249,0.3776888633823489
7.641767955801106,0.4150096407647041
7.675138121546962,0.46450292545276506
7.708508287292818,0.5424063298432176
7.741878453038675,0.6579897041953378
7.775248618784531,0.8047907910574088
7.808618784530387,0.9559154756338114
7.841988950276244,1.0674299122470188
7.8753591160221,1.0909159781572368
7.908729281767957,0.9916924826655736
7.9420994475138125,0.7653293341951222
7.975469613259669,0.4443741814189202
8.008839779005525,0.09072673181873543
8.042209944751383,-0.2244592051303686
8.075580110497238,-0.4452987176567877
8.108950276243094,-0.5495817453968239
8.14232044198895,-0.5532359893700903
8.175690607734808,-0.4996038676449879
8.209060773480664,-0.439256309511243
8.24243093922652,-0.40983936894120765
8.275801104972377,-0.42437859015216334
8.309171270718233,-0.47157152063508434
8.342541436464089,-0.5257425789383081
8.375911602209946,-0.5602818273309267
8.409281767955802,-0.5580685557167827
8.442651933701658,-0.515143984598465
8.476022099447514,-0.4378745274408799
8.509392265193371,-0.3368959568632427
8.542762430939227,-0.22191628330973445
8.576132596685083,-0.09998161403717845
8.60950276243094,0.022786136359392365
8.642872928176796,0.13814938996177256
8.676243093922652,0.234246036575078
8.709613259668508,0.2974082456136119
8.742983425414366,0.31702979102092255
8.776353591160222,0.2911746432311832
8.809723756906077,0.22968297717905156
8.843093922651935,0.15229539777394352
8.87646408839779,0.08164914328104066
8.909834254143647,0.033898356939779876
8.943204419889504,0.011593009905715563
8.97657458563536,0.0029598905366438394
9.009944751381216,-0.01131142274253567
9.043314917127072,-0.046837450161031434
9.07668508287293,-0.10580102709572609
9.110055248618785,-0.1742915466272984
9.143425414364641,-0.22863236056485423
9.176795580110499,-0.2475670458247427
9.210165745856354,-0.22372338391718596
9.24353591160221,-0.16797898730607025
9.276906077348068,-0.10414490539374198
9.310276243093924,-0.05662204499577321
9.34364640883978,-0.03747063089548582
9.377016574585635,-0.039666760138166536
9.410386740331493,-0.04012801609492051
9.443756906077349,-0.011129176911160391
9.477127071823205,0.06544192588111163
9.510497237569062,0.18790098335502442
9.543867403314918,0.3335946172589245
9.577237569060774,0.46744932825296587
9.610607734806631,0.5564984434287245
9.643977900552487,0.5839222000403936
9.677348066298343,0.5562332378637735
9.710718232044199,0.5000669906774726
9.744088397790057,0.44948420814352436
9.777458563535912,0.42902425603266087
9.810828729281768,0.4401248836462109
9.844198895027626,0.4576688930915531
9.877569060773482,0.43929413369576636
9.910939226519337,0.3442486388086105
9.944309392265193,0.15367461923219514
9.97767955801105,-0.11712924074593034
10.011049723756907,-0.42064988344439663
10.044419889502763,-0.6929847541117409
10.07779005524862,-0.8767300432397231
10.111160220994476,-0.9409692072056146
10.144530386740332,-0.8901110970618976
10.17790055248619,-0.7587515182934973
10.211270718232045,-0.5959354789965786
10.244640883977901,-0.44624416683364615
10.278011049723757,-0.3355366141029118
10.311381215469615,-0.2662877540939334
10.34475138121547,-0.22291763759969022
10.378121546961326,-0.18334621951774752
10.411491712707184,-0.13089319541904432
10.44486187845304,-0.06127138974019636
10.478232044198895,0.017711414104286696
10.511602209944753,0.09249298960992275
10.544972375690609,0.15221066353520205
10.578342541436465,0.194759463669636
10.61171270718232,0.22753538923340486
10.645082872928178,0.2627740550464242
10.678453038674034,0.31005340369766543
10.71182320441989,0.3698086605691329
10.745193370165747,0.4311219011433332
10.778563535911603,0.4749830363660483
10.811933701657459,0.48168235285360755
10.845303867403315,0.4391314970424621
10.878674033149172,0.3485122150782298
10.912044198895028,0.22484959427356058
10.945414364640884,0.09232163571745694
10.978784530386742,-0.02367985552723036
11.012154696132598,-0.10452439214426473
11.045524861878453,-0.1434087232043927
11.078895027624311,-0.1460185537534646
11.112265193370167,-0.12712151170119856
11.145635359116023,-0.10480479912296123
11.179005524861878,-0.09455299975645626
11.212375690607736,-0.10499898863947767
11.245745856353592,-0.13632867750549701
11.279116022099448,-0.18136332622085974
11.312486187845305,-0.2285505638489391
11.345856353591161,-0.2656350836816641
11.379226519337017,-0.28276076549094553
11.412596685082875,-0.2741814330954667
11.44596685082873,-0.23844681959995104
11.479337016574586,-0.17755347062439822
11.512707182320442,-0.09581202160335715
11.5460773480663,0.0009918000876697592
11.579447513812156,0.1059981677935568
11.612817679558011,0.21148368703003192
11.646187845303869,0.30923608409321207
11.679558011049725,0.3912262702413159
11.71292817679558,0.4503598021408792
11.746298342541436,0.48093393970989146
11.779668508287294,0.4786660637409407
11.81303867403315,0.44065244958880284
11.846408839779006,0.36591638936534626
11.879779005524863,0.25689782847775755
11.91314917127072,0.1213533143596342
11.946519337016575,-0.026732915250403593
11.979889502762433,-0.16868720793105949
12.013259668508288,-0.2854970643684555
12.046629834254144,-0.3635835272560088
12.08,-0.3993377692020328
12.113370165745858,-0.3999774956918764
12.146740331491714,-0.380034620298464
12.18011049723757,-0.35508183174482166
12.213480662983427,-0.33574006448645644
12.246850828729283,-0.32473250287628924
12.280220994475139,-0.3179933198768198
12.313591160220996,-0.30868134241767325
12.346961325966852,-0.29159297496409525
12.380331491712708,-0.2655514443198313
12.413701657458564,-0.2326880062819687
12.447071823204421,-0.19533963750987993
12.480441988950277,-0.15263198541745795
12.513812154696133,-0.09904252244085758
12.54718232044199,-0.02623628066105248
12.580552486187846,0.0722956196126
12.613922651933702,0.1959321135420684
12.64729281767956,0.33379447301061427
12.680662983425416,0.46590272429538376
12.714033149171271,0.5687616873735217
12.747403314917127,0.6232334473731741
12.780773480662985,0.6211721223485592
12.81414364640884,0.5677153287067931
12.847513812154697,0.4782633046468146
12.880883977900554,0.37187947273533356
12.91425414364641,0.2645388998767387
12.947624309392266,0.16535347421269425
12.980994475138122,0.07689496750961167
13.01436464088398,-0.0016431571622285703
13.047734806629835,-0.07099153855659458
13.081104972375691,-0.13017255290149957
13.114475138121549,-0.17718898396808
13.147845303867404,-0.21094123757775335
13.18121546961326,-0.23270534282934457
13.214585635359118,-0.24610553884680383
13.247955801104974,-0.25565880357189197
13.28132596685083,-0.2648035166650665
13.314696132596685,-0.2744165675351854
13.348066298342543,-0.28236380474156003
13.381436464088399,-0.28411794961127007
13.414806629834255,-0.2742277336830982
13.448176795580112,-0.2483436844494151
13.481546961325968,-0.205339090760682
13.514917127071824,-0.148761459139954
13.548287292817681,-0.08670466819385808
13.581657458563537,-0.02957879976610089
13.615027624309393,0.013781012946960094
13.648397790055249,0.04013536678322097
13.681767955801106,0.05395204919933291
13.715138121546962,0.06612659331128319
13.748508287292818,0.08934216073556264
13.781878453038676,0.13185962359590395
13.815248618784532,0.19259373956530995
13.848618784530387,0.26002626048449395
13.881988950276245,0.3158300654132471
13.9153591160221,0.341788499101171
13.948729281767957,0.32688532132711434
13.982099447513813,0.2713025348534776
14.01546961325967,0.18564958905188447
14.048839779005526,0.08618665788228881
14.082209944751382,-0.01131557053871015
14.11558011049724,-0.09616126764151225
14.148950276243095,-0.16415851707031345
14.182320441988951,-0.21620193115777675
14.215690607734807,-0.2555968057103442
14.249060773480664,-0.2857395728323493
14.28243093922652,-0.3088518966721573
14.315801104972376,-0.3254785944645752
14.349171270718234,-0.3341438208314525
14.38254143646409,-0.33100220887590076
14.415911602209945,-0.30997180273927777
14.449281767955803,-0.2640130447277247
14.482651933701659,-0.1876778677338504
14.516022099447515,-0.08015877361379707
14.54939226519337,0.05252494357557844
14.582762430939228,0.1974138738298442
14.616132596685084,0.336936888169659
14.64950276243094,0.45298728470262783
14.682872928176797,0.5313119786746477
14.716243093922653,0.5646787242865522
14.749613259668509,0.5538180529379709
14.782983425414367,0.5060367947121029
14.816353591160222,0.43227830016404256
14.849723756906078,0.3438790546102715
14.883093922651934,0.25013467938046874
14.916464088397792,0.15715977664649947
14.949834254143648,0.0678370142124284
14.983204419889503,-0.017634919602827294
15.016574585635361,-0.10084995290834595
15.049944751381217,-0.18381912946275863
15.083314917127073,-0.2669508424788636
15.116685082872928,-0.34679700662402657
15.150055248618786,-0.41475658146265204
15.183425414364642,-0.4581766701890094
15.216795580110498,-0.464477417270699
15.250165745856355,-0.4272355004597427
15.283535911602211,-0.35152060695525295
15.316906077348067,-0.2553270251009608
15.350276243093925,-0.16526073808169364
15.38364640883978,-0.10729838981783231
15.417016574585636,-0.09614256558689714
15.450386740331492,-0.12798914657979368
15.48375690607735,-0.18052641746827516
15.517127071823205,-0.22093728711047048
15.550497237569061,-0.21891382072383148
15.583867403314919,-0.15908737933760683
15.617237569060775,-0.047279312159891965
15.65060773480663,0.09223958817405918
15.683977900552488,0.22705077981049324
15.717348066298344,0.3294907346450507
15.7507182320442,0.3862001559896705
15.784088397790056,0.4003551788295506
15.817458563535913,0.38643450266345086
15.85082872928177,0.3609549571061629
15.884198895027625,0.3341434409102879
15.917569060773483,0.3064201836571446
15.950939226519338,0.2706877280243076
15.984309392265194,0.2184309723213363
16.01767955801105,0.14606396325096158
16.051049723756908,0.05837966128094435
16.084419889502765,-0.03219521695144219
16.11779005524862,-0.10976468903292962
16.151160220994477,-0.16049664274967224
16.18453038674033,-0.17731674498520503
16.21790055248619,-0.16219631275275637
16.251270718232046,-0.12542117466079203
16.2846408839779,-0.08220094002031007
16.318011049723758,-0.04781696615225664
16.351381215469615,-0.032985159826216505
16.38475138121547,-0.040954797354453835
16.418121546961327,-0.06707134265568031
16.451491712707185,-0.10053718226894534
16.48486187845304,-0.12750818105418668
16.518232044198896,-0.13470161683242657
16.551602209944754,-0.11301856598792188
16.584972375690608,-0.06074121035425307
16.618342541436466,0.014515832744193371
16.651712707182323,0.09628091363336043
16.685082872928177,0.16295942628833265
16.718453038674035,0.19437776598493087
16.751823204419892,0.17905719455519553
16.785193370165747,0.11920292763137634
16.818563535911604,0.030915544620120087
16.851933701657458,-0.0609785577030678
16.885303867403316,-0.1317204095122874
16.918674033149173,-0.16559966245797453
16.952044198895027,-0.16147603357909787
16.985414364640885,-0.1325406157991606
17.018784530386743,-0.10036280660192566
17.052154696132597,-0.08565509686777024
17.085524861878454,-0.09960623603830246
17.118895027624312,-0.1394136986085204
17.152265193370166,-0.18979782268033382
17.185635359116024,-0.22959578800709024
17.21900552486188,-0.24029764327281597
17.252375690607735,-0.21272423942815202
17.285745856353593,-0.1492612325180276
