Frequency (Hz),Amplitude
0.0,0.6994398138804376
0.019867549668874173,0.7001358776892055
0.039735099337748346,0.702217161773868
0.059602649006622516,0.7056631584821617
0.07947019867549669,0.7104403866942841
0.09933774834437085,0.7165033845371671
0.11920529801324503,0.7237959972508974
0.13907284768211922,0.732252874283626
0.15894039735099338,0.7418010844035501
0.17880794701986755,0.7523617615629556
0.1986754966887417,0.763851705454278
0.2185430463576159,0.7761848765060086
0.23841059602649006,0.7892737427556161
0.2582781456953642,0.8030304532911279
0.27814569536423844,0.8173678281229773
0.2980132450331126,0.8322001665113332
0.31788079470198677,0.8474438846354407
0.33774834437086093,0.8630179992282291
0.3576158940397351,0.8788444768638646
0.3774834437086093,0.894848469560661
0.3973509933774834,0.9109584568331753
0.4172185430463576,0.9271063128189585
0.4370860927152318,0.9432273150460332
0.45695364238410596,0.9592601091153178
0.4768211920529801,0.9751466412740044
0.49668874172185434,0.990832068693884
0.5165562913907285,1.0062646553237085
0.5364238410596026,1.0213956594940674
0.5562913907284769,1.03617921802144
0.5761589403973509,1.0505722303729628
0.5960264900662252,1.0645342454910962
0.6158940397350993,1.0780273531096802
0.6357615894039735,1.0910160807903388
0.6556291390728477,1.1034672974434925
0.6754966887417219,1.11535012374642
0.695364238410596,1.1266358496092155
0.7152317880794702,1.137297858650449
0.7350993377483444,1.1473115595119021
0.7549668874172186,1.1566543237532185
0.7748344370860927,1.1653054300124652
0.7947019867549668,1.1732460140898495
0.8145695364238411,1.180459024601505
0.8344370860927152,1.186929183854966
0.8543046357615894,1.1926429536121945
0.8741721854304636,1.1975885054283153
0.8940397350993378,1.2017556952812276
0.9139072847682119,1.2051360422377595
0.9337748344370861,1.2077227109354167
0.9536423841059603,1.2095104976929085
0.9735099337748344,1.2104958200978835
0.9933774834437087,1.2106767099567062
1.0132450331125828,1.2100528095263408
1.033112582781457,1.2086253709854828
1.0529801324503312,1.206397259137661
1.0728476821192052,1.2033729573756253
1.0927152317880795,1.1995585769725094
1.1125827814569538,1.1949618698014575
1.1324503311258278,1.1895922446211524
1.1523178807947019,1.183460787100521
1.1721854304635762,1.1765802837908885
1.1920529801324504,1.1689652502868835
1.2119205298013245,1.1606319638501992
1.2317880794701985,1.1515985007979008
1.2516556291390728,1.1418847789822486
1.271523178807947,1.1315126057062943
1.2913907284768211,1.1205057314286078
1.3112582781456954,1.1088899096067875
1.3311258278145695,1.0966929630086282
1.3509933774834437,1.083944856776193
1.370860927152318,1.0706777784541963
1.390728476821192,1.056926225080439
1.410596026490066,1.0427270972711893
1.4304635761589404,1.0281198000035536
1.4503311258278146,1.0131463494839696
1.4701986754966887,0.9978514850738271
1.4900662251655628,0.9822827846995683
1.5099337748344372,0.966490781475618
1.5298013245033113,0.9505290783864019
1.5496688741721854,0.9344544567805793
1.5695364238410596,0.9183269730985959
1.5894039735099337,0.9022100366666921
1.609271523178808,0.8861704595442217
1.6291390728476822,0.8702784673266218
1.6490066225165563,0.8546076575480867
1.6688741721854303,0.8392348900099691
1.6887417218543048,0.8242400911723788
1.7086092715231789,0.8097059529713416
1.728476821192053,0.7957175054420189
1.7483443708609272,0.7823615428317395
1.7682119205298013,0.7697258850395208
1.7880794701986755,0.7578984608193974
1.8079470198675496,0.7469662067530886
1.8278145695364238,0.7370137868431904
1.847682119205298,0.7281221516169045
1.8675496688741722,0.7203669722107843
1.8874172185430464,0.7138170026716363
1.9072847682119205,0.7085324405938818
1.9271523178807946,0.7045633696127193
1.9470198675496688,0.7019483744375993
1.9668874172185429,0.7007134177124702
1.9867549668874174,0.7008710567635706
2.0066225165562916,0.7024200575362118
2.0264900662251657,0.7053454347785766
2.0463576158940397,0.7096189153486654
2.066225165562914,0.7151997897704288
2.086092715231788,0.7220360901251851
2.1059602649006623,0.7300660133320539
2.1258278145695364,0.7392194995623194
2.1456953642384105,0.7494198759148556
2.165562913907285,0.7605854840358826
2.185430463576159,0.7726312246399676
2.205298013245033,0.7854699691193452
2.2251655629139075,0.7990138060925703
2.2450331125827816,0.8131751069063632
2.2649006622516556,0.8278674075520552
2.2847682119205297,0.843006114660721
2.3046357615894038,0.8585090502035498
2.324503311258278,0.8742968536101714
2.3443708609271523,0.890293261771966
2.364238410596027,0.9064252874143512
2.384105960264901,0.9226233151583814
2.403973509933775,0.9388211327146657
2.423841059602649,0.9549559124256041
2.443708609271523,0.970968156056964
2.463576158940397,0.9868016135110995
2.4834437086092715,1.0024031840952707
2.5033112582781456,1.01772280718319
2.52317880794702,1.0327133475717858
2.543046357615894,1.0473304795522662
2.562913907284768,1.0615325726648388
2.5827814569536423,1.0752805812625712
2.6026490066225163,1.0885379393437955
2.622516556291391,1.1012704615943123
2.642384105960265,1.1134462511852936
2.662251655629139,1.1250356145769929
2.6821192052980134,1.1360109833610572
2.7019867549668874,1.1463468430207802
2.7218543046357615,1.156019668382576
2.741721854304636,1.165007865465334
2.76158940397351,1.173291719394437
2.781456953642384,1.1808533480310694
2.801324503311258,1.187676660965567
2.821192052980132,1.1937473235347302
2.8410596026490067,1.1990527255421335
2.8609271523178808,1.2035819543856625
2.8807947019867552,1.2073257723258022
2.9006622516556293,1.2102765976605934
2.9205298013245033,1.212428489606805
2.9403973509933774,1.2137771367221275
2.9602649006622515,1.2143198487388311
2.9801324503311255,1.2140555517153209
3.0,1.2129847864483052
3.0198675496688745,1.2111097101245443
3.0397350993377485,1.2084341012274609
3.0596026490066226,1.204963367750159
3.0794701986754967,1.200704558802807
3.0993377483443707,1.1956663797382463
3.119205298013245,1.1898592109557364
3.1390728476821192,1.1832951305777972
3.1589403973509933,1.1759879412296652
3.1788079470198674,1.167953201183251
3.198675496688742,1.1592082601576514
3.218543046357616,1.149772300094772
3.23841059602649,1.1396663812488745
3.2582781456953644,1.1289134939418592
3.2781456953642385,1.1175386163375014
3.2980132450331126,1.105568778574485
3.3178807947019866,1.0930331335636516
3.3377483443708607,1.0799630346938258
3.3576158940397347,1.0663921205931495
3.3774834437086096,1.0523564069491051
3.3973509933774837,1.0378943851866562
3.4172185430463577,1.0230471275244324
3.437086092715232,1.0078583975535214
3.456953642384106,0.9923747649910162
3.47682119205298,0.9766457226235034
3.4966887417218544,0.960723802647686
3.5165562913907285,0.9446646886056769
3.5364238410596025,0.9285273178749534
3.556291390728477,0.9123739681839228
3.576158940397351,0.8962703198756881
3.596026490066225,0.8802854836439865
3.615894039735099,0.8644919812626322
3.6357615894039736,0.8489656645144056
3.6556291390728477,0.83378555525698
3.6754966887417218,0.8190335875848017
3.695364238410596,0.8047942317002665
3.7152317880794703,0.7911539788421668
3.7350993377483444,0.7782006679766827
3.754966887417219,0.7660226385275694
3.774834437086093,0.7547076997742558
3.794701986754967,0.744341917089605
3.814569536423841,0.7350082280175352
3.834437086092715,0.7267849168951072
3.854304635761589,0.7197439942368126
3.8741721854304636,0.7139495446274341
3.8940397350993377,0.7094561219906586
3.9139072847682117,0.706307281062819
3.9337748344370858,0.704534336137329
3.9536423841059607,0.7041554308961234
3.9735099337748347,0.7051749860396209
3.993377483443709,0.7075835658193538
4.013245033112583,0.7113581734722068
4.033112582781457,0.7164629530887209
4.052980132450331,0.7228502460464294
4.072847682119205,0.7304619275809775
4.0927152317880795,0.7392309357479906
4.112582781456953,0.7490829016074789
4.132450331125828,0.7599377949695938
4.152317880794702,0.7717115123244324
4.172185430463576,0.7843173499324335
4.19205298013245,0.7976673228060269
4.211920529801325,0.8116733072690079
4.231788079470199,0.8262479994298001
4.251655629139073,0.8413056934539279
4.271523178807947,0.8567628917784234
4.291390728476821,0.8725387646150228
4.311258278145695,0.8885554787284916
4.33112582781457,0.9047384161373128
4.3509933774834435,0.9210163026459441
4.370860927152318,0.937321264486399
4.390728476821192,0.9535888292293377
4.410596026490066,0.9697578848227092
4.43046357615894,0.9857706083371651
4.450331125827815,1.0015723738726305
4.470198675496689,1.0171116471817088
4.490066225165563,1.0323398729222826
4.509933774834438,1.0472113590662009
4.529801324503311,1.0616831618470846
4.549668874172186,1.075714973705226
4.569536423841059,1.0892690159499503
4.589403973509934,1.1023099372839726
4.6092715231788075,1.114804718889874
4.629139072847682,1.126722586444626
4.649006622516556,1.1380349291792191
4.66887417218543,1.1487152259221607
4.688741721854305,1.1587389779413788
4.708609271523179,1.168083648316279
4.728476821192054,1.1767286075220194
4.748344370860927,1.1846550848821058
4.768211920529802,1.1918461255384234
4.788079470198675,1.1982865525937
4.80794701986755,1.2039629340973064
4.827814569536423,1.2088635545684738
4.847682119205298,1.2129783907786629
4.867549668874172,1.216299091545812
4.887417218543046,1.2188189613268616
4.9072847682119205,1.2205329474292568
4.927152317880794,1.2214376306979868
4.947019867549669,1.2215312195705246
4.966887417218543,1.2208135474282875
4.986754966887418,1.2192860732097657
5.006622516556291,1.2169518852866894
5.026490066225166,1.2138157086410908
5.04635761589404,1.209883915417609
5.066225165562914,1.2051645389616796
5.086092715231788,1.1996672914899424
5.105960264900662,1.1934035855756804
5.125827814569536,1.1863865596657834
5.14569536423841,1.1786311078801703
5.1655629139072845,1.1701539143750899
5.185430463576159,1.16097349258012
5.205298013245033,1.1511102296411002
5.225165562913908,1.140586436417845
5.245033112582782,1.129426403390739
5.264900662251656,1.117656462823488
5.28476821192053,1.1053050575026298
5.304635761589404,1.0924028163241568
5.324503311258278,1.078982636914191
5.344370860927152,1.0650797753450585
5.364238410596027,1.0507319428276962
5.3841059602649,1.035979409010976
5.403973509933775,1.0208651111808587
5.4238410596026485,1.0054347682044313
5.443708609271523,0.9897369974830655
5.463576158940397,0.9738234324363465
5.483443708609272,0.957748837105619
5.503311258278146,0.9415712133149511
5.52317880794702,0.9253518944318121
5.543046357615895,0.909155618116993
5.562913907284768,0.8930505685428884
5.582781456953643,0.8771083764237495
5.602649006622516,0.8614040629118465
5.622516556291391,0.8460159111028399
5.642384105960264,0.8310252467699114
5.662251655629139,0.8165161083145793
5.682119205298013,0.8025747851889293
5.701986754966887,0.7892892047190788
5.7218543046357615,0.7767481499210752
5.741721854304636,0.7650402961364119
5.7615894039735105,0.7542530626101902
5.781456953642384,0.7444712867277002
5.801324503311259,0.7357757433183928
5.821192052980132,0.7282415484316573
5.841059602649007,0.7219365047728906
5.860927152317881,0.7169194623618398
5.880794701986755,0.713238780267952
5.900662251655629,0.7109309807859687
5.920529801324503,0.7100196839946639
5.940397350993377,0.7105148973251573
5.960264900662251,0.7124127122161104
5.980132450331126,0.7156954305416869
6.0,0.7203321110365563
6.0198675496688745,0.7262794948252517
6.039735099337749,0.7334832435213252
6.059602649006623,0.7418794061960875
6.079470198675497,0.7513960241858032
6.099337748344371,0.7619547848500633
6.119205298013245,0.7734726452674979
6.139072847682119,0.7858633619020268
6.158940397350993,0.7990388797536697
6.178807947019867,0.8129105519997769
6.198675496688741,0.8273901768438086
6.218543046357616,0.8423908511438705
6.23841059602649,0.8578276499781342
6.258278145695365,0.8736181477037763
6.2781456953642385,0.8896827996866011
6.298013245033113,0.9059452052801282
6.317880794701987,0.9223322724057467
6.337748344370861,0.9387743027700668
6.357615894039735,0.9552050147994334
6.377483443708609,0.9715615191181424
6.397350993377484,0.9877842590913533
6.417218543046357,1.0038169267546915
6.437086092715232,1.0196063624561602
6.456953642384105,1.0351024447848292
6.47682119205298,1.050257975869919
6.496688741721854,1.065028565891552
6.516556291390729,1.079372519630975
6.5364238410596025,1.093250727075232
6.556291390728477,1.106626559450647
6.5761589403973515,1.1194657715623695
6.596026490066225,1.1317364109391082
6.6158940397351,1.1434087339991301
6.635761589403973,1.1544551292472316
6.655629139072848,1.1648500473665302
6.675496688741721,1.1745699379693082
6.695364238410596,1.1835931927088839
6.715231788079469,1.1919000944182236
6.735099337748344,1.1994727719272338
6.754966887417219,1.2062951602107868
6.774834437086093,1.212352965532047
6.794701986754967,1.2176336352654717
6.814569536423841,1.2221263321103135
6.8344370860927155,1.2258219124346188
6.854304635761589,1.228712908523136
6.874172185430464,1.2307935145359048
6.894039735099337,1.2320595760204098
6.913907284768212,1.2325085828555862
6.933774834437086,1.2321396655425207
6.95364238410596,1.23095359479314
6.973509933774834,1.2289527844046861
6.993377483443709,1.2261412974444232
7.013245033112583,1.2225248558054655
7.033112582781457,1.2181108532313973
7.052980132450331,1.212908371943387
7.072847682119205,1.2069282030396131
7.0927152317880795,1.2001828708720275
7.112582781456954,1.1926866616395966
7.132450331125828,1.1844556564692574
7.152317880794702,1.175507769285045
7.172185430463576,1.1658627897907672
7.19205298013245,1.1555424319102485
7.211920529801324,1.1445703880386326
7.231788079470198,1.132972389455936
7.251655629139073,1.1207762732345734
7.271523178807947,1.10801205593106
7.291390728476822,1.0947120142804536
7.311258278145695,1.080910773002157
7.33112582781457,1.0666453996648129
7.3509933774834435,1.0519555063335226
7.370860927152318,1.0368833574160126
7.390728476821192,1.021473982716883
7.410596026490066,1.0057752941761025
7.430463576158941,0.9898382040838632
7.450331125827814,0.9737167416994955
7.470198675496689,0.9574681641290735
7.490066225165562,0.9411530560078675
7.509933774834438,0.9248354109707876
7.52980132450331,0.9085826860716262
7.549668874172186,0.892465818249089
7.569536423841059,0.8765591896903985
7.589403973509934,0.8609405266203138
7.6092715231788075,0.8456907138231581
7.629139072847682,0.8308935053571577
7.649006622516557,0.8166351108117731
7.66887417218543,0.8030036365636207
7.6887417218543055,0.7900883633615494
7.708609271523178,0.7779788458098976
7.728476821192054,0.7667638264566128
7.748344370860927,0.7565299675759463
7.768211920529802,0.7473604173470635
7.788079470198675,0.7393332434123765
7.80794701986755,0.7325197845112028
7.827814569536423,0.726982988072817
7.847682119205298,0.722775815790766
7.8675496688741715,0.7199398075428233
7.887417218543046,0.7185038941475198
7.907284768211921,0.7184835398873408
7.927152317880795,0.7198802764963188
7.9470198675496695,0.7226816631503935
7.966887417218543,0.7268616752194418
7.986754966887418,0.7323814923976254
8.006622516556291,0.7391906286594268
8.026490066225167,0.7472283257981724
8.046357615894038,0.756425121111957
8.066225165562914,0.7667044983925007
8.086092715231787,0.7779845384882678
8.105960264900663,0.7901794990440265
8.125827814569536,0.8032012698415893
8.14569536423841,0.8169606678911799
8.165562913907285,0.8313685529971381
8.185430463576159,0.8463367585879261
8.205298013245034,0.8617788435013707
8.225165562913906,0.8776106780566333
8.245033112582782,0.8937508824228426
8.264900662251655,0.9101211375241334
8.28476821192053,0.9266463890889638
8.304635761589404,0.9432549645242383
8.324503311258278,0.959878620557106
8.344370860927151,0.9764525374255711
8.364238410596027,0.9929152730944888
8.3841059602649,1.0092086887192742
8.403973509933774,1.025277854493637
8.42384105960265,1.0410709431634966
8.443708609271523,1.0565391168914295
8.463576158940398,1.0716364118124897
8.483443708609272,1.0863196235165609
8.503311258278146,1.100548195798769
8.52317880794702,1.1142841143098179
8.543046357615895,1.1274918061836048
8.562913907284768,1.1401380462932498
8.582781456953642,1.152191870465881
8.602649006622515,1.1636244957490647
8.62251655629139,1.1744092476516095
8.642384105960264,1.184521494163381
8.66225165562914,1.193938586281104
8.682119205298013,1.2026398047207327
8.701986754966887,1.2106063124739126
8.721854304635762,1.2178211128605447
8.741721854304636,1.2242690127371145
8.76158940397351,1.229936590537385
8.781456953642383,1.2348121688456295
8.801324503311259,1.2388857912312008
8.821192052980132,1.2421492031044485
8.841059602649008,1.2445958363881544
8.86092715231788,1.2462207978333306
8.880794701986755,1.247020860844211
8.90066225165563,1.2469944607137633
8.920529801324504,1.246141693207403
8.940397350993377,1.244464316469472
8.960264900662251,1.2419657562638642
8.980132450331126,1.2386511145967738
9.0,1.2345271818066261
9.019867549668875,1.229602452242397
9.039735099337747,1.2238871436882666
9.059602649006623,1.2173932207278444
9.079470198675496,1.2101344222760095
9.099337748344372,1.2021262935393964
9.119205298013245,1.193386222696566
9.139072847682119,1.1839334826159145
9.158940397350994,1.1737892779492887
9.178807947019868,1.1629767979527281
9.198675496688743,1.151521275386758
9.218543046357615,1.1394500518350466
9.23841059602649,1.1267926497459764
9.258278145695364,1.1135808514399101
9.27814569536424,1.0998487852275523
9.298013245033111,1.0856330186407437
9.317880794701987,1.0709726585733967
9.33774834437086,1.055909457850955
9.357615894039736,1.0404879273726484
9.37748344370861,1.0247554524793745
9.397350993377483,1.0087624115662546
9.417218543046358,0.9925622941543539
9.437086092715232,0.976211814632252
9.456953642384107,0.9597710166470581
9.47682119205298,0.943303361645217
9.496688741721854,0.9268757933240492
9.516556291390728,0.910558767767575
9.536423841059603,0.8944262368450674
9.556291390728477,0.8785555701386865
9.57615894039735,0.8630273983899368
9.596026490066224,0.847925359450133
9.6158940397351,0.8333357263203375
9.635761589403973,0.8193468965085359
9.655629139072847,0.8060487231466801
9.675496688741722,0.793531671682993
9.695364238410596,0.7818857920612868
9.715231788079471,0.771199505544646
9.735099337748345,0.7615582178633764
9.754966887417218,0.7530427858139315
9.774834437086092,0.745727881819013
9.794701986754967,0.7396803185743588
9.814569536423841,0.734957411413062
9.834437086092716,0.7316054667047974
9.854304635761588,0.7296584878844069
9.874172185430464,0.7291371847017077
9.894039735099337,0.7300483554426356
9.913907284768213,0.7323846873044731
9.933774834437086,0.7361249895906437
9.95364238410596,0.7412348419053969
9.973509933774835,0.7476676094687688
9.993377483443709,0.7553657539215042
10.013245033112582,0.7642623531548755
10.033112582781456,0.7742827387077045
10.052980132450331,0.7853461633972384
10.072847682119205,0.7973674231198232
10.09271523178808,0.810258372545468
10.112582781456952,0.8239292920563931
10.132450331125828,0.8382900804661695
10.152317880794701,0.8532512631808448
10.172185430463577,0.8687248176139073
10.192052980132452,0.8846248265501763
10.211920529801324,0.9008679759360252
10.2317880794702,0.9173739166988607
10.251655629139073,0.9340655112369671
10.271523178807948,0.9508689847508883
10.29139072847682,0.9677140001279925
10.311258278145695,0.9845336730678484
10.331125827814569,1.0012645418671144
10.350993377483444,1.0178465039957327
10.370860927152318,1.0342227294358717
10.390728476821192,1.0503395588047977
10.410596026490065,1.0661463925820194
10.43046357615894,1.0815955763155227
10.450331125827816,1.0966422854825022
10.470198675496688,1.1112444127021368
10.490066225165563,1.125362459215719
10.509933774834437,1.1389594319334648
10.529801324503312,1.1520007468704938
10.549668874172186,1.1644541394313268
10.56953642384106,1.176289581732163
10.589403973509933,1.1874792069526214
10.609271523178808,1.1979972405700992
10.629139072847682,1.2078199382354942
10.649006622516556,1.2169255299906292
10.66887417218543,1.2252941704945572
10.688741721854305,1.2329078949139385
