Time (s),Filtered Signal
0.0,0.07282432315475523
0.033370165745856356,0.06531255300423476
0.06674033149171271,0.06071306728724767
0.10011049723756907,0.06366860102997246
0.13348066298342542,0.07827039310744852
0.16685082872928178,0.10690990318041246
0.20022099447513814,0.14897902711429056
0.2335911602209945,0.20012414333724413
0.26696132596685085,0.25256543176603674
0.30033149171270723,0.2964858555725281
0.33370165745856356,0.3220229425462234
0.3670718232044199,0.3212555825830644
0.4004419889502763,0.28979413235503
0.43381215469613266,0.2279096333732102
0.467182320441989,0.14126080035789354
0.5005524861878453,0.041063349547364444
0.5339226519337017,-0.05682677794392816
0.5672928176795581,-0.134577848550768
0.6006629834254145,-0.1769933243689418
0.6340331491712707,-0.1771943724531062
0.6674033149171271,-0.14128493214090543
0.7007734806629835,-0.0893640007739467
0.7341436464088398,-0.051065073758103256
0.7675138121546962,-0.05602020484732904
0.8008839779005525,-0.1223821300274112
0.8342541436464089,-0.24828127106711928
0.8676243093922653,-0.41054637398338506
0.9009944751381216,-0.5720159427941177
0.934364640883978,-0.694637933434998
0.9677348066298344,-0.7525125447598132
1.0011049723756906,-0.7389037513583048
1.0344751381215471,-0.6642988191894328
1.0678453038674034,-0.547261917198037
1.1012154696132597,-0.40353340139747695
1.1345856353591162,-0.2394715812166235
1.1679558011049724,-0.053146519327984955
1.201325966850829,0.15821098809410772
1.2346961325966852,0.38944659141192955
1.2680662983425415,0.6231568188966538
1.301436464088398,0.8328574305299419
1.3348066298342542,0.9922471768120122
1.3681767955801105,1.0855882850858016
1.401546961325967,1.1135520869576285
1.4349171270718233,1.091385262477145
1.4682872928176796,1.0403998568358266
1.501657458563536,0.9772029824324758
1.5350276243093923,0.9059245341406202
1.5683977900552488,0.8167039768700052
1.601767955801105,0.6902808925703586
1.6351381215469614,0.5058927661620355
1.6685082872928179,0.24928812064489722
1.7018784530386741,-0.08081934156860947
1.7352486187845306,-0.46795553633778103
1.768618784530387,-0.87496965749158
1.8019889502762432,-1.2449712093225271
1.8353591160220997,-1.5094080696034067
1.868729281767956,-1.6050411255339416
1.9020994475138122,-1.4967484777523812
1.9354696132596687,-1.1974626294861634
1.968839779005525,-0.7742220340231643
2.0022099447513813,-0.33321931924098663
2.0355801104972375,0.0138815938406879
2.0689502762430942,0.18982525025314467
2.1023204419889505,0.18021187479452058
2.135690607734807,0.036661784412732115
2.169060773480663,-0.14770390210331397
2.2024309392265193,-0.2794823264657056
2.235801104972376,-0.3037086816885441
2.2691712707182323,-0.2223080847375047
2.3025414364640886,-0.08491478378749663
2.335911602209945,0.04142571956912113
2.369281767955801,0.10714479460452289
2.402651933701658,0.10210770788677437
2.436022099447514,0.05523072784598461
2.4693922651933704,0.014654250419504578
2.5027624309392267,0.020936678238760126
2.536132596685083,0.08769794696222728
2.5695027624309392,0.19830229412717026
2.602872928176796,0.3176568437459507
2.636243093922652,0.4106571309139785
2.6696132596685085,0.457020609882024
2.7029834254143648,0.4562516451191185
2.736353591160221,0.4230426451142809
2.7697237569060777,0.37832780772511637
2.803093922651934,0.3418806491936972
2.8364640883977903,0.3291787720683074
2.8698342541436466,0.35105620263378706
2.903204419889503,0.4126133950329764
2.936574585635359,0.50936887071999
2.969944751381216,0.622438871966357
3.003314917127072,0.7175601163655209
3.0366850828729284,0.7522985186004868
3.0700552486187846,0.6914033923737877
3.103425414364641,0.524402309259285
3.1367955801104976,0.2760691294273024
3.170165745856354,0.0021717180788171295
3.20353591160221,-0.23028792917793983
3.2369060773480665,-0.3706753948100075
3.2702762430939227,-0.4071367127633789
3.3036464088397794,-0.3719100406008098
3.3370165745856357,-0.3252846519267395
3.370386740331492,-0.3246576933241949
3.4037569060773483,-0.3934783793309816
3.4371270718232045,-0.5062600912652871
3.4704972375690613,-0.5989572225582903
3.5038674033149175,-0.6017041151774924
3.537237569060774,-0.4790942571433419
3.57060773480663,-0.2579794297109382
3.6039779005524863,-0.02739674556891434
3.6373480662983426,0.09201808387176665
3.6707182320441993,-0.0029407601708009894
3.7040883977900556,-0.35176531533247096
3.737458563535912,-0.9066784979289614
3.770828729281768,-1.5412537004776505
3.8041988950276244,-2.0867762548823108
3.837569060773481,-2.3817570195566247
3.8709392265193374,-2.317433668140492
3.9043093922651937,-1.8662653369529842
3.93767955801105,-1.0876628955926417
3.9710497237569062,-0.11201396423234246
4.0044198895027625,0.8911475775374983
4.037790055248619,1.752288283910941
4.071160220994475,2.338950722078185
4.104530386740332,2.582356408784427
4.1379005524861885,2.4878795075049367
4.171270718232044,2.127678819146989
4.204640883977901,1.618008620608181
4.238011049723757,1.0873984303302686
4.271381215469614,0.644282442570786
4.30475138121547,0.3529998670447585
4.338121546961326,0.22471557787242874
4.371491712707183,0.22490258579375702
4.404861878453039,0.2931823565827055
4.438232044198895,0.36710439433607167
4.471602209944752,0.40093690945470917
4.504972375690608,0.3739105106717382
4.538342541436465,0.28767838999933065
4.5717127071823205,0.15719475815668138
4.605082872928177,0.000761226536216057
4.638453038674034,-0.16646878094365672
4.67182320441989,-0.33419733286678444
4.7051933701657465,-0.49514616258380245
4.738563535911602,-0.6420532718435178
4.771933701657459,-0.7656412681976409
4.805303867403316,-0.8547571610337603
4.8386740331491715,-0.8987896286616388
4.872044198895028,-0.8914520520405295
4.905414364640884,-0.8342514427737668
4.938784530386741,-0.7377786324484172
4.972154696132597,-0.6196646658085002
5.005524861878453,-0.49953677438301475
5.03889502762431,-0.3928845359516971
5.072265193370166,-0.306497652550301
5.105635359116023,-0.23753126523049764
5.1390055248618784,-0.1765452634532229
5.172375690607735,-0.1129707354562929
5.205745856353592,-0.04041451750795496
5.239116022099448,0.04045959957014905
5.272486187845304,0.12233137327196415
5.30585635359116,0.19416041946569193
5.339226519337017,0.24497707817794243
5.372596685082874,0.2669324325012351
5.4059668508287295,0.2568367802302566
5.439337016574586,0.2163479542746126
5.472707182320442,0.15146448416097258
5.506077348066299,0.07186899522438622
5.5394475138121555,-0.00981324556195249
5.572817679558011,-0.07920698183155805
5.606187845303868,-0.12223849232862033
5.639558011049724,-0.1280267800164311
5.672928176795581,-0.09192825978250119
5.706298342541437,-0.01757218689995802
5.739668508287293,0.08317255942089394
5.77303867403315,0.19261382850856607
5.806408839779006,0.2913475975302559
5.839779005524862,0.3627202053045975
5.873149171270718,0.396355083947569
5.906519337016575,0.39006368484299503
5.939889502762432,0.35008730520156084
5.9732596685082875,0.28987091054378306
6.006629834254144,0.22751470292195705
6.04,0.18204627524453962
6.073370165745857,0.16894572405919278
6.1067403314917135,0.19582809665118145
6.140110497237569,0.25951782194399065
6.173480662983426,0.34566759121561974
6.206850828729282,0.43149775727627576
6.240220994475139,0.4912706911811086
6.273591160220995,0.503061989884793
6.306961325966851,0.4546979138013915
6.340331491712708,0.34682410399171804
6.373701657458564,0.19205928783588536
6.40707182320442,0.01068390423413024
6.440441988950277,-0.17538615739745483
6.473812154696133,-0.34809518080955476
6.50718232044199,-0.49644493722548205
6.5405524861878455,-0.6167496854419746
6.573922651933702,-0.7104842235015832
6.607292817679559,-0.7809898695874565
6.640662983425415,-0.8304056694307714
6.674033149171271,-0.857821884751132
6.707403314917127,-0.859096746359339
6.740773480662984,-0.8282400107839645
6.774143646408841,-0.7598146755449411
6.8075138121546965,-0.6514787014209302
6.840883977900553,-0.5056995609285143
6.874254143646409,-0.3299726641128639
6.907624309392266,-0.13554363815592224
6.9409944751381225,0.06462985614607603
6.974364640883978,0.2575965576926151
7.007734806629835,0.4310575696554507
7.041104972375691,0.5730428997417126
7.074475138121548,0.6715936266980599
7.107845303867403,0.7157381977827952
7.14121546961326,0.6984944565714153
7.174585635359117,0.6213367129314978
7.207955801104973,0.498127225206168
7.241325966850829,0.35577255955633186
7.274696132596685,0.22953425919546638
7.308066298342542,0.15308203104739299
7.341436464088399,0.14622417630675041
7.3748066298342545,0.20533332217810035
7.408176795580111,0.30142272016646926
7.441546961325967,0.38815598363785714
7.474917127071824,0.4177274120710201
7.5082872928176805,0.35859631673760645
7.541657458563536,0.2076721266655746
7.575027624309393,-0.008270392116528512
7.608397790055249,-0.24234353429487437
7.641767955801106,-0.44388315830507374
7.675138121546962,-0.5742609908847052
7.708508287292818,-0.6161636359831029
7.741878453038675,-0.5741205203636448
7.775248618784531,-0.46822760964543314
7.808618784530387,-0.3253600962976156
7.841988950276244,-0.17187290998311686
7.8753591160221,-0.029630765275437086
7.908729281767957,0.08516856938620256
7.9420994475138125,0.16210306386578147
7.975469613259669,0.1968911937001166
8.008839779005525,0.1920220341012789
8.042209944751383,0.1565941223444989
8.075580110497238,0.10430894866524462
8.108950276243094,0.04960707242597931
8.14232044198895,0.003251629092733023
8.175690607734808,-0.030669984362560507
8.209060773480664,-0.05482244542892847
8.24243093922652,-0.07565467829809454
8.275801104972377,-0.09881887605776875
8.309171270718233,-0.1252989639043131
8.342541436464089,-0.15030488931280328
8.375911602209946,-0.1656356746997227
8.409281767955802,-0.16438661592445453
8.442651933701658,-0.14548240733131387
8.476022099447514,-0.1153556207515272
8.509392265193371,-0.08541009207223825
8.542762430939227,-0.06617302046200979
8.576132596685083,-0.061081720400598706
8.60950276243094,-0.0634545056064427
8.642872928176796,-0.0588113512630416
8.676243093922652,-0.03189001139698343
8.709613259668508,0.02507301195203243
8.742983425414366,0.10731883275783868
8.776353591160222,0.19890109601795053
8.809723756906077,0.28012680614475416
8.843093922651935,0.33734523185824994
8.87646408839779,0.3696976437761521
8.909834254143647,0.38877633933988803
8.943204419889504,0.41088314407520354
8.97657458563536,0.4457418486694328
9.009944751381216,0.48777778107817055
9.043314917127072,0.5150832617658617
9.07668508287293,0.49736236757160474
9.110055248618785,0.40947893598003865
9.143425414364641,0.2441958443839453
9.176795580110499,0.01791987904416518
9.210165745856354,-0.23335303559861306
9.24353591160221,-0.4659623583616246
9.276906077348068,-0.6428627823675392
9.310276243093924,-0.7441105159837871
9.34364640883978,-0.7698093429059217
9.377016574585635,-0.7356311349314016
9.410386740331493,-0.664171612798898
9.443756906077349,-0.5763935849752531
9.477127071823205,-0.48624098538296767
9.510497237569062,-0.3993169311634574
9.543867403314918,-0.31467713245326734
9.577237569060774,-0.22805592548966847
9.610607734806631,-0.13510883427749912
9.643977900552487,-0.03390191279408296
9.677348066298343,0.07364849713134608
9.710718232044199,0.18151296028372021
9.744088397790057,0.2805109481064754
9.777458563535912,0.3603289946425587
9.810828729281768,0.4120865916824071
9.844198895027626,0.4306986815509723
9.877569060773482,0.4163326141982987
9.910939226519337,0.3745810913245053
9.944309392265193,0.3153661287259937
9.97767955801105,0.2508543779824969
10.011049723756907,0.19278147472469293
10.044419889502763,0.14968509770127197
10.07779005524862,0.1247166662056264
10.111160220994476,0.1148159791211068
10.144530386740332,0.11183657299526914
10.17790055248619,0.10557677635169802
10.211270718232045,0.08780393278398581
10.244640883977901,0.05572348975583099
10.278011049723757,0.013378132228234875
10.311381215469615,-0.029738019810421942
10.34475138121547,-0.06234315033318312
10.378121546961326,-0.0757606065448398
10.411491712707184,-0.06715336452151963
10.44486187845304,-0.040247147435416804
10.478232044198895,-0.003342770166813187
10.511602209944753,0.0343562617100306
10.544972375690609,0.06635565195810826
10.578342541436465,0.09078700120550875
10.61171270718232,0.10983886495155254
10.645082872928178,0.12704991151958295
10.678453038674034,0.14373321028778543
10.71182320441989,0.15618258525074052
10.745193370165747,0.15508761501839965
10.778563535911603,0.12785065459466824
10.811933701657459,0.06343372988665456
10.845303867403315,-0.04177002694580686
10.878674033149172,-0.17935983677860198
10.912044198895028,-0.32801801811121634
10.945414364640884,-0.4576487814388051
10.978784530386742,-0.5380498372422408
11.012154696132598,-0.5494758564107262
11.045524861878453,-0.4910913271583247
11.078895027624311,-0.38352810058653025
11.112265193370167,-0.2637025818851675
11.145635359116023,-0.17301863601493472
11.179005524861878,-0.14284941809172327
11.212375690607736,-0.1825542413846642
11.245745856353592,-0.27464170444001107
11.279116022099448,-0.3792782111295416
11.312486187845305,-0.4470666604381191
11.345856353591161,-0.43601413648164666
11.379226519337017,-0.326846140318922
11.412596685082875,-0.13095623155272568
11.44596685082873,0.11248757354537978
11.479337016574586,0.349867574377701
11.512707182320442,0.5321820653890005
11.5460773480663,0.6323608222527008
11.579447513812156,0.653635131919072
11.612817679558011,0.6254457918857257
11.646187845303869,0.5888702091303211
11.679558011049725,0.5781303352494869
11.71292817679558,0.6060986686682066
11.746298342541436,0.6593801398538305
11.779668508287294,0.7040573582446411
11.81303867403315,0.6989643909926297
11.846408839779006,0.6111571743455207
11.879779005524863,0.428362188574163
11.91314917127072,0.1647785284785852
11.946519337016575,-0.14127812659846511
11.979889502762433,-0.43720995892883235
12.013259668508288,-0.6706138969936275
12.046629834254144,-0.8038425010267463
12.08,-0.8236734131354412
12.113370165745858,-0.7427160810519824
12.146740331491714,-0.5924826114729589
12.18011049723757,-0.4115070894109484
12.213480662983427,-0.23367651702187367
12.246850828729283,-0.08114893385084236
12.280220994475139,0.03650941814319175
12.313591160220996,0.118436337689829
12.346961325966852,0.16719517008401596
12.380331491712708,0.18539874626998734
12.413701657458564,0.17577805717539127
12.447071823204421,0.14383442959171708
12.480441988950277,0.10043673212413952
12.513812154696133,0.0615310075696931
12.54718232044199,0.04370264532131828
12.580552486187846,0.05693438273103741
12.613922651933702,0.09814990010134231
12.64729281767956,0.1496267319220011
12.680662983425416,0.18447761364630677
12.714033149171271,0.17780014087041077
12.747403314917127,0.11860720158381062
12.780773480662985,0.01638088189020526
12.81414364640884,-0.10183505187579407
12.847513812154697,-0.2032091330622739
12.880883977900554,-0.2642934254102768
12.91425414364641,-0.28185484608145295
12.947624309392266,-0.27347963711118584
12.980994475138122,-0.2672530471202385
13.01436464088398,-0.2856192082725865
13.047734806629835,-0.3317922421218115
13.081104972375691,-0.38602084005555776
13.114475138121549,-0.41413318984571146
13.147845303867404,-0.3846021820855587
13.18121546961326,-0.2859559748964043
13.214585635359118,-0.1358456134251317
13.247955801104974,0.023284791141011223
13.28132596685083,0.14084443475053993
13.314696132596685,0.18009970238055156
13.348066298342543,0.13563890758734254
13.381436464088399,0.03787236785416426
13.414806629834255,-0.05839215670684073
13.448176795580112,-0.09702848174970916
13.481546961325968,-0.04527970551014396
13.514917127071824,0.0914539031616617
13.548287292817681,0.27227172668046135
13.581657458563537,0.44043470489942527
13.615027624309393,0.5511547018507956
13.648397790055249,0.5939365157051659
13.681767955801106,0.5976658880140615
13.715138121546962,0.6145469637483056
13.748508287292818,0.6895580022747156
13.781878453038676,0.8301921851342244
13.815248618784532,0.992568138368029
13.848618784530387,1.0932244623207248
13.881988950276245,1.0436834036721532
13.9153591160221,0.7928864234369571
13.948729281767957,0.3571210273218575
13.982099447513813,-0.17838030085015133
14.01546961325967,-0.688871117638032
14.048839779005526,-1.0579231834067995
14.082209944751382,-1.2215880135261286
14.11558011049724,-1.1885630315323699
14.148950276243095,-1.0281862876966978
14.182320441988951,-0.8340229544088335
14.215690607734807,-0.6819640566967577
14.249060773480664,-0.6025957259589698
14.28243093922652,-0.5785500573955709
14.315801104972376,-0.5642601776829566
14.349171270718234,-0.5152382699594147
14.38254143646409,-0.41142680793938285
14.415911602209945,-0.26446940976316935
14.449281767955803,-0.10807826324440155
14.482651933701659,0.02112707067590976
14.516022099447515,0.10157710080539276
14.54939226519337,0.13501397348907215
14.582762430939228,0.14243787688211132
14.616132596685084,0.15134049600815153
14.64950276243094,0.1814796289358632
14.682872928176797,0.2361989943804888
14.716243093922653,0.30276610162302076
14.749613259668509,0.36045100343932973
14.782983425414367,0.39150062214450704
14.816353591160222,0.3893453283344005
14.849723756906078,0.3603725340560285
14.883093922651934,0.31912851676873644
14.916464088397792,0.2800259997309448
14.949834254143648,0.25008030349633
14.983204419889503,0.22636170488660287
15.016574585635361,0.19926114433818573
15.049944751381217,0.15959075971369713
15.083314917127073,0.10546881175874705
15.116685082872928,0.04493733649821688
15.150055248618786,-0.007560836956711407
15.183425414364642,-0.03935666616719245
15.216795580110498,-0.04804935854468215
15.250165745856355,-0.04526422966950358
15.283535911602211,-0.05263786928455675
15.316906077348067,-0.09095643107843708
15.350276243093925,-0.16731420136385503
15.38364640883978,-0.2669279092337217
15.417016574585636,-0.3546759880979426
15.450386740331492,-0.3870707784638832
15.48375690607735,-0.33025634731595166
15.517127071823205,-0.17628634547469388
15.550497237569061,0.049877282291802015
15.583867403314919,0.29641503830684307
15.617237569060775,0.5017978243138711
15.65060773480663,0.6160754626738257
15.683977900552488,0.617444014738637
15.717348066298344,0.5173749991973315
15.7507182320442,0.3527998221312248
15.784088397790056,0.1696244207504094
15.817458563535913,0.005405540043845101
15.85082872928177,-0.12132035357547004
15.884198895027625,-0.2114565245998877
15.917569060773483,-0.2771920005857726
15.950939226519338,-0.33084163889812485
15.984309392265194,-0.3768879878736556
16.01767955801105,-0.41081181726294486
16.051049723756908,-0.4241229333444307
16.084419889502765,-0.4116556179323983
16.11779005524862,-0.3763980285696275
16.151160220994477,-0.3290603738296313
16.18453038674033,-0.28290651614572915
16.21790055248619,-0.24707884262517862
16.251270718232046,-0.22226221024056647
16.2846408839779,-0.20090306389663584
16.318011049723758,-0.171471097064053
16.351381215469615,-0.1241094154556455
16.38475138121547,-0.05465746786049711
16.418121546961327,0.034540298609220185
16.451491712707185,0.13651047491016732
16.48486187845304,0.24231380535872318
16.518232044198896,0.3427705638574669
16.551602209944754,0.4288789155970357
16.584972375690608,0.49191293787156226
16.618342541436466,0.5244524750719542
16.651712707182323,0.5225928099371396
16.685082872928177,0.48815088326434797
16.718453038674035,0.42902395516769953
16.751823204419892,0.3566059821325078
16.785193370165747,0.2809454970777168
16.818563535911604,0.20601493057585965
16.851933701657458,0.1279331262575548
16.885303867403316,0.037786394933572665
16.918674033149173,-0.07170151471042165
16.952044198895027,-0.1987995546232269
16.985414364640885,-0.3288811551826869
17.018784530386743,-0.4370327150148929
17.052154696132597,-0.4970897742544348
17.085524861878454,-0.49347427662811144
17.118895027624312,-0.43013035104267755
17.152265193370166,-0.33163379802056536
17.185635359116024,-0.23505841453585424
17.21900552486188,-0.17569785675987715
17.252375690607735,-0.17284786636285068
17.285745856353593,-0.2218731482757585
17.31911602209945,-0.2958007572665148
