Frequency (Hz),Amplitude
0.0,3.4300910967344853
0.019867549668874173,3.429200668358159
0.039735099337748346,3.4265315644072487
0.059602649006622516,3.422090331126045
0.07947019867549669,3.415887887953484
0.09933774834437085,3.4079395410668685
0.11920529801324503,3.398265002331284
0.13907284768211922,3.386888413634471
0.15894039735099338,3.373838376568928
0.17880794701986755,3.3591479873948256
0.1986754966887417,3.3428548771770883
0.2185430463576159,3.325001256932621
0.23841059602649006,3.3056339675490483
0.2582781456953642,3.2848045341351373
0.27814569536423844,3.262569224335548
0.2980132450331126,3.2389891099810275
0.31788079470198677,3.2141301312413884
0.33774834437086093,3.188063162202065
0.3576158940397351,3.1608640764809652
0.3774834437086093,3.132613811139404
0.3973509933774834,3.103398426707018
0.4172185430463576,3.07330916063211
0.4370860927152318,3.0424424708743194
0.45695364238410596,3.01090006567767
0.4768211920529801,2.9787889147896767
0.49668874172185434,2.9462212365357225
0.5165562913907285,2.913314454220631
0.5364238410596026,2.880191114332846
0.5562913907284769,2.8469787579965593
0.5761589403973509,2.8138097360988827
0.5960264900662252,2.7808209575713834
0.6158940397350993,2.7481535595088307
0.6357615894039735,2.715952487265469
0.6556291390728477,2.6843659725040268
0.6754966887417219,2.6535448975307605
0.695364238410596,2.6236420352895093
0.7152317880794702,2.5948111562732525
0.7350993377483444,2.5672059964944336
0.7549668874172186,2.540979084654678
0.7748344370860927,2.5162804318279024
0.7947019867549668,2.493256093286662
0.8145695364238411,2.4720466194052255
0.8344370860927152,2.4527854205656494
0.8543046357615894,2.4355970792175685
0.8741721854304636,2.4205956500933534
0.8940397350993378,2.40788299633601
0.9139072847682119,2.3975472141856966
0.9337748344370861,2.389661201156747
0.9536423841059603,2.3842814217288746
0.9735099337748344,2.3814469201328983
0.9933774834437087,2.381178621824818
1.0132450331125828,2.3834789540896053
1.033112582781457,2.3883318026406712
1.0529801324503312,2.395702806128995
1.0728476821192052,2.4055399753667004
1.0927152317880795,2.4177746100447237
1.1125827814569538,2.4323224738842497
1.1324503311258278,2.4490851803353304
1.1523178807947019,2.467951735594222
1.1721854304635762,2.488800183939624
1.1920529801324504,2.511499301920916
1.2119205298013245,2.5359102922331815
1.2317880794701985,2.5618884344700166
1.2516556291390728,2.589284657589694
1.271523178807947,2.617947007116834
1.2913907284768211,2.647721988196961
1.3112582781456954,2.678455773125804
1.3311258278145695,2.709995268553721
1.3509933774834437,2.742189043028322
1.370860927152318,2.774888119826516
1.390728476821192,2.80794664317849
1.410596026490066,2.8412224281068705
1.4304635761589404,2.8745774053408657
1.4503311258278146,2.9078779732787057
1.4701986754966887,2.940995268924897
1.4900662251655628,2.9738053692695146
1.5099337748344372,3.006189433834614
1.5298013245033113,3.038033798196991
1.5496688741721854,3.0692300272905513
1.5695364238410596,3.0996749362615286
1.5894039735099337,3.129270585643417
1.609271523178808,3.157924256665334
1.6291390728476822,3.1855484116306174
1.6490066225165563,3.2120606435104184
1.6688741721854303,3.2373836181945483
1.6887417218543048,3.261445012228146
1.7086092715231789,3.284177448333225
1.728476821192053,3.305518430563334
1.7483443708609272,3.3254102805589127
1.7682119205298013,3.3438000760548072
1.7880794701986755,3.3606395925293104
1.8079470198675496,3.375885248672283
1.8278145695364238,3.389498056177318
1.847682119205298,3.4014435742277644
1.8675496688741722,3.411691868939591
1.8874172185430464,3.4202174779427192
1.9072847682119205,3.426999380221364
1.9271523178807946,3.4320209712895906
1.9470198675496688,3.4352700437477757
1.9668874172185429,3.436738773244596
1.9867549668874174,3.436423709857484
2.0066225165562916,3.4343257748970335
2.0264900662251657,3.430450263137851
2.0463576158940397,3.424806850476026
2.066225165562914,3.4174096070113955
2.086092715231788,3.4082770155473123
2.1059602649006623,3.397431995491695
2.1258278145695364,3.384901932126064
2.1456953642384105,3.370718711184641
2.165562913907285,3.354918758647215
2.185430463576159,3.337543085597151
2.205298013245033,3.31863733792485
2.2251655629139075,3.2982518505623877
2.2450331125827816,3.276441705813955
2.2649006622516556,3.253266795192616
2.2847682119205297,3.228791883981078
2.3046357615894038,3.2030866774967754
2.324503311258278,3.176225887751163
2.3443708609271523,3.148289298843952
2.364238410596027,3.1193618290155434
2.384105960264901,3.0895335867885083
2.403973509933775,3.0588999180551304
2.423841059602649,3.0275614403060604
2.443708609271523,2.9956240594443533
2.463576158940397,2.963198963788721
2.4834437086092715,2.930402588948847
2.5033112582781456,2.897356546268081
2.52317880794702,2.8641875065010893
2.543046357615894,2.8310270293654733
2.562913907284768,2.79801132863297
2.5827814569536423,2.7652809615830676
2.6026490066225163,2.7329804310264993
2.622516556291391,2.7012576878381496
2.642384105960265,2.670263522158317
2.662251655629139,2.6401508322847977
2.6821192052980134,2.6110737619505042
2.7019867549668874,2.5831866993182313
2.7218543046357615,2.55664313475496
2.741721854304636,2.531594379348626
2.76158940397351,2.508188152192217
2.781456953642384,2.4865670515602765
2.801324503311258,2.4668669329802317
2.821192052980132,2.4492152254335418
2.8410596026490067,2.4337292249389084
2.8609271523178808,2.4205144118720705
2.8807947019867552,2.4096628437957284
2.9006622516556293,2.4012516785565565
2.9205298013245033,2.3953418823154586
2.9403973509933774,2.3919771736029043
2.9602649006622515,2.3911832473382044
2.9801324503311255,2.39296731230241
3.0,2.3973179624685996
3.0198675496688745,2.4042053878528082
3.0397350993377485,2.4135819153450493
3.0596026490066226,2.425382855564036
3.0794701986754967,2.439527619300826
3.0993377483443707,2.455921057480834
3.119205298013245,2.4744549723439033
3.1390728476821192,2.495009744897367
3.1589403973509933,2.517456024453538
3.1788079470198674,2.5416564297400193
3.198675496688742,2.5674672169918615
3.218543046357616,2.5947398778328576
3.23841059602649,2.6233226378731076
3.2582781456953644,2.65306183512368
3.2781456953642385,2.6838031650222147
3.2980132450331126,2.715392785699829
3.3178807947019866,2.7476782828754525
3.3377483443708607,2.780509498348823
3.3576158940397347,2.8137392294953267
3.3774834437086096,2.847223809535753
3.3973509933774837,2.880823579800784
3.4172185430463577,2.914403265892487
3.437086092715232,2.947832269727074
3.456953642384106,2.9809848890765225
3.47682119205298,3.0137404755469066
3.4966887417218544,3.045983541050938
3.5165562913907285,3.0776038218436956
3.5364238410596025,3.108496308161777
3.556291390728477,3.1385612464906236
3.576158940397351,3.1677041205160474
3.596026490066225,3.19583561591853
3.615894039735099,3.2228715733543045
3.6357615894039736,3.2487329332419774
3.6556291390728477,3.2733456753369805
3.6754966887417218,3.2966407555256034
3.695364238410596,3.318554041799676
3.7152317880794703,3.3390262509747735
3.7350993377483444,3.3580028873830114
3.754966887417219,3.375434184495375
3.774834437086093,3.391275050204864
3.794701986754967,3.405485016318859
3.814569536423841,3.4180281926654814
3.834437086092715,3.428873226103798
3.854304635761589,3.4379932646411886
3.8741721854304636,3.445365926794197
3.8940397350993377,3.450973276281364
3.9139072847682117,3.45480180210207
3.9337748344370858,3.456842404032353
3.9536423841059607,3.457090383554471
3.9735099337748347,3.4555454402283887
3.993377483443709,3.4522116735092707
4.013245033112583,3.447097590012401
4.033112582781457,3.4402161162248217
4.052980132450331,3.43158461665793
4.072847682119205,3.4212249174271805
4.0927152317880795,3.4091633352295787
4.112582781456953,3.3954307116661693
4.132450331125828,3.3800624528215164
4.152317880794702,3.3630985739625965
4.172185430463576,3.344583749151698
4.19205298013245,3.32456736547878
4.211920529801325,3.303103581502361
4.231788079470199,3.2802513893406915
4.251655629139073,3.256074679669823
4.271523178807947,3.2306423086563063
4.291390728476821,3.2040281655727654
4.311258278145695,3.1763112395063033
4.33112582781457,3.1475756831656874
4.3509933774834435,3.117910871315416
4.370860927152318,3.0874114508058277
4.390728476821192,3.056177378523357
4.410596026490066,3.0243139428499064
4.43046357615894,2.9919317633956544
4.450331125827815,2.9591467628615824
4.470198675496689,2.9260801039095012
4.490066225165563,2.8928580828921526
4.509933774834438,2.8596119712605854
4.529801324503311,2.8264777944719675
4.549668874172186,2.7935960373414774
4.569536423841059,2.7611112641064164
4.589403973509934,2.7291716411174134
4.6092715231788075,2.6979283501740827
4.629139072847682,2.6675348812370934
4.649006622516556,2.6381461947369713
4.66887417218543,2.6099177461233776
4.688741721854305,2.583004368793632
4.708609271523179,2.5575590161951247
4.728476821192054,2.5337313697258823
4.748344370860927,2.511666325965797
4.768211920529802,2.4915023845264272
4.788079470198675,2.473369966025699
4.80794701986755,2.4573896978336673
4.827814569536423,2.443670712622337
4.847682119205298,2.4323090106259904
4.867549668874172,2.423385940115177
4.887417218543046,2.416966851231971
4.9072847682119205,2.4130999755591453
4.927152317880794,2.4118155774278986
4.947019867549669,2.4131254132035704
4.966887417218543,2.417022522203599
4.986754966887418,2.423481358414205
5.006622516556291,2.432458256937156
5.026490066225166,2.4438922143682027
5.04635761589404,2.4577059492700233
5.066225165562914,2.473807198526372
5.086092715231788,2.4920901982999935
5.105960264900662,2.5124372948308564
5.125827814569536,2.534720630301976
5.14569536423841,2.558803852046288
5.1655629139072845,2.584543798831102
5.185430463576159,2.611792125080787
5.205298013245033,2.6403968319199085
5.225165562913908,2.6702036821415396
5.245033112582782,2.701057484062848
5.264900662251656,2.7328032363063004
5.28476821192053,2.7652871315816197
5.304635761589404,2.798357422420725
5.324503311258278,2.8318651555297594
5.344370860927152,2.865664784044396
5.364238410596027,2.899614668637192
5.3841059602649,2.9335774792835223
5.403973509933775,2.9674205097106126
5.4238410596026485,3.001015916286844
5.443708609271523,3.034240892496188
5.463576158940397,3.0669777893039774
5.483443708609272,3.099114190751734
5.503311258278146,3.130542953094756
5.52317880794702,3.1611622147736766
5.543046357615895,3.190875383527581
5.562913907284768,3.219591106039267
5.582781456953643,3.247223224666224
5.602649006622516,3.2736907250623215
5.622516556291391,3.298917677835886
5.642384105960264,3.322833176817465
5.662251655629139,3.3453712760189163
5.682119205298013,3.366470926949838
5.701986754966887,3.3860759176078274
5.7218543046357615,3.4041348141694936
5.741721854304636,3.4206009061717495
5.7615894039735105,3.4354321557801173
5.781456953642384,3.448591151586831
5.801324503311259,3.4600450672597067
5.821192052980132,3.469765625268518
5.841059602649007,3.477729065844214
5.860927152317881,3.483916121273028
5.880794701986755,3.4883119955898434
5.900662251655629,3.4909063497092903
5.920529801324503,3.4916932920159947
5.940397350993377,3.4906713744255846
5.960264900662251,3.487843593922433
5.980132450331126,3.4832173995766276
6.0,3.476804705040237
6.0198675496688745,3.4686219065176846
6.039735099337749,3.4586899061974794
6.059602649006623,3.447034141117614
6.079470198675497,3.4336846174148112
6.099337748344371,3.4186759498738413
6.119205298013245,3.4020474066459783
6.139072847682119,3.3838429589400043
6.158940397350993,3.364111335403401
6.178807947019867,3.342906080798859
6.198675496688741,3.320285618438074
6.218543046357616,3.296313315655916
6.23841059602649,3.2710575513844593
6.258278145695365,3.2445917846153556
6.2781456953642385,3.216994622208329
6.298013245033113,3.1883498841097615
6.317880794701987,3.1587466635775505
6.337748344370861,3.1282793794617283
6.357615894039735,3.0970478169566147
6.377483443708609,3.0651571525183563
6.397350993377484,3.0327179578283383
6.417218543046357,2.9998461767857356
6.437086092715232,2.9666630685414446
6.456953642384105,2.933295108563118
6.47682119205298,2.89987383868185
6.496688741721854,2.8665356560629776
6.516556291390729,2.8334215301363748
6.5364238410596025,2.800676635802798
6.556291390728477,2.768449890813807
6.5761589403973515,2.736893385236998
6.596026490066225,2.7061616915157263
6.6158940397351,2.6764110449775615
6.635761589403973,2.6477983868981205
6.655629139072848,2.6204802655311936
6.675496688741721,2.5946115949697215
6.695364238410596,2.570344277336732
6.715231788079469,2.5478257005437093
6.735099337748344,2.5271971314948516
6.754966887417219,2.5085920328010496
6.774834437086093,2.4921343392865043
6.794701986754967,2.4779367381698703
6.814569536423841,2.4660990030338947
6.8344370860927155,2.4567064357918604
6.854304635761589,2.449828472118096
6.874172185430464,2.445517503717183
6.894039735099337,2.4438079651273914
6.913907284768212,2.44471572360878
6.933774834437086,2.448237798557544
6.95364238410596,2.4543524226737192
6.973509933774834,2.463019441902126
6.993377483443709,2.474181036213925
7.013245033112583,2.48776272980534
7.033112582781457,2.5036746482872676
7.052980132450331,2.5218129726424543
7.072847682119205,2.542061535484611
7.0927152317880795,2.564293504435166
7.112582781456954,2.5883730998800374
7.132450331125828,2.6141572993793933
7.152317880794702,2.6414974878402626
7.172185430463576,2.6702410204560745
7.19205298013245,2.7002326736550177
7.211920529801324,2.7313159672828435
7.231788079470198,2.7633343485277386
7.251655629139073,2.7961322343828985
7.271523178807947,2.829555914587769
7.291390728476822,2.8634543209644074
7.311258278145695,2.8976796719278926
7.33112582781457,2.932088002822578
7.3509933774834435,2.9665395937668433
7.370860927152318,3.000899307043763
7.390728476821192,3.03503684590926
7.410596026490066,3.068826946148705
7.430463576158941,3.102149510919281
7.450331125827814,3.134889698471103
7.470198675496689,3.166937971325218
7.490066225165562,3.1981901144589506
7.509933774834438,3.2285472290548185
7.52980132450331,3.257915707433714
7.549668874172186,3.2862071939358604
7.569536423841059,3.3133385357425205
7.589403973509934,3.3392317269498295
7.6092715231788075,3.3638138486122124
7.629139072847682,3.3870170069621004
7.649006622516557,3.4087782715774235
7.66887417218543,3.429039614903318
7.6887417218543055,3.447747854229851
7.708609271523178,3.464854596977307
7.728476821192054,3.480316189937022
7.748344370860927,3.494093672951619
7.768211920529802,3.5061527373891628
7.788079470198675,3.516463689664326
7.80794701986755,3.5250014199824307
7.827814569536423,3.531745376424313
7.847682119205298,3.5366795444483397
7.8675496688741715,3.539792431856525
7.887417218543046,3.5410770592521907
7.907284768211921,3.5405309560048663
7.927152317880795,3.5381561617304866
7.9470198675496695,3.5339592332905885
7.966887417218543,3.5279512573105998
7.986754966887418,3.52014786821184
8.006622516556291,3.5105692717433885
8.026490066225167,3.499240273985828
8.046357615894038,3.486190315776068
8.066225165562914,3.471453512469773
8.086092715231787,3.455068698910783
8.105960264900663,3.43707947941301
8.125827814569536,3.417534282475315
8.14569536423841,3.396486419839376
8.165562913907285,3.3739941493598327
8.185430463576159,3.3501207409789044
8.205298013245034,3.3249345448784986
8.225165562913906,3.2985090606144825
8.245033112582782,3.2709230057122176
8.264900662251655,3.242260381813642
8.28476821192053,3.212610536004336
8.304635761589404,3.1820682144083796
8.324503311258278,3.150733604513206
8.344370860927151,3.118712361971024
8.364238410596027,3.0861156168183714
8.3841059602649,3.0530599531645906
8.403973509933774,3.0196673554343567
8.42384105960265,2.9860651132307217
8.443708609271523,2.9523856758438214
8.463576158940398,2.9187664464171807
8.483443708609272,2.885349504860587
8.503311258278146,2.8522812478553776
8.52317880794702,2.8197119338398307
8.543046357615895,2.787795120822225
8.562913907284768,2.756686985392792
8.582781456953642,2.7265455125578706
8.602649006622515,2.697529548158674
8.62251655629139,2.6697977088106293
8.642384105960264,2.6435071486124473
8.66225165562914,2.6188121873649903
8.682119205298013,2.595862811650051
8.701986754966887,2.574803067663008
8.721854304635762,2.5557693728349173
8.741721854304636,2.5388887815316603
8.76158940397351,2.524277247843937
8.781456953642383,2.5120379349503774
8.801324503311259,2.5022596249752396
8.821192052980132,2.495015284963781
8.841059602649008,2.4903608430140607
8.86092715231788,2.4883342234567367
8.880794701986755,2.488954681327047
8.90066225165563,2.4922224646720035
8.920529801324504,2.498118819282781
8.940397350993377,2.5066063353153054
8.960264900662251,2.5176296201912516
8.980132450331126,2.53111626837414
9.0,2.5469780871498413
9.019867549668875,2.5651125291789656
9.039735099337747,2.585404277738222
9.059602649006623,2.6077269292607723
9.079470198675496,2.6319447197156656
9.099337748344372,2.65791424596905
9.119205298013245,2.6854861398288863
9.139072847682119,2.714506660223575
9.158940397350994,2.7448191771781256
9.178807947019868,2.7762655293120972
9.198675496688743,2.808687244015948
9.218543046357615,2.84192661594861
9.23841059602649,2.875827644865953
9.258278145695364,2.910236837987615
9.27814569536424,2.9450038851833438
9.298013245033111,2.9799822173191814
9.317880794701987,3.015029459293412
9.33774834437086,3.0500077897742663
9.357615894039736,3.0847842195837805
9.37748344370861,3.11923080020211
9.397350993377483,3.1532247731209297
9.417218543046358,3.1866486698577323
9.437086092715232,3.219390371440838
9.456953642384107,3.2513431351486997
9.47682119205298,3.2824055952848687
9.496688741721854,3.3124817438217833
9.516556291390728,3.341480895872334
9.536423841059603,3.369317644159365
9.556291390728477,3.395911805952163
9.57615894039735,3.421188365326353
9.596026490066224,3.445077413074662
9.6158940397351,3.4675140861441127
9.635761589403973,3.488438508094749
9.655629139072847,3.507795731756778
9.675496688741722,3.525535685000508
9.695364238410596,3.5416131203191314
9.715231788079471,3.555987568751277
9.735099337748345,3.5686232985329025
9.754966887417218,3.5794892787596
9.774834437086092,3.5885591482577635
9.794701986754967,3.5958111898001284
9.814569536423841,3.6012283097552844
9.834437086092716,3.6047980232281867
9.854304635761588,3.606512444726268
9.874172185430464,3.6063682843713067
9.894039735099337,3.6043668496678944
9.913907284768213,3.6005140528329673
9.933774834437086,3.5948204236859067
9.95364238410596,3.587301128091833
9.973509933774835,3.5779759919413094
9.993377483443709,3.5668695306340212
10.013245033112582,3.5540109840107914
10.033112582781456,3.5394343566440494
10.052980132450331,3.523178463349167
10.072847682119205,3.505286979714082
10.09271523178808,3.485808497358645
10.112582781456952,3.4647965835236314
10.132450331125828,3.442309844447707
10.152317880794701,3.4184119918123974
10.172185430463577,3.393171911315301
10.192052980132452,3.3666637321618764
10.211920529801324,3.338966895940891
10.2317880794702,3.3101662229579505
10.251655629139073,3.280351973640585
10.271523178807948,3.2496199020873577
10.29139072847682,3.2180712982081867
10.311258278145695,3.1858130141892302
10.331125827814569,3.1529574702122787
10.350993377483444,3.1196226334698305
10.370860927152318,3.085931963555588
10.390728476821192,3.052014316293572
10.410596026490065,3.0180037970331144
10.43046357615894,2.9840395534255846
10.450331125827816,2.950265496779117
10.470198675496688,2.916829940343689
10.490066225165563,2.8838851424174754
10.509933774834437,2.8515867421155203
10.529801324503312,2.8200930761498175
10.549668874172186,2.7895643661954983
10.56953642384106,2.760161768521207
10.589403973509933,2.7320462806869728
10.609271523178808,2.7053775043674206
10.629139072847682,2.6803122687816425
10.649006622516556,2.6570031257508337
10.66887417218543,2.635596734882188
10.688741721854305,2.616232165469655
10.70860927152318,2.599039149931885
10.728476821192054,2.58413633135559
10.748344370860927,2.5716295542564542
10.7682119205298,2.5616102522484794
