Time (s),Filtered Signal
0.0,0.01845664936929569
0.03337004405286344,0.1402568943162128
0.06674008810572687,0.15829440087678517
0.10011013215859031,0.0057714175867332835
0.13348017621145375,-0.3257705677735069
0.16685022026431717,-0.7873693123103407
0.20022026431718062,-1.2928903370391536
0.23359030837004408,-1.7475461086176083
0.2669603524229075,-2.0726052983798375
0.3003303964757709,-2.2193750692560448
0.33370044052863435,-2.1724583594456925
0.3670704845814978,-1.9463053262879648
0.40044052863436125,-1.5787146316117733
0.43381057268722467,-1.1224061985370488
0.46718061674008815,-0.634474208399023
0.5005506607929515,-0.1648872870632223
0.533920704845815,0.2523614866160648
0.5672907488986785,0.6013495503737379
0.6006607929515418,0.8784851639783882
0.6340308370044053,1.082875298354642
0.6674008810572687,1.2099237441695296
0.7007709251101322,1.2534110376722847
0.7341409691629956,1.2147731940519546
0.767511013215859,1.1115924021336954
0.8008810572687225,0.9761012314445818
0.834251101321586,0.8410023557387936
0.8676211453744493,0.7202660361410673
0.9009911894273128,0.5989146425347497
0.9343612334801763,0.4421249898407165
0.9677312775330397,0.22142487623430823
1.001101321585903,-0.05729890093116956
1.0344713656387665,-0.34309635540638417
1.06784140969163,-0.5565837803244013
1.1012114537444935,-0.6273346854758124
1.134581497797357,-0.5321285913692497
1.1679515418502202,-0.31270725011419526
1.2013215859030837,-0.06282012421253293
1.2346916299559472,0.10916561892568735
1.2680616740088106,0.12384552524471777
1.3014317180616741,-0.03899340580222569
1.3348017621145374,-0.3344965047110408
1.3681718061674009,-0.6701078280288403
1.4015418502202643,-0.9363782510412912
1.4349118942731278,-1.0394278121084422
1.4682819383259913,-0.9263718670395487
1.5016519823788548,-0.5991506938269578
1.535022026431718,-0.11468518115127106
1.5683920704845815,0.42934097130617954
1.601762114537445,0.9212115968979561
1.6351321585903085,1.267907426008734
1.668502202643172,1.4227444805316105
1.7018722466960352,1.396221359326346
1.7352422907488987,1.2440732857703583
1.7686123348017622,1.03688184251793
1.8019823788546256,0.8253244786888586
1.8353524229074891,0.6184397910295639
1.8687224669603526,0.38646240255995523
1.9020925110132159,0.08728987390314148
1.9354625550660793,-0.2970667226394
1.9688325991189428,-0.7337568377429333
2.002202643171806,-1.137797271192533
2.0355726872246698,-1.39974815346236
2.068942731277533,-1.4315587071121325
2.1023127753303967,-1.2101451004214308
2.13568281938326,-0.7977347544904699
2.1690528634361232,-0.32694097326678334
2.202422907488987,0.046485117214456695
2.23579295154185,0.20511270104344595
2.269162995594714,0.11876403104023238
2.302533039647577,-0.1426879251181822
2.3359030837004404,-0.44089007388128254
2.369273127753304,-0.6317732798239794
2.4026431718061674,-0.6299156920917492
2.436013215859031,-0.4432259648106191
2.4693832599118943,-0.16168003358606525
2.5027533039647576,0.09230381052317803
2.5361233480176213,0.2249047674934159
2.5694933920704845,0.21223816890699884
2.6028634361233483,0.10348072587213511
2.6362334801762115,-0.011505663450177131
2.6696035242290748,-0.049833576597427785
2.7029735682819385,0.02663217794509117
2.7363436123348017,0.2001467813948518
2.7697136563876654,0.4139260034738976
2.8030837004405287,0.6044668690207909
2.8364537444933924,0.73108967598497
2.8698237885462556,0.7883694589758654
2.903193832599119,0.7977025510147391
2.9365638766519826,0.7855709799621936
2.969933920704846,0.7623166042374788
3.0033039647577096,0.7136437083520182
3.036674008810573,0.6091889485064617
3.070044052863436,0.42303423787991434
3.1034140969162998,0.15497224180969493
3.136784140969163,-0.15874402156521342
3.1701541850220267,-0.451240830660581
3.20352422907489,-0.6460461063011025
3.2368942731277532,-0.6854709578999455
3.270264317180617,-0.5554043219192413
3.30363436123348,-0.29644748253676056
3.337004405286344,0.00429284439417863
3.370374449339207,0.23975843556452361
3.4037444933920704,0.31977921394760367
3.437114537444934,0.20516283074068464
3.4704845814977974,-0.07444234311687223
3.503854625550661,-0.42720501676842343
3.5372246696035243,-0.729237337629329
3.5705947136563876,-0.8675497657333148
3.6039647577092513,-0.7799228272128209
3.6373348017621145,-0.47735501051541157
3.6707048458149782,-0.042020348940772015
3.7040748898678415,0.3973439677835358
3.737444933920705,0.7040418733467172
3.7708149779735685,0.7747004595785786
3.8041850220264317,0.5721634582697849
3.8375550660792954,0.14076691527164256
3.8709251101321587,-0.4018804653722597
3.9042951541850224,-0.8968247684844078
3.9376651982378856,-1.191928903729849
3.971035242290749,-1.191614990119914
4.004405286343612,-0.8906075344628356
4.037775330396476,-0.37803720924334766
4.0711453744493395,0.19143302995643702
4.104515418502203,0.6500363580045795
4.137885462555066,0.8738751516243931
4.171255506607929,0.823497031542553
4.2046255506607935,0.5537103277847358
4.237995594713657,0.190189906328457
4.27136563876652,-0.117570382947388
4.304735682819383,-0.2497951933038786
4.3381057268722465,-0.15806202892624788
4.371475770925111,0.11869857328136228
4.404845814977974,0.46892005343819154
4.438215859030837,0.7487695367925086
4.4715859030837,0.834304228203416
4.504955947136564,0.6670715882318337
4.538325991189428,0.2767848237578982
4.571696035242291,-0.2270563088326039
4.605066079295154,-0.6913131453138509
4.638436123348018,-0.969947216720944
4.671806167400881,-0.9716608738366616
4.705176211453745,-0.6887814148122854
4.738546255506608,-0.19875443256779438
4.7719162995594715,0.361305085006714
4.805286343612335,0.8382661508096937
4.838656387665198,1.1106507171414168
4.872026431718062,1.1247547252741603
4.905396475770925,0.9069779258497719
4.938766519823789,0.547907620574682
4.972136563876652,0.1641809545405802
5.005506607929515,-0.14642060492315698
5.038876651982379,-0.3375173693451384
5.072246696035243,-0.420345849324959
5.105616740088106,-0.4424022205972589
5.138986784140969,-0.4515193512910809
5.172356828193832,-0.4661051475355867
5.2057268722466965,-0.46837548459389
5.23909691629956,-0.4235022405705685
5.272466960352423,-0.3116842930908247
5.305837004405286,-0.1520006007083829
5.3392070484581495,-0.0017808459301075677
5.372577092511014,0.0697118201997583
5.405947136563877,0.018553906304508327
5.43931718061674,-0.14729916597895132
5.4726872246696034,-0.3677323580794634
5.506057268722468,-0.5567561180161333
5.539427312775331,-0.640851744451719
5.572797356828194,-0.5891687376104708
5.606167400881057,-0.4214034733886199
5.639537444933921,-0.19238607722027948
5.672907488986785,0.03557691169237187
5.706277533039648,0.21735996168340352
5.739647577092511,0.3361856820331822
5.7730176211453745,0.4001366388081608
5.806387665198238,0.43036180420884274
5.839757709251102,0.4490551597515649
5.873127753303965,0.47187923843801666
5.9064977973568284,0.5048999289896483
5.939867841409692,0.5439503742614816
5.973237885462555,0.5753203134139842
6.006607929515419,0.5785924163522134
6.039977973568282,0.5327305091776969
6.073348017621146,0.4245442886605236
6.106718061674009,0.25611877293433594
6.140088105726872,0.04709027922377555
6.173458149779736,-0.17022651645540188
6.2068281938325995,-0.3611070777640281
6.240198237885463,-0.49942421805376314
6.273568281938326,-0.5745403318000374
6.306938325991189,-0.5916275552755234
6.3403083700440535,-0.5661155657626696
6.373678414096917,-0.5150038483144977
6.40704845814978,-0.4482813274400912
6.440418502202643,-0.3635433749364102
6.4737885462555065,-0.2466261327850643
6.507158590308371,-0.0798810065608282
6.540528634361234,0.14351257377394253
6.573898678414097,0.40531100025019445
6.60726872246696,0.6568231527807353
6.640638766519824,0.8287191838836009
6.674008810572688,0.8547948240751138
6.707378854625551,0.6999139100517788
6.740748898678414,0.37856112168168726
6.774118942731278,-0.045624726586125604
6.807488986784141,-0.4793932662376524
6.840859030837005,-0.8291334956657522
6.874229074889868,-1.0267488350023923
6.9075991189427315,-1.042784839009075
6.940969162995595,-0.885544487516837
6.974339207048458,-0.5918947352349127
7.007709251101322,-0.21710018866645314
7.041079295154185,0.17280755963413733
7.074449339207049,0.5081263876391336
7.107819383259912,0.726427256967697
7.141189427312775,0.788673986230543
7.174559471365639,0.6954111783233914
7.207929515418503,0.4932656218008057
7.241299559471366,0.2637454872670188
7.274669603524229,0.09476042094778023
7.308039647577092,0.04566374514534777
7.3414096916299565,0.12214422710654428
7.37477973568282,0.27388886007210633
7.408149779735683,0.41709058076777383
7.441519823788546,0.4716055264862116
7.47488986784141,0.39553118558402944
7.508259911894274,0.20163071218956735
7.541629955947137,-0.0509152676758023
7.575,-0.2843657571118473
7.608370044052863,-0.4364181277319999
7.641740088105728,-0.48529472715791555
7.675110132158591,-0.4560237297470636
7.708480176211454,-0.40662899624845544
7.741850220264317,-0.40077452393566815
7.775220264317181,-0.4777781690291762
7.808590308370045,-0.6314553085820263
7.841960352422908,-0.8067195496640385
7.875330396475771,-0.9175941909230853
7.9087004405286345,-0.8824085040016943
7.942070484581498,-0.6632045152870134
7.975440528634362,-0.29107810041031057
8.008810572687224,0.13782555875895613
8.042180616740088,0.49843223253727226
8.075550660792953,0.6908201539742386
8.108920704845815,0.6863232216307589
8.142290748898679,0.5412092203236205
8.175660792951541,0.3690791424965406
8.209030837004406,0.28484302353586427
8.24240088105727,0.34859182522744037
8.275770925110132,0.537807553541043
8.309140969162996,0.7610651764621994
8.342511013215859,0.9046129476045442
8.375881057268723,0.8871975460982007
8.409251101321587,0.6963255181571791
8.44262114537445,0.390552065008297
8.475991189427313,0.06994937908899794
8.509361233480176,-0.16881356075373477
8.54273127753304,-0.27158364486889713
8.576101321585904,-0.244207533070079
8.609471365638766,-0.14399766891102228
8.64284140969163,-0.05225355338485099
8.676211453744493,-0.041355973498180376
8.709581497797357,-0.14938628594902198
8.742951541850221,-0.36933504124467254
8.776321585903084,-0.6528835775824106
8.809691629955948,-0.9243567277518524
8.84306167400881,-1.0999570706195523
8.876431718061674,-1.1089779280661693
8.909801762114538,-0.9145028208379913
8.9431718061674,-0.5298264487298002
8.976541850220265,-0.024748125120996
9.009911894273127,0.4842760432596348
9.043281938325991,0.8623823807821277
9.076651982378856,0.997927358816841
9.110022026431718,0.8446010153884885
9.143392070484582,0.4469046776198849
9.176762114537445,-0.06525081469972942
9.210132158590309,-0.5164294410960183
9.243502202643173,-0.7485699967007687
9.276872246696035,-0.6826540886810244
9.3102422907489,-0.35168368776651887
9.343612334801762,0.11241206413392993
9.376982378854626,0.5349243993816516
9.41035242290749,0.7732288947456791
9.443722466960352,0.7752623199048997
9.477092511013216,0.5933776431778078
9.510462555066079,0.3476074562806846
9.543832599118943,0.15861100310822548
9.577202643171807,0.08621715114538048
9.61057268722467,0.10547080675390237
9.643942731277534,0.1307530773430855
9.677312775330396,0.07222707979848483
9.71068281938326,-0.10768073212590315
9.744052863436124,-0.3683969928698062
9.777422907488987,-0.6088319107530638
9.81079295154185,-0.7180849752482683
9.844162995594713,-0.6320955318109236
9.877533039647577,-0.3669656717366956
9.910903083700441,-0.012371156838542424
9.944273127753304,0.3107933435941558
9.977643171806168,0.506109244736539
10.01101321585903,0.5417623873730267
10.044383259911895,0.4550665225292332
10.077753303964759,0.3210424590741766
10.111123348017621,0.20450117807026344
10.144493392070485,0.12373222290977547
10.177863436123348,0.04635558747189242
10.211233480176212,-0.0814304786370147
10.244603524229076,-0.2906795373067677
10.277973568281938,-0.5576633536123683
10.311343612334802,-0.8037760892240923
10.344713656387665,-0.9287079435916145
10.378083700440529,-0.8594184880203073
10.411453744493393,-0.5888663344237305
10.444823788546255,-0.1843381234524635
10.47819383259912,0.23852179473250218
10.511563876651982,0.562691280628099
10.544933920704846,0.7153118011230359
10.57830396475771,0.6918112205714011
10.611674008810573,0.5499261158074155
10.645044052863437,0.37863202736216056
10.678414096916299,0.25695420098540733
10.711784140969163,0.22059145555619222
10.745154185022027,0.2500954167365729
10.77852422907489,0.28505005894844515
10.811894273127754,0.25762945762927675
10.845264317180618,0.13013797027654206
10.87863436123348,-0.08145725921595458
10.912004405286345,-0.3103921332152773
10.945374449339207,-0.46856010581997937
10.978744493392071,-0.48932571265764396
11.012114537444935,-0.3627239104477912
11.045484581497798,-0.144640162873058
11.078854625550662,0.06614036578471827
11.112224669603524,0.17305456019797466
11.145594713656388,0.12755924888776132
11.178964757709252,-0.046731552222827336
11.212334801762115,-0.2635159867856281
11.245704845814979,-0.4125826603063307
11.279074889867841,-0.4097535804726473
11.312444933920705,-0.23502255133040767
11.34581497797357,0.05809545412940556
11.379185022026432,0.36556687884883177
11.412555066079296,0.5772849687624203
11.445925110132158,0.6229094908630238
11.479295154185023,0.4990738513240854
11.512665198237887,0.26691203030734717
11.546035242290749,0.022553130389704634
11.579405286343613,-0.1448574549485885
11.612775330396476,-0.18852089393486374
11.64614537444934,-0.11821906686732657
11.679515418502204,0.010376832888035694
11.712885462555066,0.12395313397831992
11.74625550660793,0.16345974873261362
11.779625550660793,0.10603905227651299
11.812995594713657,-0.03071445112791656
11.846365638766521,-0.20144787221509253
11.879735682819383,-0.35491439428136523
11.913105726872248,-0.4543831214981955
11.94647577092511,-0.488136981102997
11.979845814977974,-0.46721349501811094
12.013215859030838,-0.41364503708617056
12.0465859030837,-0.3462904289979921
12.079955947136565,-0.2715560025748799
12.113325991189427,-0.18322137180351533
12.146696035242291,-0.07084870261396597
12.180066079295155,0.06799502529502076
12.213436123348018,0.2184847756111715
12.246806167400882,0.34806576327198524
12.280176211453744,0.41694917531988596
12.313546255506608,0.3966117336864883
12.346916299559473,0.2884894757920822
12.380286343612335,0.1328794533850613
12.413656387665199,0.0005740031902609374
12.447026431718061,-0.03298440477147286
12.480396475770926,0.07790314750672611
12.51376651982379,0.32142001261120934
12.547136563876652,0.6216466756051942
12.580506607929516,0.8596959572612858
12.613876651982379,0.9169718574399688
12.647246696035243,0.7242055620500536
12.680616740088107,0.29563005191594327
12.71398678414097,-0.26775146750870327
12.747356828193833,-0.809673549083731
12.780726872246696,-1.1738321235694065
12.81409691629956,-1.2607350334796275
12.847466960352424,-1.0625234169062152
12.880837004405286,-0.6614218456616623
12.91420704845815,-0.19364151538106303
12.947577092511013,0.20425667541820705
12.980947136563877,0.4428877407575977
13.014317180616741,0.5027021525900915
13.047687224669604,0.42619686197391876
13.081057268722468,0.2881148283101508
13.11442731277533,0.15993196341989369
13.147797356828194,0.08396790824192742
13.181167400881058,0.06505031476157162
13.21453744493392,0.07878959070985472
13.247907488986785,0.0894247061316319
13.281277533039647,0.06848891065975522
13.314647577092511,0.007383300443516405
13.348017621145376,-0.07955449046420743
13.381387665198238,-0.1613612839896082
13.414757709251102,-0.2032427412042819
13.448127753303964,-0.18117927782398466
13.481497797356829,-0.09307285560620304
13.514867841409693,0.03792237475811027
13.548237885462555,0.1696898275017143
13.58160792951542,0.2552842530372739
13.614977973568282,0.2599045701695935
13.648348017621146,0.17430930698030106
13.68171806167401,0.019450852551017254
13.715088105726872,-0.15961497917940456
13.748458149779736,-0.30849144420480323
13.781828193832599,-0.38170924445386767
13.815198237885463,-0.35815783768506704
13.848568281938327,-0.24831194970559228
13.88193832599119,-0.09060708248779709
13.915308370044054,0.06196892593580779
13.948678414096916,0.16040413105308982
13.98204845814978,0.1765807993986731
14.015418502202644,0.11244735791952921
14.048788546255507,-0.0015190545282942986
14.08215859030837,-0.11733435706658195
14.115528634361233,-0.18569141655419039
14.148898678414097,-0.1721234118422289
14.182268722466961,-0.06886575074435124
14.215638766519824,0.10049358159880249
14.249008810572688,0.2853419746252289
14.28237885462555,0.4217044407502517
14.315748898678414,0.4530339229157843
14.349118942731279,0.35234302890685004
14.382488986784141,0.1370799762095206
14.415859030837005,-0.13134257858217863
14.449229074889868,-0.3662967706688359
14.482599118942732,-0.4875712872429821
14.515969162995596,-0.45314847086233956
14.549339207048458,-0.2765997419676043
14.582709251101322,-0.021294823573905032
14.616079295154185,0.22648382036320977
14.649449339207049,0.3930217534950266
14.682819383259913,0.4446060106104883
14.716189427312775,0.3947973260666984
14.74955947136564,0.2901038384459813
14.782929515418502,0.18342933333510955
14.816299559471366,0.10971236020866425
14.84966960352423,0.075142917592749
14.883039647577093,0.06268214770610951
14.916409691629957,0.04771537591889881
14.94977973568282,0.013475160150814156
14.983149779735683,-0.04196443452586512
15.016519823788547,-0.1089878643812091
15.04988986784141,-0.17565198336528765
15.083259911894274,-0.23581699680035723
15.116629955947138,-0.29107734379614714
15.15,-0.34589249857327653
15.183370044052865,-0.399489433234142
15.216740088105727,-0.4397789949492334
15.250110132158591,-0.4433586103627601
15.283480176211455,-0.3827611066541736
15.316850220264318,-0.2389015347228306
15.350220264317182,-0.014205558978528893
15.383590308370044,0.25921874135673667
15.416960352422908,0.5213168439933169
15.450330396475772,0.6979096571925326
15.483700440528635,0.7242527112160146
15.517070484581499,0.5710234893047955
15.550440528634361,0.26222992462380335
15.583810572687225,-0.12462775203824032
15.61718061674009,-0.4799437089739426
15.650550660792952,-0.6994098487347425
15.683920704845816,-0.7232635880654239
15.717290748898678,-0.5601732458787677
15.750660792951543,-0.28379390097827306
15.784030837004407,-0.001865440679337476
15.817400881057269,0.18938132985112788
15.850770925110133,0.24529821352640924
15.884140969162996,0.1890987987464461
15.91751101321586,0.09671226423372525
15.950881057268724,0.05706440443988796
15.984251101321586,0.12632148081108519
16.01762114537445,0.2980484565870578
16.050991189427315,0.5043541611853376
16.084361233480177,0.6483921134152689
16.11773127753304,0.6525958923514061
16.151101321585905,0.4979857991844098
16.184471365638768,0.2335604646842317
16.21784140969163,-0.049554819341404356
16.251211453744492,-0.26499271507383115
16.284581497797358,-0.37283691120976736
16.31795154185022,-0.3930365558746281
16.351321585903083,-0.3842618166871512
16.38469162995595,-0.40228918954033155
16.41806167400881,-0.46350794791331257
16.451431718061674,-0.5349574326608019
16.48480176211454,-0.5554724399823913
16.518171806167402,-0.47376241853690276
16.551541850220264,-0.28003071288321457
16.584911894273127,-0.013052911579840856
16.618281938325993,0.2597211064506576
16.651651982378855,0.4756529057408656
16.685022026431717,0.6039656347952216
16.718392070484583,0.6518998572587485
16.751762114537446,0.648896273741055
16.785132158590308,0.6205638675107573
16.818502202643174,0.5692830573012354
16.851872246696036,0.4733451849435896
16.8852422907489,0.3049016248171214
16.91861233480176,0.05553206915830354
16.951982378854627,-0.24651976878667015
16.98535242290749,-0.5387972658462182
17.01872246696035,-0.7469121178837929
17.052092511013218,-0.8155618559507368
17.08546255506608,-0.7324166527760284
17.118832599118942,-0.5331687211390408
17.152202643171808,-0.28623893784270277
17.18557268722467,-0.06569382805442632
17.218942731277533,0.07465252541764325
17.2523127753304,0.11577029922912783
17.28568281938326,0.07358220104101276
17.319052863436124,-0.011525972549554956
17.352422907488986,-0.08944074471024793
