Time (s),Filtered Signal
0.0,-0.057957402184988654
0.033370535714285714,-0.05117183591074688
0.06674107142857143,-0.12063546673342798
0.10011160714285713,-0.31276945141309187
0.13348214285714285,-0.6257031266720929
0.16685267857142858,-1.0102823979435098
0.20022321428571427,-1.388407380264447
0.23359375,-1.6802003455131835
0.2669642857142857,-1.829061239239978
0.30033482142857143,-1.8159698216436593
0.33370535714285715,-1.659621060119025
0.36707589285714287,-1.404540727452533
0.40044642857142854,-1.1031478737559892
0.43381696428571426,-0.7988488020147908
0.4671875,-0.5157937376857269
0.5005580357142857,-0.2578041091472514
0.5339285714285714,-0.015438165489183133
0.5672991071428571,0.2226122336515718
0.6006696428571429,0.4588251958395049
0.6340401785714286,0.6813140871178649
0.6674107142857143,0.8658137217581665
0.70078125,0.9845678917871504
0.7341517857142857,1.0185864819361234
0.7675223214285715,0.9679863260162547
0.8008928571428571,0.8554540539972377
0.8342633928571428,0.7204972041364884
0.8676339285714285,0.606193447419441
0.9010044642857142,0.5437642415779786
0.934375,0.541583749860611
0.9677455357142857,0.5833636077479869
1.0011160714285714,0.6360786541098253
1.0344866071428571,0.6638177128753824
1.0678571428571428,0.6413362338810412
1.1012276785714286,0.5617401341046339
1.1345982142857143,0.4359264297107041
1.16796875,0.28538673839054396
1.2013392857142857,0.132705945990597
1.2347098214285714,-0.005689954244421241
1.2680803571428572,-0.12208265942312617
1.3014508928571429,-0.2158078155254743
1.3348214285714286,-0.28989186490873164
1.3681919642857143,-0.34849569713612905
1.4015625,-0.39612178206933923
1.4349330357142858,-0.4377644925352165
1.4683035714285715,-0.478491993283827
1.5016741071428572,-0.5217202348308632
1.535044642857143,-0.5669830110486285
1.5684151785714286,-0.6090889435725861
1.6017857142857141,-0.640230262349537
1.6351562499999999,-0.6548166466775017
1.6685267857142856,-0.6545362335767464
1.7018973214285713,-0.6499425036885597
1.735267857142857,-0.6559271297275139
1.7686383928571427,-0.6817295539436065
1.8020089285714285,-0.7200891026376538
1.8353794642857142,-0.742301159529636
1.86875,-0.7043446221985726
1.9021205357142856,-0.5639348972781608
1.9354910714285714,-0.3018420345998112
1.968861607142857,0.06302177827996795
2.002232142857143,0.47352438386311546
2.0356026785714287,0.8510429477570509
2.0689732142857142,1.122247598242278
2.10234375,1.244003662130498
2.1357142857142857,1.2156025900597358
2.169084821428571,1.0740967260013554
2.202455357142857,0.8765215434675674
2.2358258928571426,0.6779400968155725
2.2691964285714286,0.5144680855874075
2.302566964285714,0.39662129647599675
2.3359375,0.31314713821960316
2.3693080357142855,0.2415491879935065
2.4026785714285714,0.1600343613317106
2.436049107142857,0.0564104929903328
2.469419642857143,-0.0684261452403286
2.5027901785714284,-0.20238236354540218
2.5361607142857143,-0.3275354487134772
2.56953125,-0.4262520585326725
2.6029017857142858,-0.48575283772826355
2.6362723214285713,-0.5001535859900633
2.669642857142857,-0.4704555981977404
2.7030133928571427,-0.4036325273353613
2.7363839285714286,-0.3115623769534802
2.769754464285714,-0.20961493261790087
2.803125,-0.11419715996546105
2.8364955357142856,-0.03907465928629603
2.8698660714285715,0.008503052782211555
2.903236607142857,0.029972988455414375
2.936607142857143,0.03438261490283109
2.9699776785714285,0.034104793877477044
3.0033482142857144,0.03921787657944287
3.03671875,0.053294489361493017
3.070089285714286,0.07263834132245318
3.1034598214285714,0.08914199203726632
3.1368303571428573,0.09503001421935912
3.170200892857143,0.0868981771430346
3.2035714285714283,0.06708063351835647
3.2369419642857142,0.04201054064006401
3.2703124999999997,0.018860392733696
3.3036830357142857,0.0024240322350082663
3.337053571428571,-0.006325935078760661
3.370424107142857,-0.009777307564809566
3.4037946428571426,-0.012097729193453621
3.4371651785714286,-0.017565790164186714
3.470535714285714,-0.02941388545543883
3.50390625,-0.04923239977955221
3.5372767857142855,-0.0768189390911789
3.5706473214285714,-0.1105812769486009
3.604017857142857,-0.14874070824383478
3.637388392857143,-0.19115928594057047
3.6707589285714284,-0.24072457314390358
3.7041294642857143,-0.3026377956411246
3.7375,-0.3805441893874995
3.7708705357142858,-0.47036113905064664
3.8042410714285713,-0.5549083489323667
3.837611607142857,-0.6033909618630445
3.8709821428571427,-0.5782915509428812
3.9043526785714286,-0.4486204786431474
3.937723214285714,-0.20460609903965235
3.97109375,0.1328857437057366
4.004464285714286,0.5133017250782628
4.0378348214285715,0.8684346509181241
4.0712053571428575,1.1313760090091924
4.1045758928571425,1.2553708570149438
4.1379464285714285,1.225980073226735
4.171316964285714,1.0630510226543621
4.2046875,0.8129636347380539
4.238058035714285,0.5346514602114266
4.271428571428571,0.28408365597368057
4.304799107142857,0.10136884716331618
4.338169642857142,0.0031662386054478334
4.371540178571428,-0.018548161449413906
4.404910714285714,0.008299023086576656
4.43828125,0.04520463041662085
4.471651785714285,0.05453276937354887
4.505022321428571,0.009989217465418043
4.538392857142857,-0.09691418555893537
4.571763392857143,-0.2563185416275128
4.605133928571428,-0.44521762271030657
4.638504464285714,-0.6359548909290561
4.671875,-0.8043114303288667
4.705245535714286,-0.9339931634876552
4.738616071428571,-1.0164164951159196
4.771986607142857,-1.0472246864614603
4.805357142857143,-1.0225588809086898
4.838727678571429,-0.9379324591585265
4.872098214285714,-0.7907696962242935
4.90546875,-0.5852710547016404
4.938839285714286,-0.33656947233288403
4.972209821428572,-0.0710973544626055
5.005580357142857,0.17821686901908468
5.038950892857143,0.3807084888829634
5.072321428571429,0.5173348795901775
5.105691964285715,0.5866932710480826
5.1390625,0.6050128363550309
5.172433035714286,0.5998709114185756
5.2058035714285715,0.5998511838881292
5.2391741071428575,0.6238527635219026
5.2725446428571425,0.6738218040455095
5.3059151785714285,0.7334569121987254
5.339285714285714,0.7734513275552934
5.3726562499999995,0.7617080196070591
5.406026785714285,0.6752901311565961
5.439397321428571,0.5101280364276742
5.472767857142857,0.28497587372921723
5.506138392857142,0.03776456349729225
5.539508928571428,-0.18506025455676398
5.572879464285714,-0.3430946325175142
5.60625,-0.41552502687031784
5.639620535714285,-0.40851771625779115
5.672991071428571,-0.35301648932521706
5.706361607142857,-0.292950798638738
5.739732142857143,-0.26786687216517596
5.773102678571428,-0.2968237593584831
5.806473214285714,-0.37047149220563097
5.83984375,-0.4550999870095545
5.873214285714286,-0.5072624909735208
5.906584821428571,-0.4926997457030956
5.939955357142857,-0.401170543656336
5.973325892857143,-0.25064363145722973
6.006696428571429,-0.07932384847716606
6.040066964285714,0.07033453020953938
6.0734375,0.16801327427589707
6.106808035714286,0.20511365803992218
6.140178571428572,0.19417330187394966
6.173549107142857,0.15981445980584727
6.206919642857143,0.12657226627803655
6.240290178571429,0.10953329191605196
6.273660714285715,0.11132303648294524
6.30703125,0.12524145762593983
6.340401785714286,0.1413985073370991
6.3737723214285715,0.15198512720153814
6.407142857142857,0.15333968692416475
6.4405133928571425,0.14497377295292338
6.4738839285714285,0.12755389087188843
6.507254464285714,0.1019801548251811
6.5406249999999995,0.0703132815249106
6.573995535714285,0.03748299555888241
6.607366071428571,0.011757422784661358
6.640736607142857,0.002535764761483564
6.674107142857142,0.01580846826926604
6.707477678571428,0.04948669040853014
6.740848214285714,0.09150673174154725
6.77421875,0.12258075543294654
6.807589285714285,0.12314116324782468
6.840959821428571,0.0816710688268948
6.874330357142857,0.0005680440757985592
6.907700892857143,-0.1034143349635241
6.941071428571428,-0.20468906667968823
6.974441964285714,-0.2781419958778684
7.0078125,-0.3083242324430892
7.041183035714286,-0.29469644663300343
7.074553571428571,-0.25085494154861404
7.107924107142857,-0.19828926855495588
7.141294642857143,-0.1574984355787823
7.174665178571429,-0.14023164429814478
7.208035714285714,-0.14587719142852118
7.24140625,-0.16304044432574685
7.274776785714286,-0.17510663997214215
7.308147321428572,-0.16710140352000935
7.341517857142857,-0.13102265458222542
7.374888392857143,-0.06790956043572116
7.408258928571429,0.013455076433078993
7.441629464285715,0.10000273999653538
7.475,0.1783510089607067
7.508370535714286,0.23804550040835648
7.5417410714285715,0.27357423552967886
7.575111607142857,0.28517160994542196
7.6084821428571425,0.2784801159030794
7.6418526785714285,0.2629665246081104
7.675223214285714,0.24905663036363554
7.7085937499999995,0.24449679991874665
7.741964285714285,0.251213704714137
7.775334821428571,0.2643041534841416
7.808705357142857,0.27421552410769506
7.842075892857142,0.271688010362822
7.875446428571428,0.25329839224686057
7.908816964285714,0.22449414704754825
7.9421875,0.19763481135573646
7.975558035714285,0.18482332565995477
8.008928571428571,0.18834375164852007
8.042299107142856,0.19378573528174348
8.075669642857143,0.1709005659435399
8.109040178571428,0.08425617976726504
8.142410714285715,-0.08924849210714583
8.17578125,-0.34358573973059026
8.209151785714285,-0.6365444786184693
8.242522321428572,-0.8981653568610118
8.275892857142857,-1.0533923146135664
8.309263392857142,-1.0502836897981327
8.342633928571429,-0.8814208587518882
8.376004464285714,-0.5884884586600841
8.409375,-0.24752659028971402
8.442745535714286,0.05869681062328028
8.47611607142857,0.2690093367576444
8.509486607142858,0.3610194279753106
8.542857142857143,0.3513004370722828
8.576227678571428,0.2809131304809727
8.609598214285715,0.1947864313141845
8.64296875,0.12484702376181539
8.676339285714285,0.08330344507225709
8.709709821428572,0.06652311464848806
8.743080357142857,0.06478169958576717
8.776450892857143,0.07125962991364101
8.809821428571428,0.08549286934380225
8.843191964285714,0.11056231340877214
8.8765625,0.14714820756048133
8.909933035714285,0.18910864327075924
8.94330357142857,0.22385415943761416
8.976674107142857,0.23753936443103305
9.010044642857142,0.22200017376773945
9.04341517857143,0.17924111229608009
9.076785714285714,0.12070809475224999
9.11015625,0.061648222492414674
9.143526785714286,0.013719479823225288
9.176897321428571,-0.01999233364537777
9.210267857142856,-0.04479843022201147
9.243638392857143,-0.06927758423812497
9.277008928571428,-0.0982014892525444
9.310379464285715,-0.12761490661834382
9.34375,-0.14497493623732197
9.377120535714285,-0.13447592663673308
9.410491071428572,-0.08488803346225363
9.443861607142857,0.00405001175174705
9.477232142857142,0.11977872645181774
9.510602678571429,0.24027616975238
9.543973214285714,0.3407523216784266
9.57734375,0.4005456001721117
9.610714285714286,0.4076359159743411
9.64408482142857,0.35992760803542584
9.677455357142858,0.264125460392628
9.710825892857143,0.1336317345809082
9.744196428571428,-0.013646179585216979
9.777566964285715,-0.15760566957201777
9.8109375,-0.2788055465503885
9.844308035714285,-0.36188328853715324
9.877678571428572,-0.3987661869594433
9.911049107142857,-0.39049165759161547
9.944419642857143,-0.3467857411713571
9.977790178571428,-0.28344204091882486
10.011160714285714,-0.21843874805068922
10.04453125,-0.16810645640136615
10.077901785714285,-0.14432908194247526
10.11127232142857,-0.15297737175167533
10.144642857142857,-0.19310423168331584
10.178013392857142,-0.25640193508254205
10.21138392857143,-0.3271050966042863
10.244754464285714,-0.3833658905485725
10.278125,-0.40126755446019613
10.311495535714286,-0.3615746055727186
10.344866071428571,-0.2574205325977625
10.378236607142856,-0.09958570590347819
10.411607142857143,0.08392197261933897
10.444977678571428,0.2551816904739762
10.478348214285715,0.37851125803846253
10.51171875,0.432720284227037
10.545089285714285,0.4182200485977379
10.578459821428572,0.3558361937376804
10.611830357142857,0.2778583352826964
10.645200892857142,0.21529211980589172
10.678571428571429,0.18679009966728438
10.711941964285714,0.1937009451730012
10.745312499999999,0.22272636987025987
10.778683035714286,0.2542859307598693
10.81205357142857,0.27240808293171986
10.845424107142858,0.2717010148201908
10.878794642857143,0.2586393046794886
10.912165178571428,0.24711478906825968
10.945535714285715,0.2506714190984043
10.97890625,0.2750490551970918
11.012276785714285,0.31423814802066447
11.045647321428572,0.35156332903736826
11.079017857142857,0.36520179544639414
11.112388392857143,0.33588246809675537
11.145758928571428,0.25387102060603645
11.179129464285714,0.1228116765968463
11.2125,-0.040762065834885265
11.245870535714285,-0.21195276195701498
11.27924107142857,-0.3645348078326545
11.312611607142857,-0.47829971240712954
11.345982142857142,-0.5444801930434964
11.37935267857143,-0.5675791217353697
11.412723214285714,-0.5629357457509157
11.44609375,-0.5506310563556478
11.479464285714286,-0.5475998777335637
11.512834821428571,-0.5606960623144551
11.546205357142856,-0.5835071426944332
11.579575892857143,-0.5986433855686871
11.612946428571428,-0.5851667968252166
11.646316964285715,-0.5284749301535532
11.6796875,-0.42838685136438115
11.713058035714285,-0.3013473800224751
11.746428571428572,-0.17483687509515825
11.779799107142857,-0.07553868094925098
11.813169642857142,-0.01608900073207084
11.846540178571429,0.013325214589871124
11.879910714285714,0.04365424791149185
11.913281249999999,0.11509736668282314
11.946651785714286,0.2587823508996823
11.98002232142857,0.4797723316562709
12.013392857142858,0.7493702599377593
12.046763392857143,1.0110566611734657
12.080133928571428,1.1984781866318708
12.113504464285715,1.2585194097043721
12.146875,1.1701951732916238
12.180245535714285,0.9518821380787725
12.213616071428572,0.654320808508733
12.246986607142857,0.3425985298428234
12.280357142857143,0.07448751619597405
12.313727678571428,-0.1165732985412705
12.347098214285714,-0.22803753501802979
12.38046875,-0.28307842970882346
12.413839285714285,-0.3169526830248386
12.44720982142857,-0.3609148440779894
12.480580357142857,-0.4298596975604492
12.513950892857142,-0.5178008416321531
12.54732142857143,-0.6020546462352121
12.580691964285714,-0.6538123614792427
12.6140625,-0.6506489151802204
12.647433035714286,-0.5860359053087623
12.680803571428571,-0.4722116797638005
12.714174107142856,-0.33539130972150955
12.747544642857143,-0.20537281083494865
12.780915178571428,-0.10395402125466863
12.814285714285713,-0.037185445058301694
12.84765625,0.005088512221682844
12.881026785714285,0.042201390237151866
12.914397321428572,0.09149320433814268
12.947767857142857,0.158450003166306
12.981138392857142,0.23310975005085893
13.014508928571429,0.2946525899107371
13.047879464285714,0.32194524041671974
13.081249999999999,0.3046815688120893
13.114620535714286,0.249356942339655
13.14799107142857,0.17691371948939286
13.181361607142858,0.11314448051477392
13.214732142857143,0.07659995670548181
13.248102678571428,0.06995823360959948
13.281473214285715,0.07905991461159391
13.31484375,0.08008907068688963
13.348214285714285,0.05153309481763686
13.381584821428572,-0.01465176543843448
13.414955357142857,-0.10789372139371588
13.448325892857143,-0.2024232537548974
13.481696428571428,-0.26797566512630805
13.515066964285714,-0.2831653907776381
13.5484375,-0.24553455853349263
13.581808035714285,-0.17353018205247991
13.61517857142857,-0.09912557384388425
13.648549107142857,-0.05400791565291146
13.681919642857142,-0.05528381881325944
13.71529017857143,-0.09703759101289591
13.748660714285714,-0.15157954112489883
13.78203125,-0.18001842379843336
13.815401785714286,-0.14786033263786344
13.848772321428571,-0.0394178884932836
13.882142857142856,0.13444055312977937
13.915513392857143,0.3378978744973212
13.948883928571428,0.5204484732474874
13.982254464285713,0.6324006236573726
14.015625,0.6408214926416396
14.048995535714285,0.5410329289319249
14.082366071428572,0.3597738546553897
14.115736607142857,0.14822273286089993
14.149107142857142,-0.03385659980661288
14.182477678571429,-0.13816588831054302
14.215848214285714,-0.14505320937873487
14.249218749999999,-0.07090651711156215
14.282589285714286,0.037884310267486315
14.31595982142857,0.1226784005854715
14.349330357142858,0.13523348479204209
14.382700892857143,0.05610019164248514
14.416071428571428,-0.09871279790188593
14.449441964285715,-0.2852508767412086
14.4828125,-0.44968524727066045
14.516183035714285,-0.549018531995098
14.549553571428572,-0.5658542633517109
14.582924107142857,-0.5117781692211626
14.616294642857143,-0.4191113433468267
14.649665178571428,-0.3256141053318906
14.683035714285714,-0.259101681310936
14.71640625,-0.22815413055846426
14.749776785714285,-0.22187642146595424
14.78314732142857,-0.2176181163332908
14.816517857142857,-0.19244361304615226
14.849888392857142,-0.13311812374368243
14.88325892857143,-0.04063954705755499
14.916629464285714,0.07184978817625538
14.95,0.1859257231088561
14.983370535714286,0.28578942771990634
15.016741071428571,0.36350603475276044
15.050111607142856,0.41964279145164796
15.083482142857143,0.45992326385615734
15.116852678571428,0.4904588281714313
15.150223214285713,0.5144458383399136
15.18359375,0.5318446700380144
15.216964285714285,0.54138858871449
15.250334821428572,0.5426724210641213
15.283705357142857,0.5360761658058399
15.317075892857142,0.5199642763684844
15.350446428571429,0.48698077476923435
15.383816964285714,0.42277080777059933
15.417187499999999,0.3098487663122352
15.450558035714286,0.13651893115959923
15.48392857142857,-0.09287336800416247
15.517299107142858,-0.3522632175373658
15.550669642857143,-0.5976070656438851
15.584040178571428,-0.7805793871035314
15.617410714285715,-0.8672625823107242
15.65078125,-0.8532683315264146
15.684151785714285,-0.7673160200204412
15.717522321428572,-0.6601596445685058
15.750892857142857,-0.5826829512599727
15.784263392857143,-0.5625932116931469
15.817633928571428,-0.5905744793810784
15.851004464285714,-0.6230499454523243
15.884375,-0.6013032732852367
15.917745535714285,-0.4789341471060592
15.95111607142857,-0.245213129978633
15.984486607142857,0.06675031188911121
16.017857142857142,0.3912887375432177
16.05122767857143,0.655980796184606
16.084598214285712,0.8100759097094874
16.11796875,0.8425170116147911
16.151339285714286,0.7818794410240012
16.18470982142857,0.6794797681912396
16.218080357142856,0.5847442724668271
16.251450892857143,0.5248019881148881
16.28482142857143,0.49715115840371715
16.318191964285713,0.47719338334943495
16.3515625,0.43520584739872675
16.384933035714287,0.3533985682715901
16.41830357142857,0.23465418771568294
16.451674107142857,0.09950560831695908
16.485044642857144,-0.02584463666530751
16.518415178571427,-0.12330542547718605
16.551785714285714,-0.19095815822985435
16.58515625,-0.2414871291478978
16.618526785714284,-0.292550367506191
16.65189732142857,-0.35498360355780073
16.685267857142858,-0.4256004518837546
16.71863839285714,-0.48847273768190175
16.752008928571428,-0.523717903007965
16.785379464285715,-0.5187245396943388
16.81875,-0.47556007446069415
16.852120535714285,-0.41049664265122826
16.88549107142857,-0.3458577015866784
16.91886160714286,-0.29844483897515683
16.95223214285714,-0.2705799474845557
16.98560267857143,-0.24844618171244082
17.018973214285715,-0.20869390299433055
17.05234375,-0.1301383912574281
17.085714285714285,-0.0049081516900678695
17.119084821428572,0.156235824488684
17.152455357142856,0.3268199929495058
17.185825892857142,0.474378837121152
17.21919642857143,0.5725726409255962
17.252566964285712,0.6104784045768898
17.2859375,0.5953098100208345
17.319308035714286,0.5477600141848312
17.35267857142857,0.4922379278309987
17.386049107142856,0.44627541829320866
17.419419642857143,0.41361150665576746
17.45279017857143,0.38385316502284816
17.486160714285713,0.33875464045044873
17.51953125,0.26214885572473634
17.552901785714287,0.14872879069988482
17.58627232142857,0.007240642618831647
17.619642857142857,-0.14366975576607366
17.653013392857144,-0.28484215261660273
17.686383928571427,-0.40604181701606173
