Frequency (Hz),Amplitude
0.0,0.044652223941268554
0.019867549668874173,0.06504208767886571
0.039735099337748346,0.1045544117298782
0.059602649006622516,0.1485627752518932
0.07947019867549669,0.1939186529054247
0.09933774834437085,0.23973134062644572
0.11920529801324503,0.2856443759090048
0.13907284768211922,0.3314728824344896
0.15894039735099338,0.3771000833093632
0.17880794701986755,0.42244058119447375
0.1986754966887417,0.4674251615498427
0.2185430463576159,0.5119937519959765
0.23841059602649006,0.556091869967268
0.2582781456953642,0.5996687089637707
0.27814569536423844,0.6426760542898904
0.2980132450331126,0.6850676450893768
0.31788079470198677,0.7267987889537654
0.33774834437086093,0.767826125662658
0.3576158940397351,0.8081074821911868
0.3774834437086093,0.8476017852909506
0.3973509933774834,0.8862690113262723
0.4172185430463576,0.9240701607293283
0.4370860927152318,0.9609672489958195
0.45695364238410596,0.9969233089274893
0.4768211920529801,1.0319024005734225
0.49668874172185434,1.0658696264424632
0.5165562913907285,1.0987911502936476
0.5364238410596026,1.1306342183022753
0.5562913907284769,1.1613671817334614
0.5761589403973509,1.190959520485735
0.5960264900662252,1.2193818670296959
0.6158940397350993,1.2466060303822553
0.6357615894039735,1.2726050198404544
0.6556291390728477,1.2973530682599461
0.6754966887417219,1.3208256547086359
0.695364238410596,1.3429995263598007
0.7152317880794702,1.3638527195149834
0.7350993377483444,1.3833645796666911
0.7549668874172186,1.4015157805265934
0.7748344370860927,1.418288341957049
0.7947019867549668,1.4336656467535491
0.8145695364238411,1.4476324562337939
0.8344370860927152,1.460174924595505
0.8543046357615894,1.4712806120108184
0.8741721854304636,1.4809384964293966
0.8940397350993378,1.4891389840670195
0.9139072847682119,1.495873918559366
0.9337748344370861,1.501136588764441
0.9536423841059603,1.5049217351996043
0.9735099337748344,1.507225555102057
0.9933774834437087,1.5080457061040597
1.0132450331125828,1.507381308516645
1.033112582781457,1.5052329462176874
1.0529801324503312,1.5016026661426953
1.0728476821192052,1.49649397637869
1.0927152317880795,1.4899118428639058
1.1125827814569538,1.4818626846981977
1.1324503311258278,1.472354368071488
1.1523178807947019,1.46139619881985
1.1721854304635762,1.448998913621448
1.1920529801324504,1.4351746698473313
1.2119205298013245,1.4199370340850053
1.2317880794701985,1.40330096935596
1.2516556291390728,1.3852828210521837
1.271523178807947,1.3659003016206552
1.2913907284768211,1.3451724740302302
1.3112582781456954,1.3231197340605765
1.3311258278145695,1.2997637914604026
1.3509933774834437,1.2751276500304964
1.370860927152318,1.2492355866979674
1.390728476821192,1.2221131296614314
1.410596026490066,1.1937870357042466
1.4304635761589404,1.164285266795106
1.4503311258278146,1.1336369661247139
1.4701986754966887,1.1018724337660053
1.4900662251655628,1.0690231021980652
1.5099337748344372,1.0351215120053006
1.5298013245033113,1.000201288162324
1.5496688741721854,0.964297117453824
1.5695364238410596,0.9274447277758289
1.5894039735099337,0.8896808703497526
1.609271523178808,0.8510433062988578
1.6291390728476822,0.8115707996622972
1.6490066225165563,0.771303119874449
1.6688741721854303,0.7302810582207637
1.6887417218543048,0.688546465143896
1.7086092715231789,0.6461423191374732
1.728476821192053,0.6031128444664864
1.7483443708609272,0.5595037062577847
1.7682119205298013,0.5153623318990614
1.7880794701986755,0.470738446072923
1.8079470198675496,0.4256849826427625
1.8278145695364238,0.38025969552254063
1.847682119205298,0.33452814703748046
1.8675496688741722,0.28856962066729885
1.8874172185430464,0.24248985044393906
1.9072847682119205,0.19645168135179297
1.9271523178807946,0.15076121283801358
1.9470198675496688,0.10616963686637629
1.9668874172185429,0.06533522588487811
1.9867549668874174,0.04180670419614938
2.0066225165562916,0.06099535521732355
2.0264900662251657,0.10089606739184519
2.0463576158940397,0.14526633937393646
2.066225165562914,0.19090703887988403
2.086092715231788,0.236960657242263
2.1059602649006623,0.283090913174464
2.1258278145695364,0.32912389286277177
2.1456953642384105,0.37494899613369487
2.165562913907285,0.4204844733433024
2.185430463576159,0.46566334731685743
2.205298013245033,0.5104269523900753
2.2251655629139075,0.554721698763596
2.2450331125827816,0.5984973405899323
2.2649006622516556,0.6417060008308376
2.2847682119205297,0.6843016013700962
2.3046357615894038,0.7262395215764151
2.324503311258278,0.767476391302067
2.3443708609271523,0.8079699659082313
2.364238410596027,0.8476790528894097
2.384105960264901,0.8865634717932399
2.403973509933775,0.9245840360758809
2.423841059602649,0.9617025496435245
2.443708609271523,0.9978818133358885
2.463576158940397,1.0330856381758096
2.4834437086092715,1.06727886321332
2.5033112582781456,1.1004273764504695
2.52317880794702,1.1324981377718863
2.543046357615894,1.1634592031045774
2.562913907284768,1.193279749236335
2.5827814569536423,1.2219300988670831
2.6026490066225163,1.2493817455701508
2.622516556291391,1.2756073784150337
2.642384105960265,1.3005809060576343
2.662251655629139,1.3242774801440904
2.6821192052980134,1.346673517904825
2.7019867549668874,1.367746723838331
2.7218543046357615,1.3874761104020015
2.741721854304636,1.4058420176411273
2.76158940397351,1.4228261316982276
2.781456953642384,1.4384115021535817
2.801324503311258,1.452582558155122
2.821192052980132,1.465325123301677
2.8410596026490067,1.4766264292486542
2.8609271523178808,1.486475128009469
2.8807947019867552,1.4948613029297824
2.9006622516556293,1.5017764783148033
2.9205298013245033,1.5072136276930252
2.9403973509933774,1.5111671807022913
2.9602649006622515,1.5136330285866777
2.9801324503311255,1.51460852829492
3.0,1.5140925051734373
3.0198675496688745,1.5120852542490217
3.0397350993377485,1.5085885400984154
3.0596026490066226,1.5036055953039507
3.0794701986754967,1.497141117496481
3.0993377483443707,1.4892012649888453
3.119205298013245,1.4797936510051373
3.1390728476821192,1.4689273365130795
3.1589403973509933,1.45661282166911
3.1788079470198674,1.4428620358877886
3.198675496688742,1.427688326549874
3.218543046357616,1.4111064463655842
3.23841059602649,1.3931325394128256
3.2582781456953644,1.373784125872857
3.2781456953642385,1.353080085489821
3.2980132450331126,1.3310406397843497
3.3178807947019866,1.3076873330564411
3.3377483443708607,1.2830430122185061
3.3576158940397347,1.257131805506445
3.3774834437086096,1.2299791001253704
3.3973509933774837,1.2016115188974308
3.4172185430463577,1.1720568959932938
3.437086092715232,1.141344251846968
3.456953642384106,1.1095037673777106
3.47682119205298,1.0765667576749607
3.4966887417218544,1.0425656453458907
3.5165562913907285,1.0075339337854736
3.5364238410596025,0.9715061807130764
3.556291390728477,0.9345179724392125
3.576158940397351,0.8966058994984206
3.596026490066225,0.8578075345372862
3.615894039735099,0.8181614137238838
3.6357615894039736,0.7777070235203641
3.6556291390728477,0.7364847955546603
3.6754966887417218,0.6945361137517944
3.695364238410596,0.651903340213334
3.7152317880794703,0.6086298702500863
3.7350993377483444,0.5647602337817977
3.754966887417219,0.520340272599771
3.774834437086093,0.4754174461087524
3.794701986754967,0.4300413638884999
3.814569536423841,0.38426473923872295
3.834437086092715,0.338145173080054
3.854304635761589,0.2917487033837437
3.8741721854304636,0.24515748213964103
3.8940397350993377,0.1984883737884613
3.9139072847682117,0.15194577318386657
3.9337748344370858,0.10601154296519878
3.9536423841059607,0.062445847071894114
3.9735099337748347,0.03319556320250787
3.993377483443709,0.05347219971979793
4.013245033112583,0.09574438369348703
4.033112582781457,0.14143078520646551
4.052980132450331,0.18795229367427896
4.072847682119205,0.23468966760205795
4.0927152317880795,0.28140146779062913
4.112582781456953,0.3279574955436807
4.132450331125828,0.37426973698992555
4.152317880794702,0.4202691289216074
4.172185430463576,0.46589626630348285
4.19205298013245,0.5110972033773861
4.211920529801325,0.5558213790640656
4.231788079470199,0.6000205219961551
4.251655629139073,0.643648044476146
4.271523178807947,0.6866586965159414
4.291390728476821,0.7290083656587985
4.311258278145695,0.7706539621414648
4.33112582781457,0.8115533558519951
4.3509933774834435,0.8516653456758309
4.370860927152318,0.8909496495881482
4.390728476821192,0.9293669082811871
4.410596026490066,0.9668786977305246
4.43046357615894,1.0034475476942248
4.450331125827815,1.039036964131253
4.470198675496689,1.0736114541608512
4.490066225165563,1.1071365525990557
4.509933774834438,1.1395788493855108
4.529801324503311,1.170906017401494
4.549668874172186,1.201086840309744
4.569536423841059,1.23009124013784
4.589403973509934,1.2578903043916707
4.6092715231788075,1.28445631253258
4.629139072847682,1.3097627616860912
4.649006622516556,1.3337843914757137
4.66887417218543,1.3564972078947624
4.688741721854305,1.377878506143823
4.708609271523179,1.3979068923730225
4.728476821192054,1.4165623042774027
4.748344370860927,1.4338260305008819
4.768211920529802,1.449680728810386
4.788079470198675,1.4641104430064902
4.80794701986755,1.4771006185412963
4.827814569536423,1.488638116817671
4.847682119205298,1.4987112281472914
4.867549668874172,1.5073096833476485
4.887417218543046,1.514424663960692
4.9072847682119205,1.5200488110782477
4.927152317880794,1.524176232761334
4.947019867549669,1.5268025100428013
4.966887417218543,1.5279247015042938
4.986754966887418,1.5275413464208338
5.006622516556291,1.5256524664678082
5.026490066225166,1.5222595659870244
5.04635761589404,1.5173656308102832
5.066225165562914,1.51097512564047
5.086092715231788,1.5030939899920173
5.105960264900662,1.4937296326941507
5.125827814569536,1.4828909249620168
5.14569536423841,1.470588192042583
5.1655629139072845,1.4568332034436868
5.185430463576159,1.4416391617565918
5.205298013245033,1.4250206900839397
5.225165562913908,1.406993818086934
5.245033112582782,1.387575966667456
5.264900662251656,1.3667859313028168
5.28476821192053,1.3446438640529224
5.304635761589404,1.3211712542620133
5.324503311258278,1.2963909079797058
5.344370860927152,1.2703269261288799
5.364238410596027,1.2430046814513607
5.3841059602649,1.2144507942663119
5.403973509933775,1.1846931070809588
5.4238410596026485,1.1537606580992965
5.443708609271523,1.1216836536818353
5.463576158940397,1.0884934398193398
5.483443708609272,1.0542224726962792
5.503311258278146,1.0189042884373436
5.52317880794702,0.9825734721543604
5.543046357615895,0.9452656264448465
5.562913907284768,0.9070173395418063
5.582781456953643,0.867866153385249
5.602649006622516,0.8278505319907848
5.622516556291391,0.7870098306507847
5.642384105960264,0.7453842667514735
5.662251655629139,0.703014893384454
5.682119205298013,0.6599435775761178
5.701986754966887,0.6162129860439042
5.7218543046357615,0.5718665832756875
5.741721854304636,0.526948650135619
5.7615894039735105,0.4815043376199522
5.781456953642384,0.4355797831026311
5.801324503311259,0.3892223431197027
5.821192052980132,0.34248105692417613
5.841059602649007,0.2954076028065373
5.860927152317881,0.24805841324290748
5.880794701986755,0.2004998860472349
5.900662251655629,0.1528234723756535
5.920529801324503,0.10520194805560033
5.940397350993377,0.05822061194987008
5.960264900662251,0.018856730824568933
5.980132450331126,0.044508151303863756
6.0,0.09090216478042366
6.0198675496688745,0.13849648818620983
6.039735099337749,0.18626845280136056
6.059602649006623,0.23398672790298775
6.079470198675497,0.2815448900582574
6.099337748344371,0.32887110890501287
6.119205298013245,0.3759063971020094
6.139072847682119,0.4225975651559662
6.158940397350993,0.4688944801198484
6.178807947019867,0.5147488610075236
6.198675496688741,0.56011370541198
6.218543046357616,0.6049430039952016
6.23841059602649,0.6491915973685969
6.258278145695365,0.6928151080895103
6.2781456953642385,0.7357699143806539
6.298013245033113,0.7780131479927985
6.317880794701987,0.81950270648229
6.337748344370861,0.8601972742824059
6.357615894039735,0.9000563491948016
6.377483443708609,0.9390402722060311
6.397350993377484,0.9771102592863644
6.417218543046357,1.0142284342852714
6.437086092715232,1.0503578623223617
6.456953642384105,1.0854625832549682
6.47682119205298,1.119507644922285
6.496688741721854,1.1524591359456384
6.516556291390729,1.1842842179185877
6.5364238410596025,1.214951156858011
6.556291390728477,1.244429353814038
6.5761589403973515,1.2726893745557724
6.596026490066225,1.299702978263856
6.6158940397351,1.325443145171426
6.635761589403973,1.34988410310308
6.655629139072848,1.373001352867834
6.675496688741721,1.3947716924669213
6.695364238410596,1.4151732400816093
6.715231788079469,1.4341854558095106
6.735099337748344,1.4517891621208219
6.754966887417219,1.4679665630087209
6.774834437086093,1.4827012618101274
6.794701986754967,1.495978277675552
6.814569536423841,1.5077840606683752
6.8344370860927155,1.5181065054760694
6.854304635761589,1.5269349637173955
6.874172185430464,1.534260254831517
6.894039735099337,1.5400746755363954
6.913907284768212,1.5443720078458214
6.933774834437086,1.547147525635582
6.95364238410596,1.5483979997511934
6.973509933774834,1.5481217016510183
6.993377483443709,1.5463184055801464
7.013245033112583,1.5429893892718993
7.033112582781457,1.5381374331755555
7.052980132450331,1.5317668182100062
7.072847682119205,1.5238833220449812
7.0927152317880795,1.514494213912713
7.112582781456954,1.5036082479544568
7.132450331125828,1.4912356551077552
7.152317880794702,1.477388133541935
7.172185430463576,1.4620788376505849
7.19205298013245,1.4453223656114003
7.211920529801324,1.4271347455250887
7.231788079470198,1.4075334201467207
7.251655629139073,1.386537230224011
7.271523178807947,1.3641663964587722
7.291390728476822,1.3404425001090792
7.311258278145695,1.3153884622511771
7.33112582781457,1.289028521721524
7.3509933774834435,1.2613882117610888
7.370860927152318,1.2324943353851938
7.390728476821192,1.202374939504068
7.410596026490066,1.1710592878207442
7.430463576158941,1.1385778325346756
7.450331125827814,1.10496218488142
7.470198675496689,1.0702450845408902
7.490066225165562,1.034460367949077
7.509933774834438,0.9976429355512607
7.52980132450331,0.9598287180385607
7.549668874172186,0.9210546416145009
7.569536423841059,0.8813585923452668
7.589403973509934,0.8407793796569094
7.6092715231788075,0.7993566990567913
7.629139072847682,0.7571310941782979
7.649006622516557,0.7141439182811503
7.66887417218543,0.670437295394398
7.6887417218543055,0.6260540813798575
7.708609271523178,0.5810378253517353
7.728476821192054,0.535432732172082
7.748344370860927,0.48928362727695357
7.768211920529802,0.44263592614787584
7.788079470198675,0.39553561297036005
7.80794701986755,0.34802923804526664
7.827814569536423,0.3001639558755347
7.847682119205298,0.25198765973517495
7.8675496688741715,0.20354937560934888
7.887417218543046,0.15490048979570367
7.907284768211921,0.10609950382042037
7.927152317880795,0.05724143383653598
7.9470198675496695,0.009449130027425812
7.966887417218543,0.04138889972578989
7.986754966887418,0.09025915956254826
8.006622516556291,0.1391769237032931
8.026490066225167,0.1880014582211264
8.046357615894038,0.2366684598504314
8.066225165562914,0.2851248017363456
8.086092715231787,0.33332052004714696
8.105960264900663,0.38120696768518936
8.125827814569536,0.4287362527887533
8.14569536423841,0.4758610479594022
8.165562913907285,0.5225345306117698
8.185430463576159,0.5687103766953888
8.205298013245034,0.6143427784517722
8.225165562913906,0.6593864738019874
8.245033112582782,0.703796781623439
8.264900662251655,0.7475296400523211
8.28476821192053,0.7905416462883003
8.304635761589404,0.8327900970420786
8.324503311258278,0.8742330291137695
8.344370860927151,0.9148292597801976
8.364238410596027,0.9545384267772338
8.3841059602649,0.9933210277274575
8.403973509933774,1.0311384589024777
8.42384105960265,1.0679530532338137
8.443708609271523,1.1037281175023848
8.463576158940398,1.1384279686474128
8.483443708609272,1.1720179691430295
8.503311258278146,1.2044645613963136
8.52317880794702,1.2357353011244843
8.543046357615895,1.2657988896722487
8.562913907284768,1.2946252052326983
8.582781456953642,1.3221853329375035
8.602649006622515,1.348451593783993
8.62251655629139,1.3733975723683063
8.642384105960264,1.3969981433957184
8.66225165562914,1.4192294969404313
8.682119205298013,1.4400691624288524
8.701986754966887,1.4594960313217484
8.721854304635762,1.4774903784720304
8.741721854304636,1.4940338821365222
8.76158940397351,1.5091096426213328
8.781456953642383,1.5227021995419796
8.801324503311259,1.534797547680886
8.821192052980132,1.5453831514262046
8.841059602649008,1.5544479577776253
8.86092715231788,1.5619824079060751
8.880794701986755,1.5679784472558915
8.90066225165563,1.5724295341796306
8.920529801324504,1.5753306470970165
8.940397350993377,1.5766782901714214
8.960264900662251,1.5764704974986472
8.980132450331126,1.5747068358045226
9.0,1.5713884056496195
9.019867549668875,1.566517841140919
9.039735099337747,1.5600993081522436
9.059602649006623,1.5521385010570148
9.079470198675496,1.542642637978915
9.099337748344372,1.5316204545678618
9.119205298013245,1.5190821963111443
9.139072847682119,1.5050396093916214
9.158940397350994,1.4895059301073315
9.178807947019868,1.4724958728698032
9.198675496688743,1.4540256168009988
9.218543046357615,1.4341127909524312
9.23841059602649,1.4127764581737863
9.258278145695364,1.3900370976626402
9.27814569536424,1.3659165862323788
9.298013245033111,1.3404381783416641
9.317880794701987,1.3136264849363626
9.33774834437086,1.2855074511648081
9.357615894039736,1.2561083330390819
9.37748344370861,1.225457673130844
9.397350993377483,1.1935852754103893
9.417218543046358,1.16052217936459
9.437086092715232,1.1263006335650756
9.456953642384107,1.0909540689071668
9.47682119205298,1.0545170718070673
9.496688741721854,1.017025357739063
9.516556291390728,0.9785157456280855
9.536423841059603,0.9390261338053224
9.556291390728477,0.8985954785170782
9.57615894039735,0.8572637763983907
9.596026490066224,0.8150720529642843
9.6158940397351,0.7720623601687127
9.635761589403973,0.7282777876679642
9.655629139072847,0.6837624950169406
9.675496688741722,0.6385617763828071
9.695364238410596,0.5927221769257776
9.715231788079471,0.5462916936290891
9.735099337748345,0.49932011898782735
9.754966887417218,0.45185963656955935
9.774834437086092,0.4039658833088012
9.794701986754967,0.3556999305682899
9.814569536423841,0.3071322137462354
9.834437086092716,0.2583510019246485
9.854304635761588,0.20948282396897133
9.874172185430464,0.1607500929915789
9.894039735099337,0.11267602130405853
9.913907284768213,0.06713948545160177
9.933774834437086,0.03626763446366848
9.95364238410596,0.0560212239975519
9.973509933774835,0.09988316838774124
9.993377483443709,0.14768273296822018
10.013245033112582,0.19646708170557892
10.033112582781456,0.2455295085845015
10.052980132450331,0.2945977059381479
10.072847682119205,0.3435269697416295
10.09271523178808,0.3922208474790745
10.112582781456952,0.44060449145292185
10.132450331125828,0.48861401824435163
10.152317880794701,0.5361917059087902
10.172185430463577,0.5832836222195215
10.192052980132452,0.6298383726222381
10.211920529801324,0.6758064064645183
10.2317880794702,0.7211396199625918
10.251655629139073,0.765791125402593
10.271523178807948,0.8097151176251793
10.29139072847682,0.8528667995554431
10.311258278145695,0.8952023446713256
10.331125827814569,0.9366788831571917
10.350993377483444,0.9772545035391034
10.370860927152318,1.0168882645760902
10.390728476821192,1.0555402139918226
10.410596026490065,1.0931714117605449
10.43046357615894,1.1297439563830811
10.450331125827816,1.1652210130604015
10.470198675496688,1.1995668429867188
10.490066225165563,1.2327468331971192
10.509933774834437,1.2647275265525528
10.529801324503312,1.2954766515476077
10.549668874172186,1.3249631517007474
10.56953642384106,1.3531572143395405
10.589403973509933,1.380030298632294
10.609271523178808,1.4055551627468272
10.629139072847682,1.429705890038635
10.649006622516556,1.4524579141876857
