Frequency (Hz),Amplitude
0.0,0.6280331293728618
0.01978021978021978,0.6286258909446659
0.03956043956043956,0.6303984252415363
0.05934065934065934,0.6333336514213547
0.07912087912087912,0.6374036570842645
0.0989010989010989,0.6425704900887121
0.11868131868131868,0.6487871892234243
0.13846153846153844,0.6559989876061687
0.15824175824175823,0.6641446180154472
0.17802197802197803,0.6731576516628618
0.1978021978021978,0.6829678098236897
0.21758241758241756,0.6935021993630738
0.23736263736263735,0.7046864365251602
0.2571428571428572,0.7164456366383267
0.2769230769230769,0.7287052593313328
0.2967032967032967,0.7413918086708672
0.31648351648351647,0.7544333950101806
0.3362637362637363,0.7677601703342483
0.35604395604395606,0.7813046517862259
0.3758241758241758,0.7950019492687057
0.3956043956043956,0.8087899129628394
0.4153846153846154,0.8226092157006938
0.4351648351648351,0.8364033836976227
0.45494505494505494,0.8501187874651541
0.4747252747252747,0.8637046029708142
0.4945054945054945,0.8771127514174628
0.5142857142857143,0.8902978244589147
0.5340659340659341,0.9032170002906128
0.5538461538461538,0.9158299548685687
0.5736263736263736,0.928098771513042
0.5934065934065934,0.939987851331998
0.6131868131868132,0.9514638262344304
0.6329670329670329,0.9624954757739869
0.6527472527472528,0.9730536486483413
0.6725274725274726,0.9831111893598056
0.6923076923076923,0.9926428703005645
0.7120879120879121,1.0016253293464263
0.7318681318681318,1.0100370129135734
0.7516483516483516,1.0178581243426816
0.7714285714285715,1.025070577415303
0.7912087912087912,1.031657954771754
0.810989010989011,1.0376054709820106
0.8307692307692308,1.0428999400171375
0.8505494505494506,1.0475297468749032
0.8703296703296702,1.051484823126933
0.8901098901098901,1.0547566261738515
0.9098901098901099,1.0573381220179288
0.9296703296703297,1.0592237713885
0.9494505494505494,1.0604095190831664
0.9692307692307692,1.0608927864166546
0.989010989010989,1.0606724666992873
1.0087912087912088,1.0597489236970645
1.0285714285714287,1.05812399305646
1.0483516483516484,1.055800986707613
1.0681318681318681,1.0527847002907276
1.087912087912088,1.049081423681262
1.1076923076923075,1.044698954719981
1.1274725274725275,1.0396466162837983
1.1472527472527472,1.0339352768625014
1.1670329670329669,1.0275773748337755
1.1868131868131868,1.0205869466542277
1.2065934065934065,1.012979659206064
1.2263736263736265,1.0047728465563899
1.2461538461538462,0.9959855513966449
1.2659340659340659,0.9866385714316176
1.2857142857142858,0.9767545109765761
1.3054945054945055,0.9663578379944763
1.3252747252747252,0.9554749467563766
1.3450549450549452,0.9441342262314756
1.3648351648351649,0.9323661341997461
1.3846153846153846,0.9202032769200953
1.4043956043956045,0.9076804939675884
1.4241758241758242,0.8948349475602373
1.443956043956044,0.8817062153115789
1.4637362637362636,0.8683363848500064
1.4835164835164834,0.8547701481184817
1.5032967032967033,0.8410548923857184
1.523076923076923,0.8272407840412134
1.542857142857143,0.8133808400934182
1.5626373626373626,0.7995309809342399
1.5824175824175823,0.7857500563784262
1.6021978021978023,0.7720998352636436
1.621978021978022,0.7586449470680525
1.6417582417582417,0.745452762179133
1.6615384615384616,0.7325931958021339
1.6813186813186813,0.7201384192742922
1.7010989010989013,0.7081624620782814
1.720879120879121,0.6967406885252022
1.7406593406593405,0.6859491353556693
1.7604395604395604,0.6758637008379978
1.7802197802197801,0.6665591826923363
1.7999999999999998,0.6581081715062537
1.8197802197802198,0.6505798180619609
1.8395604395604395,0.6440385065351295
1.8593406593406594,0.6385424796705962
1.879120879120879,0.6341424750874297
1.8989010989010988,0.6308804417514623
1.9186813186813187,0.6287884102789538
1.9384615384615385,0.6278875884134297
1.9582417582417584,0.6281877429409831
1.978021978021978,0.6296869119004989
1.9978021978021978,0.632371467953474
2.0175824175824175,0.6362165280445164
2.0373626373626372,0.6411866794070074
2.0571428571428574,0.6472369708120254
2.076923076923077,0.6543141031936537
2.096703296703297,0.6623577466627757
2.1164835164835165,0.6713019113689522
2.1362637362637362,0.6810763064948256
2.1560439560439564,0.691607632971102
2.175824175824176,0.7028207691544476
2.195604395604396,0.7146398227630437
2.215384615384615,0.726989035303532
2.2351648351648348,0.7397935360833034
2.254945054945055,0.7529799512409219
2.2747252747252746,0.7664768790197575
2.2945054945054943,0.780215246013213
2.314285714285714,0.7941285607328494
2.3340659340659338,0.8081530810511681
2.353846153846154,0.8222279112828971
2.3736263736263736,0.8362950432654165
2.3934065934065933,0.8502993540741218
2.413186813186813,0.8641885711784243
2.4329670329670328,0.8779132140552052
2.452747252747253,0.8914265196208274
2.4725274725274726,0.904684357368563
2.4923076923076923,0.917645138824784
2.512087912087912,0.9302697248637751
2.5318681318681318,0.9425213335345348
2.5516483516483515,0.9543654503340203
2.5714285714285716,0.9657697422881029
2.5912087912087913,0.9767039767516579
2.610989010989011,0.9871399454922115
2.6307692307692307,0.9970513943585595
2.6505494505494505,1.0064139586404215
2.6703296703296706,1.0152051040840913
2.6901098901098903,1.0234040734303185
2.70989010989011,1.0309918382751682
2.7296703296703297,1.0379510560148066
2.7494505494505495,1.044266031614574
2.769230769230769,1.0499226839373113
2.7890109890109893,1.0549085163710854
2.808791208791209,1.0592125915099377
2.8285714285714287,1.0628255096606751
2.8483516483516484,1.065739390972209
2.8681318681318677,1.0679478610105817
2.887912087912088,1.069446039631337
2.9076923076923076,1.0702305330310358
2.9274725274725273,1.0702994288907492
2.947252747252747,1.069652294555985
2.9670329670329667,1.0682901782298684
2.986813186813187,1.066215613188716
3.0065934065934066,1.0634326250621482
3.0263736263736263,1.059946742252645
3.046153846153846,1.0557650096024032
3.0659340659340657,1.050896005448298
3.085714285714286,1.0453498622379054
3.1054945054945056,1.0391382909112414
3.1252747252747253,1.0322746092829347
3.145054945054945,1.0247737746871433
3.1648351648351647,1.016652421172155
3.184615384615385,1.0079289015505408
3.2043956043956046,0.9986233346226202
3.2241758241758243,0.988757657892906
3.243956043956044,0.9783556860866437
3.2637362637362637,0.9674431757426675
3.2835164835164834,0.956047896102428
3.3032967032967036,0.9441997064257912
3.3230769230769233,0.9319306397319495
3.342857142857143,0.9192749927763836
3.3626373626373627,0.9062694218171533
3.3824175824175824,0.8929530433781635
3.4021978021978025,0.8793675387626844
3.4219780219780223,0.8655572604833183
3.441758241758242,0.8515693380287765
3.4615384615384617,0.837453779456838
3.481318681318681,0.823263564160953
3.501098901098901,0.8090547207853949
3.520879120879121,0.7948863826528417
3.5406593406593405,0.7808208112296827
3.5604395604395602,0.7669233761314309
3.58021978021978,0.7532624780518068
3.5999999999999996,0.7399093989342654
3.61978021978022,0.7269380619233056
3.6395604395604395,0.7144246824565244
3.659340659340659,0.7024472917044919
3.679120879120879,0.6910851149371795
3.6989010989010986,0.6804177908374491
3.718681318681319,0.6705244238067782
3.7384615384615385,0.6614824702745681
3.758241758241758,0.6533664719833332
3.7780219780219784,0.6462466637525522
3.7978021978021976,0.6401874992852454
3.8175824175824173,0.6352461544663504
3.8373626373626375,0.6314710810452774
3.8571428571428568,0.6289006920677449
3.876923076923077,0.6275622616216651
3.896703296703296,0.6274711138885795
3.916483516483517,0.6286301599709176
3.936263736263736,0.6310298169144595
3.956043956043956,0.634648314665611
3.9758241758241755,0.6394523672563769
3.9956043956043956,0.6453981583195181
4.015384615384615,0.6524325714360115
4.035164835164835,0.6604945848095652
4.054945054945055,0.6695167477501687
4.0747252747252745,0.6794266623753474
4.094505494505494,0.6901484057367784
4.114285714285715,0.7016038427522188
4.134065934065934,0.713713796467246
4.153846153846154,0.7263990573598527
4.173626373626373,0.739581226348851
4.193406593406594,0.753183396235823
4.213186813186813,0.7671306833927803
4.232967032967033,0.7813506258644648
4.252747252747253,0.795773466152756
4.2725274725274724,0.810332337330439
4.292307692307692,0.8249633703126714
4.312087912087913,0.839605738547548
4.331868131868132,0.854201654425565
4.351648351648352,0.8686963296142359
4.371428571428571,0.8830379094745902
4.391208791208792,0.897177389820647
4.410989010989011,0.9110685225989158
4.43076923076923,0.9246677156150573
4.450549450549451,0.9379339302175458
4.4703296703296695,0.9508285798466993
4.49010989010989,0.9633154315506399
4.50989010989011,0.9753605119284257
4.52967032967033,0.9869320184616415
4.549450549450549,0.9980002368124019
4.569230769230769,1.008537464377932
4.589010989010989,1.0185179401793452
4.608791208791209,1.0279177810109712
4.628571428571428,1.036714923671184
4.648351648351649,1.0448890730280318
4.6681318681318675,1.0524216556320605
4.687912087912088,1.0592957785697183
4.707692307692308,1.0654961932471754
4.7274725274725276,1.0710092638023063
4.747252747252747,1.0758229398594532
4.767032967032967,1.0799267333639826
4.786813186813187,1.0833116992605594
4.806593406593407,1.0859704198091515
4.826373626373626,1.0878969923641946
4.846153846153847,1.0890870204760557
4.8659340659340655,1.0895376082076298
4.885714285714286,1.0892473575940227
4.905494505494506,1.0882163692081666
4.9252747252747255,1.0864462458313635
4.945054945054945,1.083940099263423
4.964835164835165,1.0807025603438223
4.984615384615385,1.0767397922921236
5.004395604395604,1.0720595075132198
5.024175824175824,1.0666709880503122
5.043956043956045,1.0605851099063668
5.0637362637362635,1.0538143714916761
5.083516483516483,1.0463729264916084
5.103296703296703,1.0382766214830113
5.123076923076923,1.0295430386591478
5.142857142857143,1.0201915440494833
5.162637362637362,1.010243341640189
5.182417582417583,0.9997215338098862
5.2021978021978015,0.9886511884893522
5.221978021978022,0.977059413427586
5.241758241758242,0.964975437892687
5.2615384615384615,0.9524307020446632
5.281318681318681,0.9394589540775656
5.301098901098901,0.9260963550239603
5.320879120879121,0.9123815908290116
5.340659340659341,0.8983559909105224
5.36043956043956,0.884063651900281
5.380219780219781,0.8695515645791059
5.3999999999999995,0.8548697411406269
5.41978021978022,0.8400713388100715
5.43956043956044,0.8252127744704099
5.4593406593406595,0.810353823280297
5.479120879120879,0.795557692291484
5.498901098901099,0.7808910577983499
5.518681318681319,0.7664240526296897
5.538461538461538,0.7522301869328738
5.558241758241758,0.7383861833976423
5.578021978021979,0.7249717056199858
5.5978021978021975,0.7120689568425759
5.617582417582418,0.6997621261845475
5.637362637362637,0.6881366613609148
5.6571428571428575,0.677278351514148
5.676923076923077,0.6672722118023223
5.696703296703297,0.6582011732400157
5.716483516483517,0.6501445969460249
5.736263736263735,0.6431766507021524
5.756043956043956,0.6373646059890282
5.775824175824176,0.6327671329671157
5.795604395604395,0.6294326860641444
5.815384615384615,0.6273980805905525
5.835164835164835,0.6266873583706453
5.854945054945055,0.6273110263594762
5.874725274725275,0.6292657272155361
5.894505494505494,0.6325343675891023
5.914285714285715,0.6370866929920324
5.934065934065933,0.6428802628803201
5.953846153846154,0.6498617509729878
5.973626373626374,0.6579684773639162
5.993406593406593,0.6671300720925175
6.013186813186813,0.6772701738419906
6.032967032967033,0.6883080800106494
6.052747252747253,0.700160282363638
6.072527472527473,0.712741842546572
6.092307692307692,0.7259675811751803
6.112087912087913,0.7397530710859654
6.131868131868131,0.7540154386178781
6.151648351648352,0.7686739862294816
6.171428571428572,0.7836506556192997
6.191208791208791,0.7988703533998868
6.210989010989011,0.8142611619863244
6.230769230769231,0.8297544573921437
6.2505494505494505,0.8452849536772541
6.270329670329671,0.8607906913371126
6.29010989010989,0.8762129843036613
6.309890109890111,0.8914963376762125
6.329670329670329,0.9065883459548842
6.349450549450549,0.9214395794807717
6.36923076923077,0.9360034650213028
6.3890109890109885,0.9502361649694199
6.408791208791209,0.9640964584292802
6.428571428571428,0.9775456265054818
6.4483516483516485,0.9905473433637999
6.468131868131868,1.0030675740539778
6.487912087912088,1.0150744796484206
6.507692307692308,1.0265383299269017
6.527472527472527,1.0374314236033382
6.547252747252747,1.0477280159266442
6.567032967032967,1.0574042533778665
6.5868131868131865,1.0664381151170432
6.606593406593407,1.0748093607960034
6.626373626373626,1.0824994843386913
6.6461538461538465,1.0894916732935134
6.665934065934065,1.0957707733766906
6.685714285714286,1.101323257849375
6.705494505494506,1.1061372014005397
6.725274725274725,1.110202258240971
6.745054945054945,1.113509644150078
6.764835164835165,1.116052122254422
6.7846153846153845,1.1178239923559121
6.804395604395605,1.1188210836666006
6.824175824175824,1.1190407508466718
6.8439560439560445,1.1184818732821509
6.863736263736263,1.11714485757898
6.883516483516484,1.115031643290961
6.903296703296704,1.1121457119399518
6.923076923076923,1.108492099428993
6.942857142857143,1.1040774119915433
6.962637362637362,1.0989098458638635
6.9824175824175825,1.0929992109121835
7.002197802197802,1.0863569584921478
7.021978021978022,1.0789962138640472
7.041758241758242,1.0709318135342372
7.061538461538461,1.0621803479389162
7.081318681318681,1.0527602099310778
7.101098901098901,1.0426916495724265
7.1208791208791204,1.0319968357673999
7.140659340659341,1.0206999253027162
7.16043956043956,1.0088271398684687
7.1802197802197805,0.9964068516296298
7.199999999999999,0.9834696778816862
7.21978021978022,0.9700485852505096
7.23956043956044,0.9561790037702975
7.259340659340659,0.941898950977158
7.279120879120879,0.9272491658671537
7.298901098901099,0.9122732521584428
7.318681318681318,0.8970178297342507
7.338461538461539,0.8815326923860007
7.358241758241758,0.865870968978284
7.3780219780219785,0.8500892838676019
7.397802197802197,0.8342479107730043
7.417582417582418,0.8184109122687581
7.437362637362638,0.8026462546121036
7.457142857142857,0.7870258847246503
7.476923076923077,0.7716257528543115
7.496703296703297,0.7565257608725134
7.516483516483516,0.7418096125358776
7.536263736263736,0.7275645387373179
7.556043956043957,0.7138808683474102
7.575824175824176,0.7008514144619049
7.595604395604395,0.6885706476716743
7.615384615384615,0.677133633413713
7.635164835164835,0.6666347205545851
7.654945054945055,0.6571659838066355
7.674725274725275,0.6488154434389065
7.694505494505494,0.6416651110573427
7.7142857142857135,0.6357889377232575
7.734065934065935,0.6312507667266943
7.753846153846154,0.6281024132942493
7.7736263736263735,0.6263820025508482
7.793406593406592,0.6261126913223234
7.813186813186814,0.6273018772558938
7.832967032967034,0.6299409617796218
7.852747252747252,0.6340056863750401
7.872527472527472,0.6394570116126471
7.892307692307693,0.6462424632168996
7.912087912087912,0.6542978357357561
7.931868131868132,0.6635491261779385
7.951648351648351,0.6739145679544659
7.971428571428572,0.6853066473651341
7.991208791208791,0.6976340065144179
8.010989010989011,0.7108031630693714
8.03076923076923,0.7247200042702662
8.05054945054945,0.7392910367894573
8.07032967032967,0.7544243934874418
8.09010989010989,0.770030612157457
8.10989010989011,0.786023210224997
8.129670329670331,0.8023190838684531
8.149450549450549,0.8188387611777591
8.169230769230769,0.8355065377940045
8.189010989010988,0.8522505208673886
8.20879120879121,0.8690026038357508
8.22857142857143,0.8856983909658135
8.248351648351647,0.9022770871485261
8.268131868131867,0.9186813652932817
8.287912087912087,0.9348572209199068
8.307692307692308,0.9507538212295144
8.327472527472528,0.9663233540306202
8.347252747252746,0.9815208803677526
8.367032967032966,0.99630419349613
8.386813186813187,1.0106336859172518
8.406593406593407,1.0244722254867145
8.426373626373627,1.0377850410837883
8.446153846153845,1.0505396179541733
8.465934065934066,1.062705602571064
8.485714285714286,1.0742547166796914
8.505494505494505,1.0851606800753744
8.525274725274725,1.095399141599138
8.545054945054945,1.1049476178045057
8.564835164835165,1.113785438744849
8.584615384615384,1.1218937003446878
8.604395604395604,1.1292552228453068
8.624175824175826,1.1358545148503665
8.643956043956043,1.1416777425383153
8.663736263736263,1.1467127036523082
8.683516483516483,1.1509488059247994
8.703296703296704,1.1543770496404049
8.723076923076924,1.1569900140878548
8.742857142857142,1.1587818476984684
8.762637362637362,1.1597482617153474
8.782417582417583,1.1598865272832914
8.802197802197803,1.159195475896139
8.821978021978023,1.1576755031839465
8.84175824175824,1.1553285760695835
8.86153846153846,1.1521582433715378
8.881318681318682,1.1481696499784428
8.901098901098901,1.1433695547708835
8.920879120879121,1.1377663525180475
8.940659340659339,1.1313701000304717
8.96043956043956,1.124192546906792
8.98021978021978,1.1162471712705784
9.0,1.1075492209544526
9.01978021978022,1.0981157606511045
9.03956043956044,1.087965725614637
9.05934065934066,1.0771199825590607
9.079120879120879,1.0656013984619896
9.098901098901099,1.0534349180377058
9.11868131868132,1.040647650690155
9.138461538461538,1.0272689677878608
9.158241758241758,1.0133306111100233
9.178021978021977,0.9988668132858615
9.197802197802199,0.9839144309720905
9.217582417582419,0.9685130913667426
9.237362637362637,0.952705352415369
9.257142857142856,0.9365368766951946
9.276923076923078,0.9200566184215558
9.296703296703297,0.9033170222576692
9.316483516483517,0.8863742315602361
9.336263736263735,0.8692883022859642
9.356043956043957,0.85212341693578
9.375824175824176,0.8349480905376873
9.395604395604396,0.8178353576853473
9.415384615384616,0.8008629259991288
9.435164835164835,0.7841132770493356
9.454945054945055,0.7676736908526928
9.474725274725275,0.751636164735599
9.494505494505495,0.7360971920625274
9.514285714285714,0.7211573617336967
9.534065934065934,0.7069207364658818
9.553846153846154,0.6934939680271367
9.573626373626373,0.6809851124257144
9.593406593406593,0.6695021192690079
9.613186813186815,0.6591509885517451
9.632967032967032,0.6500336156313608
9.652747252747252,0.6422453802599222
9.672527472527472,0.6358725753576391
9.692307692307693,0.6309898104976035
9.712087912087913,0.6276575566554087
9.731868131868131,0.6259200148005406
9.75164835164835,0.6258034848212111
9.771428571428572,0.6273153800884189
9.791208791208792,0.6304439788990474
9.810989010989012,0.6351589347565396
9.83076923076923,0.641412494512654
9.850549450549451,0.649141309315125
9.87032967032967,0.6582686782500694
9.89010989010989,0.6687070439282811
9.90989010989011,0.6803605628974762
9.92967032967033,0.6931275969213884
9.94945054945055,0.7069030065179295
9.96923076923077,0.7215801679834384
9.989010989010989,0.7370526730621276
10.008791208791209,0.7532157022415019
10.028571428571428,0.7699670864083854
10.048351648351648,0.7872080871431537
10.068131868131868,0.8048439342871218
10.08791208791209,0.8227841621730403
10.107692307692307,0.8409427847425204
10.127472527472527,0.8592383461814277
10.147252747252747,0.8775938788692669
10.167032967032966,0.8959367952098093
10.186813186813188,0.914198734839575
10.206593406593406,0.9323153841167945
10.226373626373626,0.9502262808231157
10.246153846153845,0.9678746137016565
10.265934065934067,0.9852070237752246
10.285714285714286,1.0021734122719093
10.305494505494504,1.0187267583489563
10.325274725274724,1.0348229485679956
10.345054945054946,1.0504206191576948
10.364835164835165,1.065481011436729
10.384615384615385,1.079967840303353
10.404395604395603,1.0938471753816004
10.424175824175824,1.1070873342103726
10.443956043956044,1.1196587867418484
10.463736263736264,1.1315340703557863
10.483516483516484,1.1426877145803311
10.503296703296703,1.1530961747235657
10.523076923076923,1.1627377736545408
10.542857142857143,1.1715926510197539
10.562637362637362,1.17964271923671
10.582417582417584,1.1868716256660417
10.602197802197802,1.1932647204253986
