Time (s),Filtered Signal
0.0,-0.01888749801134979
0.03337000366703337,-0.2495417270055856
0.06674000733406674,-0.39168512814038314
0.1001100110011001,-0.36477297755868704
0.13348001466813347,-0.1101516788300305
0.16685001833516683,0.3868807665340905
0.2002200220022002,1.0783113260141663
0.2335900256692336,1.852142453327051
0.26696002933626695,2.556318853616017
0.3003300330033003,3.042510694398001
0.33370003667033366,3.212916068817882
0.36707004033736707,3.0502922847818934
0.4004400440044004,2.618572213643628
0.4338100476714338,2.0344874478452852
0.4671800513384672,1.4228833799152683
0.5005500550055005,0.8744729241595107
0.5339200586725339,0.4226672774392899
0.5672900623395672,0.04728377414958557
0.6006600660066006,-0.29887563358818403
0.634030069673634,-0.6545277041054963
0.6674000733406673,-1.0231017461032046
0.7007700770077008,-1.3674813036470628
0.7341400806747341,-1.6278449757736702
0.7675100843417675,-1.7519857519403301
0.8008800880088008,-1.7212002694711035
0.8342500916758342,-1.5581156774738871
0.8676200953428675,-1.3136765868717424
0.9009900990099009,-1.0423660180837693
0.9343601026769344,-0.7805651067579473
0.9677301063439677,-0.5396832091645714
1.001100110011001,-0.315843318896333
1.0344701136780343,-0.1077572977961409
1.0678401173450678,0.06998923774046638
1.1012101210121013,0.18742585021435737
1.1345801246791345,0.21361754160287558
1.167950128346168,0.13636405327631948
1.2013201320132012,-0.02483294439275905
1.2346901356802347,-0.2206890035755815
1.268060139347268,-0.38861284879314933
1.3014301430143014,-0.4754992234055152
1.3348001466813346,-0.4557970341003859
1.368170150348368,-0.33723287992794493
1.4015401540154016,-0.15348508844966194
1.4349101576824348,0.05089109043115343
1.4682801613494683,0.23587781576137398
1.5016501650165015,0.37609168031111984
1.535020168683535,0.463361172633138
1.5683901723505682,0.5026258534353826
1.6017601760176017,0.5038847828364135
1.6351301796846351,0.47389523025857194
1.6685001833516684,0.4115034783925334
1.7018701870187019,0.30942642330688325
1.735240190685735,0.162604127049735
1.7686101943527686,-0.020466264907393852
1.8019801980198018,-0.20986330555116797
1.8353502016868353,-0.3561482625726852
1.8687202053538687,-0.4043670099705414
1.902090209020902,-0.31612558828033793
1.9354602126879354,-0.09037145138471246
1.9688302163549687,0.2275658813481953
2.002200220022002,0.5548711646519422
2.0355702236890356,0.7966092959016955
2.0689402273560686,0.8787204170081826
2.102310231023102,0.7760612841908996
2.1356802346901356,0.5242124690879822
2.169050238357169,0.2094175616644119
2.2024202420242025,-0.06106267693573608
2.2357902456912355,-0.19832226047926055
2.269160249358269,-0.16640297063615755
2.3025302530253025,0.0020577160124299262
2.335900256692336,0.2172035768649493
2.369270260359369,0.3679714492873115
2.4026402640264024,0.3692405806403477
2.436010267693436,0.2000062527629537
2.4693802713604693,-0.08549197127579562
2.502750275027503,-0.3805619110725897
2.536120278694536,-0.573757666559502
2.5694902823615693,-0.5997155093246789
2.6028602860286028,-0.4688274100650184
2.636230289695636,-0.2612410455761236
2.6696002933626692,-0.08815400827544455
2.7029702970297027,-0.0394423314360716
2.736340300696736,-0.1428586972814613
2.7697103043637696,-0.3533893140432476
2.803080308030803,-0.5759658107143406
2.836450311697836,-0.7090254201724033
2.8698203153648696,-0.6881233997213658
2.903190319031903,-0.5109014321183346
2.9365603226989365,-0.2346911632317849
2.96993032636597,0.04975941228302208
3.003300330033003,0.2558978652864096
3.0366703337000365,0.3347652724007847
3.07004033736707,0.2916624099701599
3.1034103410341034,0.18069083467444885
3.1367803447011364,0.08019343317357074
3.17015034836817,0.059036788939073256
3.2035203520352034,0.14691480723786124
3.236890355702237,0.32036404521256967
3.2702603593692703,0.5104034718708469
3.3036303630363033,0.6295385152044378
3.3370003667033368,0.6081576927906229
3.3703703703703702,0.4260350434062175
3.4037403740374037,0.1256833139455038
3.4371103777044367,-0.1992483898885431
3.47048038137147,-0.4375804634703536
3.5038503850385037,-0.503895836347947
3.537220388705537,-0.37418550755419344
3.5705903923725706,-0.0984164072945571
3.6039603960396036,0.21666004699589775
3.637330399706637,0.44867037597850973
3.6707004033736705,0.5080564613059632
3.704070407040704,0.37304799915349157
3.7374404107077375,0.0958690270951758
3.7708104143747705,-0.22213402565799206
3.804180418041804,-0.47433662654973824
3.8375504217088374,-0.591052932905166
3.870920425375871,-0.5614209316984118
3.904290429042904,-0.4273583603888947
3.9376604327099374,-0.25606550034500014
3.971030436376971,-0.1069887320108958
4.004400440044004,-0.009469144986352783
4.037770443711038,0.040552472606750586
4.071140447378071,0.06714732257601133
4.104510451045105,0.0943425333788065
4.137880454712137,0.1307092947613887
4.171250458379171,0.165579970450396
4.204620462046204,0.17726012853403492
4.237990465713238,0.14812534331203073
4.271360469380271,0.07895162506015414
4.304730473047305,-0.004676428414794963
4.338100476714338,-0.05808750079749687
4.3714704803813715,-0.03481151898285398
4.404840484048405,0.09064575426615144
4.438210487715438,0.3047199220534207
4.471580491382471,0.5515262356591343
4.5049504950495045,0.7489490186946529
4.538320498716538,0.8192441954383707
4.571690502383571,0.7210173957632017
4.605060506050605,0.4674215703076588
4.638430509717638,0.12163508325576601
4.671800513384672,-0.228001987955634
4.705170517051705,-0.5009381805669778
4.738540520718738,-0.6504062424633115
4.771910524385771,-0.6727130596839682
4.805280528052805,-0.5993884255770913
4.838650531719838,-0.4792500810812029
4.872020535386872,-0.3595918558753645
4.905390539053905,-0.2730673017338028
4.938760542720939,-0.23252139469988317
4.972130546387972,-0.232753497899572
5.005500550055006,-0.256737923244376
5.038870553722038,-0.2835157795959091
5.072240557389072,-0.29513263286487534
5.105610561056105,-0.28063065309744717
5.138980564723139,-0.236429749212235
5.172350568390172,-0.16415019324518934
5.2057205720572055,-0.0681072329606645
5.239090575724239,0.045553371376537595
5.272460579391272,0.16781141325235913
5.305830583058306,0.2855367121723185
5.3392005867253385,0.3824698437050952
5.372570590392372,0.4434927483994765
5.405940594059405,0.46072678934210914
5.439310597726439,0.43808403999524653
5.472680601393472,0.39104858786447455
5.506050605060506,0.3407011415615705
5.539420608727539,0.30404091299901187
5.572790612394573,0.2848677330078068
5.606160616061606,0.2697927697717275
5.63953061972864,0.2321875377600362
5.672900623395672,0.1436736125235604
5.706270627062706,-0.010766874595187279
5.739640630729739,-0.22039895690624048
5.773010634396773,-0.44539881366771333
5.806380638063806,-0.6259381676507596
5.83975064173084,-0.7019173892926025
5.873120645397873,-0.6363922363875198
5.9064906490649065,-0.4330150717497094
5.93986065273194,-0.13918457850767837
5.9732306563989725,0.16804242888926496
6.006600660066006,0.40884870324445544
6.0399706637330395,0.529725626721931
6.073340667400073,0.522160231162743
6.106710671067106,0.4222932903458368
6.14008067473414,0.2914029987974545
6.173450678401173,0.18630885377321466
6.206820682068207,0.13401724946637156
6.24019068573524,0.12306739906516831
6.273560689402273,0.11558537040798934
6.306930693069306,0.07313624648734422
6.34030069673634,-0.01813159868521324
6.373670700403373,-0.13740832105425083
6.407040704070407,-0.24025275641976124
6.44041070773744,-0.28458064480425665
6.473780711404474,-0.2563981264373672
6.507150715071507,-0.17981609574585486
6.540520718738541,-0.10501077567750107
6.573890722405573,-0.08094595656873534
6.607260726072607,-0.1287285470003967
6.64063072973964,-0.2308406599735317
6.6740007334066735,-0.341773338058432
6.707370737073707,-0.4130022175933957
6.7407407407407405,-0.4174403248942761
6.774110744407774,-0.3597743954171699
6.807480748074807,-0.2681070644779256
6.840850751741841,-0.17339198882421594
6.8742207554088735,-0.08981982132594789
6.907590759075907,-0.008064011521616826
6.94096076274294,0.0947667122597529
6.974330766409974,0.2346811452048107
7.007700770077007,0.40242110378440193
7.041070773744041,0.5588441382341287
7.074440777411074,0.64828001669878
7.107810781078108,0.6241134413697478
7.141180784745141,0.47388470079413403
7.174550788412174,0.23093194227601646
7.207920792079207,-0.03397194133900361
7.241290795746241,-0.23792625570801723
7.274660799413274,-0.3172587035406788
7.308030803080308,-0.25165548225687756
7.341400806747341,-0.07149183751072917
7.3747708104143745,0.1537583705780101
7.408140814081408,0.3406290309904503
7.4415108177484415,0.4203470409834551
7.474880821415475,0.36091157804810636
7.5082508250825075,0.17582184724161368
7.541620828749541,-0.08203060572955191
7.5749908324165744,-0.33790217757034263
7.608360836083608,-0.5178614087303559
7.641730839750641,-0.5698151994528048
7.675100843417675,-0.4775669373273722
7.708470847084708,-0.2648904286398021
7.741840850751742,0.010986193442033372
7.775210854418775,0.27487639401142105
7.808580858085808,0.45446355514510295
7.841950861752841,0.5010739314887452
7.875320865419875,0.40415300978817587
7.908690869086908,0.19418576782613373
7.942060872753942,-0.0677914303103513
7.975430876420975,-0.3108166125526084
8.008800880088009,-0.47692537763702414
8.042170883755041,-0.5372508044462765
8.075540887422076,-0.4954408638401496
8.108910891089108,-0.37883793124157766
8.142280894756142,-0.22363039448594987
8.175650898423175,-0.06207308480238333
8.20902090209021,0.0829676584863047
8.242390905757242,0.19632764986099416
8.275760909424275,0.2663607494370505
8.309130913091309,0.28368613418074334
8.342500916758341,0.24517217911481112
8.375870920425376,0.1606528476125042
8.409240924092408,0.056633852555997434
8.442610927759443,-0.028120427510024224
8.475980931426475,-0.05579477261422244
8.50935093509351,-0.0064528054846414076
8.542720938760542,0.10992871325019318
8.576090942427575,0.25376399476030587
8.60946094609461,0.3701357087138617
8.642830949761642,0.41116161484948793
8.676200953428676,0.35566296555313226
8.709570957095709,0.21626498899088614
8.742940960762743,0.03069335030992879
8.776310964429776,-0.1573237484097547
8.80968096809681,-0.3166704385197326
8.843050971763843,-0.4371650790132196
8.876420975430875,-0.5246157610850231
8.90979097909791,-0.5877784047974516
8.943160982764942,-0.6266445096174865
8.976530986431976,-0.6294330204056964
9.009900990099009,-0.5791721904206164
9.043270993766043,-0.46450482277060273
9.076640997433076,-0.28741506837850644
9.11001100110011,-0.06368886002936931
9.143381004767143,0.18272415211571483
9.176751008434175,0.4266903941428817
9.21012101210121,0.6458614333872952
9.243491015768242,0.820730008180897
9.276861019435277,0.9333391637848949
9.31023102310231,0.9680840817430104
9.343601026769344,0.9159615620276493
9.376971030436376,0.7803770601611366
9.41034103410341,0.5805924000948596
9.443711037770443,0.3494271218613198
9.477081041437476,0.12460919134118914
9.51045104510451,-0.06331401485181759
9.543821048771543,-0.20121832025604908
9.577191052438577,-0.2966549350252998
9.61056105610561,-0.37186111170180725
9.643931059772644,-0.45074507028634425
9.677301063439677,-0.5448963648033011
9.710671067106711,-0.6457048936839231
9.744041070773743,-0.727023196644879
9.777411074440776,-0.7575629570226335
9.81078107810781,-0.7169987833544739
9.844151081774843,-0.6073832688537312
9.877521085441877,-0.4534672840421099
9.91089108910891,-0.291160435865385
9.944261092775944,-0.14990204831169154
9.977631096442977,-0.03857993386089919
10.011001100110011,0.056677361369476605
10.044371103777044,0.1608230283315953
10.077741107444076,0.29040365919941963
10.11111111111111,0.4374547199076408
10.144481114778143,0.5667670899881468
10.177851118445178,0.6293462336268935
10.21122112211221,0.5858294138342788
10.244591125779245,0.42790362413820815
10.277961129446277,0.18653582583265363
10.311331133113312,-0.07751268518180413
10.344701136780344,-0.29655118891972293
10.378071140447377,-0.42136058094728374
10.411441144114411,-0.4372787448125079
10.444811147781444,-0.3639669548687385
10.478181151448478,-0.24009418152302978
10.51155115511551,-0.10169981351320198
10.544921158782545,0.03400999912293645
10.578291162449577,0.17084819978955865
10.611661166116612,0.3210919998083771
10.645031169783644,0.485981381394819
10.678401173450677,0.6415868741179055
10.711771177117711,0.7401104433606698
10.745141180784744,0.728452110115304
10.778511184451778,0.5758686886957944
10.81188118811881,0.2962797823378207
10.845251191785845,-0.047923803004618626
10.878621195452878,-0.3649604192813933
10.911991199119912,-0.5681668160786832
10.945361202786945,-0.6099919198794361
10.978731206453979,-0.49932929795108033
11.012101210121012,-0.29442319661706834
11.045471213788044,-0.07587535461171949
11.078841217455079,0.08636790270150171
11.112211221122111,0.1566579758476566
11.145581224789145,0.13902078829183992
11.178951228456178,0.06551676978884476
11.212321232123212,-0.023353563688403446
11.245691235790245,-0.09556618704168493
11.27906123945728,-0.13554424810347535
11.312431243124312,-0.1433640284216739
11.345801246791344,-0.1294945173872767
11.379171250458379,-0.10925589775413286
11.412541254125411,-0.09838988365803292
11.445911257792446,-0.108865305536344
11.479281261459478,-0.14428433976445285
11.512651265126513,-0.1963064642291535
11.546021268793545,-0.24495884999908996
11.57939127246058,-0.2647399408579137
11.612761276127612,-0.2353507204383361
11.646131279794645,-0.1527493075584706
11.67950128346168,-0.03515635655785294
11.712871287128712,0.07959535685466189
11.746241290795746,0.14532945030490804
11.779611294462779,0.12377280223020995
11.812981298129813,0.00024181101877055836
11.846351301796846,-0.20648143186037915
11.87972130546388,-0.44355500649029606
11.913091309130913,-0.6339911813881651
11.946461312797945,-0.695993360913507
11.97983131646498,-0.5680061005529541
12.013201320132012,-0.23287781987416373
12.046571323799046,0.2674239908326493
12.079941327466079,0.8341895832307213
12.113311331133113,1.3342014235742985
12.146681334800146,1.6369729702287878
12.18005133846718,1.6551885230676362
12.213421342134213,1.3739748305165573
12.246791345801245,0.8581163078586423
12.28016134946828,0.2343666062401679
12.313531353135312,-0.34508138615564693
12.346901356802347,-0.7458223617066453
12.38027136046938,-0.8876531376172049
12.413641364136414,-0.7637400947306505
12.447011367803446,-0.4379714743702426
12.48038137147048,-0.02257568169452813
12.513751375137513,0.3562995923675984
12.547121378804546,0.5942179232361671
12.58049138247158,0.634685690626508
12.613861386138613,0.4789270610137557
12.647231389805647,0.17789033271011293
12.68060139347268,-0.1888892677083772
12.713971397139714,-0.5389860121935636
12.747341400806746,-0.8082599997930457
12.78071140447378,-0.9615351951430086
12.814081408140813,-0.9920489996059093
12.847451411807846,-0.9137813279852203
12.88082141547488,-0.7527510614994516
12.914191419141913,-0.541589113729218
12.947561422808947,-0.31752113416246736
12.98093142647598,-0.12025788716345079
13.014301430143014,0.014120764090623964
13.047671433810047,0.06383887827708877
13.081041437477081,0.03225344347572737
13.114411441144114,-0.04842243166201576
13.147781444811146,-0.12583553499722405
13.18115144847818,-0.1476248802280561
13.214521452145213,-0.08472221639461085
13.247891455812248,0.053868342732323694
13.28126145947928,0.2234494949096029
13.314631463146315,0.3634252521006816
13.348001466813347,0.42556017681282016
13.381371470480381,0.3969171214468382
13.414741474147414,0.306048904504569
13.448111477814447,0.20941445439228346
13.481481481481481,0.16493379582161266
13.514851485148514,0.2057729877313492
13.548221488815548,0.32667844603194446
13.58159149248258,0.48821492444754316
13.614961496149615,0.6352529750518973
13.648331499816647,0.7198970964841782
13.681701503483682,0.7184520670827167
13.715071507150714,0.6363183837407119
13.748441510817747,0.5009053624320788
13.781811514484781,0.34757205544465974
13.815181518151814,0.20544326198693563
13.848551521818848,0.08864482478618377
13.88192152548588,-0.004730468272615102
13.915291529152915,-0.08710814783626476
13.948661532819948,-0.1729298447224063
13.982031536486982,-0.27133222141333635
14.015401540154015,-0.3830297405227872
14.048771543821047,-0.5020091381876417
14.082141547488082,-0.6199019126797113
14.115511551155114,-0.7292520384142593
14.148881554822148,-0.822672573679009
14.182251558489181,-0.8881733557968733
14.215621562156215,-0.9048662442522295
14.248991565823248,-0.8448094845499812
14.282361569490282,-0.6839814210704023
14.315731573157315,-0.4192365925892591
14.349101576824348,-0.08233600444214048
14.382471580491382,0.259046518520794
14.415841584158414,0.5183351938508771
14.449211587825449,0.6208425954112751
14.482581591492481,0.5357167163908924
14.515951595159516,0.29379737769063047
14.549321598826548,-0.01871771793296212
14.582691602493583,-0.2900905283959855
14.616061606160615,-0.42443804231250604
14.649431609827648,-0.37696493098950384
14.682801613494682,-0.1679970607700337
14.716171617161715,0.12924530187294603
14.749541620828749,0.4200999607219333
14.782911624495782,0.6240880412402733
14.816281628162816,0.699514748988658
14.849651631829849,0.6489977136624318
14.883021635496883,0.5079320018115181
14.916391639163916,0.3252957862465087
14.94976164283095,0.14731629199640917
14.983131646497982,0.009636250127511268
15.016501650165015,-0.06340849950817583
15.04987165383205,-0.05809620017271856
15.083241657499082,0.026172925102696205
15.116611661166116,0.1716854032059235
15.149981664833149,0.33992262006014523
15.183351668500183,0.47763082996867845
15.216721672167216,0.5325746795399504
15.25009167583425,0.47326111268429005
15.283461679501283,0.3028518313426142
15.316831683168315,0.059304047947768466
15.35020168683535,-0.19930671315637452
15.383571690502382,-0.4174650745310079
15.416941694169417,-0.5619623721608994
15.45031169783645,-0.6296770541838019
15.483681701503484,-0.6409229372540156
15.517051705170516,-0.6233074953584572
15.55042170883755,-0.5953611313482151
15.583791712504583,-0.5584535144399062
15.617161716171616,-0.5004509323340276
15.65053171983865,-0.40804766242360113
15.683901723505683,-0.28015384744645033
15.717271727172717,-0.13438969808149345
15.75064173083975,-0.002584165835115358
15.784011734506784,0.08295862732745292
15.817381738173816,0.10578264249756034
15.85075174184085,0.07593239134445177
15.884121745507883,0.028938435099966228
15.917491749174916,0.012249578718453752
15.95086175284195,0.06406576632744923
15.984231756508983,0.19365363244805936
16.017601760176017,0.37267049307848205
16.05097176384305,0.543091704816273
16.084341767510082,0.6401812256821321
16.117711771177117,0.6214539006142452
16.15108177484415,0.48838546461710486
16.184451778511182,0.2894371898204362
16.217821782178216,0.10085872551623458
16.25119178584525,-0.007510298281762751
16.284561789512285,-0.0059637835716046805
16.317931793179316,0.07837502322476023
16.35130179684635,0.17120567247912918
16.384671800513384,0.18414525952965544
16.41804180418042,0.05712444293793027
16.45141180784745,-0.20890173235514278
16.484781811514484,-0.544198560629403
16.51815181518152,-0.8322417332269152
16.55152181884855,-0.9536293222672957
16.584891822515583,-0.8346761173443689
16.618261826182618,-0.4810724957574129
16.651631829849652,0.017465896443630346
16.685001833516683,0.5144732965862974
16.718371837183717,0.8565183357890175
16.75174184085075,0.9373150067731048
16.785111844517782,0.7360367191571519
16.818481848184817,0.32532545551472697
16.85185185185185,-0.15432282478293086
16.885221855518886,-0.5444264823202473
16.918591859185916,-0.7239372627620271
16.95196186285295,-0.6493748044081568
16.985331866519985,-0.365023940359682
17.01870187018702,0.01935337872920736
17.05207187385405,0.3728947991602354
17.085441877521085,0.5914566444440472
17.11881188118812,0.6301076293180513
17.15218188485515,0.5092929515795
17.185551888522184,0.2955490939299714
17.21892189218922,0.06815289034684513
17.252291895856253,-0.1124286207703416
17.285661899523284,-0.22152307587957573
17.319031903190318,-0.26840046466920314
