Time (s),Filtered Signal
0.0,-0.0058943116908920295
0.033370165745856356,-0.036331239702921556
0.06674033149171271,-0.025525852710750394
0.10011049723756907,0.053820697248898805
0.13348066298342542,0.20712293686242145
0.16685082872928178,0.41737152490698404
0.20022099447513814,0.6522772414169362
0.2335911602209945,0.8756626801108047
0.26696132596685085,1.0580605894656123
0.30033149171270723,1.1824935690614986
0.33370165745856356,1.24439810475274
0.3670718232044199,1.2476440139210827
0.4004419889502763,1.1997956722540843
0.43381215469613266,1.10886433723542
0.467182320441989,0.9819830149039556
0.5005524861878453,0.8251821016121598
0.5339226519337017,0.643412541565827
0.5672928176795581,0.4407323287061062
0.6006629834254145,0.2212184836036624
0.6340331491712707,-0.008984855629061903
0.6674033149171271,-0.23903645913644442
0.7007734806629835,-0.45189139216639107
0.7341436464088398,-0.6260134952215205
0.7675138121546962,-0.7413061874574042
0.8008839779005525,-0.7877847281003919
0.8342541436464089,-0.7728967552922739
0.8676243093922653,-0.7225291531767923
0.9009944751381216,-0.6729071194765981
0.934364640883978,-0.6552760113113408
0.9677348066298344,-0.6800210293771219
1.0011049723756906,-0.7287092817551498
1.0344751381215471,-0.7598005455097987
1.0678453038674034,-0.727400367311876
1.1012154696132597,-0.6055087719056166
1.1345856353591162,-0.40633082868035
1.1679558011049724,-0.1826086791341486
1.201325966850829,-0.010441788436247558
1.2346961325966852,0.04190791571462598
1.2680662983425415,-0.05376564091898315
1.301436464088398,-0.2674626842288832
1.3348066298342542,-0.5169273524322981
1.3681767955801105,-0.6971406836851446
1.401546961325967,-0.7214776914975385
1.4349171270718233,-0.5563998298804813
1.4682872928176796,-0.2340199165421961
1.501657458563536,0.16279858637298114
1.5350276243093923,0.5351536828656557
1.5683977900552488,0.8060585576628743
1.601767955801105,0.9447323991625561
1.6351381215469614,0.9683210014239906
1.6685082872928179,0.923741174291226
1.7018784530386741,0.8612106458454495
1.7352486187845306,0.8128980793907313
1.768618784530387,0.7850504046920298
1.8019889502762432,0.7637474864954488
1.8353591160220997,0.7279725671924696
1.868729281767956,0.6619467166755714
1.9020994475138122,0.5614109667305986
1.9354696132596687,0.4331130745574839
1.968839779005525,0.2901966965926626
2.0022099447513813,0.14699846707940928
2.0355801104972375,0.015412972047586
2.0689502762430942,-0.09687953368307772
2.1023204419889505,-0.18699166304849724
2.135690607734807,-0.2566402577091938
2.169060773480663,-0.3109165026786031
2.2024309392265193,-0.35559857129372024
2.235801104972376,-0.3934389205923229
2.2691712707182323,-0.42117370900096834
2.3025414364640886,-0.42962384977035817
2.335911602209945,-0.40823213005782116
2.369281767955801,-0.3528151858985065
2.402651933701658,-0.2725860131713962
2.436022099447514,-0.19155575706818878
2.4693922651933704,-0.14144908911466597
2.5027624309392267,-0.14772998528350703
2.536132596685083,-0.2149872999644563
2.5695027624309392,-0.3199435997531724
2.602872928176796,-0.41795700203580466
2.636243093922652,-0.46258503352552927
2.6696132596685085,-0.4303863979390002
2.7029834254143648,-0.3385518278358154
2.736353591160221,-0.24422062883869503
2.7697237569060777,-0.2218774105289189
2.803093922651934,-0.3261545196948615
2.8364640883977903,-0.5564545036025377
2.8698342541436466,-0.8418760767223932
2.903204419889503,-1.05770508267796
2.936574585635359,-1.0705980491762421
2.969944751381216,-0.7950030645053001
3.003314917127072,-0.23591800864550758
3.0366850828729284,0.5025629626991945
3.0700552486187846,1.2485682501161184
3.103425414364641,1.8209645931710585
3.1367955801104976,2.090095808647754
3.170165745856354,2.015894049730998
3.20353591160221,1.6505544523216373
3.2369060773480665,1.1098109706344887
3.2702762430939227,0.529314431472032
3.3036464088397794,0.025064627277426206
3.3370165745856357,-0.3298931286398758
3.370386740331492,-0.5105104360039762
3.4037569060773483,-0.5319841352357007
3.4371270718232045,-0.4365269249465848
3.4704972375690613,-0.27955020048328677
3.5038674033149175,-0.11689860160238966
3.537237569060774,0.0066256899401472055
3.57060773480663,0.06642455578144116
3.6039779005524863,0.06253581953224754
3.6373480662983426,0.01686694879083358
3.6707182320441993,-0.03712137899671402
3.7040883977900556,-0.06919196130433987
3.737458563535912,-0.0657015118250091
3.770828729281768,-0.035488564886803686
3.8041988950276244,-0.005161656443667011
3.837569060773481,-0.005616408822879128
3.8709392265193374,-0.05608792643666383
3.9043093922651937,-0.15358017918260036
3.93767955801105,-0.2730148786589549
3.9710497237569062,-0.37801985606994565
4.0044198895027625,-0.4368475899331247
4.037790055248619,-0.43554061147286516
4.071160220994475,-0.38238102177722916
4.104530386740332,-0.30248286907336847
4.1379005524861885,-0.22613558660548536
4.171270718232044,-0.17670135397165534
4.204640883977901,-0.16295168251980077
4.238011049723757,-0.17793335333233978
4.271381215469614,-0.20357703646757186
4.30475138121547,-0.2184980802953582
4.338121546961326,-0.20601967979333674
4.371491712707183,-0.15997471814797876
4.404861878453039,-0.08678705102262967
4.438232044198895,-0.003348845465843914
4.471602209944752,0.06880715763091304
4.504972375690608,0.11156372321167123
4.538342541436465,0.11810095615353326
4.5717127071823205,0.09763997357954769
4.605082872928177,0.07442340366282758
4.638453038674034,0.0799433431969925
4.67182320441989,0.14014590682472935
4.7051933701657465,0.2621331137270598
4.738563535911602,0.42628306209321964
4.771933701657459,0.5885522642203973
4.805303867403316,0.693920039116514
4.8386740331491715,0.6968247156933074
4.872044198895028,0.5804176493819767
4.905414364640884,0.3658631341388113
4.938784530386741,0.10664518584618701
4.972154696132597,-0.1304735782643326
5.005524861878453,-0.2898174035897045
5.03889502762431,-0.34583085069287195
5.072265193370166,-0.30879192021095886
5.105635359116023,-0.2157874618593598
5.1390055248618784,-0.1124091039533812
5.172375690607735,-0.034175857223817545
5.205745856353592,0.004589955748936614
5.239116022099448,0.011441599188245133
5.272486187845304,0.00812776301887628
5.30585635359116,0.019357594756710894
5.339226519337017,0.06250346625346552
5.372596685082874,0.1407592488535289
5.4059668508287295,0.240593674502916
5.439337016574586,0.3338648594356273
5.472707182320442,0.38499655803773114
5.506077348066299,0.3627496906296734
5.5394475138121555,0.2537856125651571
5.572817679558011,0.07258810045250133
5.606187845303868,-0.13829485226196658
5.639558011049724,-0.32067243563858305
5.672928176795581,-0.42275435500614483
5.706298342541437,-0.42188289857264144
5.739668508287293,-0.3369899430731375
5.77303867403315,-0.22352463586392238
5.806408839779006,-0.15162506148031357
5.839779005524862,-0.17655235383355203
5.873149171270718,-0.3144441138589579
5.906519337016575,-0.5341218180353683
5.939889502762432,-0.7683038400678837
5.9732596685082875,-0.9389775098830953
6.006629834254144,-0.9859979440355306
6.04,-0.8874969469261145
6.073370165745857,-0.665009133427963
6.1067403314917135,-0.3728836791823405
6.140110497237569,-0.07746695574579081
6.173480662983426,0.16549040696043354
6.206850828729282,0.32726880694930083
6.240220994475139,0.4116106863194583
6.273591160220995,0.44842025937455593
6.306961325966851,0.4788090267660478
6.340331491712708,0.5371622971696535
6.373701657458564,0.6367351598053702
6.40707182320442,0.7640511607581418
6.440441988950277,0.8842324662690284
6.473812154696133,0.9552270676973079
6.50718232044199,0.9452639025645959
6.5405524861878455,0.8463860185575728
6.573922651933702,0.6784502099873149
6.607292817679559,0.4820358978070842
6.640662983425415,0.3034743386515782
6.674033149171271,0.17843736257453305
6.707403314917127,0.12071106864286023
6.740773480662984,0.11999791827023626
6.774143646408841,0.1484066951430389
6.8075138121546965,0.1718437077460494
6.840883977900553,0.1613347681146883
6.874254143646409,0.10052460779375273
6.907624309392266,-0.011940102206994119
6.9409944751381225,-0.1643188667122164
6.974364640883978,-0.3363145920505133
7.007734806629835,-0.504816606613032
7.041104972375691,-0.6498012147790795
7.074475138121548,-0.7591782406502664
7.107845303867403,-0.8309634596549411
7.14121546961326,-0.8714733751390012
7.174585635359117,-0.889836847243106
7.207955801104973,-0.8912952191247661
7.241325966850829,-0.8729028037903485
7.274696132596685,-0.8241838510845526
7.308066298342542,-0.7325060288554638
7.341436464088399,-0.5902550159846434
7.3748066298342545,-0.4001337334849875
7.408176795580111,-0.17637165028859558
7.441546961325967,0.05797542685014928
7.474917127071824,0.275836653741461
7.5082872928176805,0.45120873423574964
7.541657458563536,0.5636888432456745
7.575027624309393,0.6025207248650605
7.608397790055249,0.5700970222381381
7.641767955801106,0.48383587474665757
7.675138121546962,0.3744258744312412
7.708508287292818,0.2788373354928337
7.741878453038675,0.22872202629820795
7.775248618784531,0.23799144678662984
7.808618784530387,0.2954812380804273
7.841988950276244,0.36776277997398854
7.8753591160221,0.41295531075460334
7.908729281767957,0.40056746279377503
7.9420994475138125,0.3281020943772249
7.975469613259669,0.22520868542422315
8.008839779005525,0.14132102343488598
8.042209944751383,0.12093714731865521
8.075580110497238,0.17790595623010066
8.108950276243094,0.28217868841697347
8.14232044198895,0.3676551593280823
8.175690607734808,0.35980148209973073
8.209060773480664,0.2114324033585619
8.24243093922652,-0.07016144659584732
8.275801104972377,-0.41862145795807054
8.309171270718233,-0.7302933936966157
8.342541436464089,-0.9038109850420244
8.375911602209946,-0.880334487969895
8.409281767955802,-0.6667599297330882
8.442651933701658,-0.33201658191850425
8.476022099447514,0.021208465767894733
8.509392265193371,0.2963387687368244
8.542762430939227,0.4372487270594532
8.576132596685083,0.44367706961241404
8.60950276243094,0.36335021884062085
8.642872928176796,0.2661501413259656
8.676243093922652,0.21194809359233102
8.709613259668508,0.224885487525178
8.742983425414366,0.28356984499937304
8.776353591160222,0.33066097164721925
8.809723756906077,0.29845003333307296
8.843093922651935,0.14092174335292382
8.87646408839779,-0.14067749793253592
8.909834254143647,-0.4905939641857081
8.943204419889504,-0.8148947507148424
8.97657458563536,-1.0164090281263343
9.009944751381216,-1.0339469591412156
9.043314917127072,-0.8680488494582604
9.07668508287293,-0.5807380778393539
9.110055248618785,-0.2687291209224686
9.143425414364641,-0.02239787725277949
9.176795580110499,0.1102237707912804
9.210165745856354,0.13792136642667674
9.24353591160221,0.11376371649389554
9.276906077348068,0.10349034310085022
9.310276243093924,0.15148918371984565
9.34364640883978,0.2608488015154147
9.377016574585635,0.395578700321338
9.410386740331493,0.5014865702281089
9.443756906077349,0.5336159294507273
9.477127071823205,0.476583779489544
9.510497237569062,0.3494767142894688
9.543867403314918,0.19546153521229664
9.577237569060774,0.0631526198542195
9.610607734806631,-0.011057480937777033
9.643977900552487,-0.013074251772238303
9.677348066298343,0.048191795712171165
9.710718232044199,0.14713373192433762
9.744088397790057,0.25074202435989584
9.777458563535912,0.3275085743546068
9.810828729281768,0.3542553906566712
9.844198895027626,0.32056170435486886
9.877569060773482,0.23083133024116492
9.910939226519337,0.10363664748054133
9.944309392265193,-0.03239049499479403
9.97767955801105,-0.14633917667055718
10.011049723756907,-0.2150821836274782
10.044419889502763,-0.23228088097211164
10.07779005524862,-0.2121043969525129
10.111160220994476,-0.1847446870929007
10.144530386740332,-0.18422166464061757
10.17790055248619,-0.23295128317574182
10.211270718232045,-0.3298980793693753
10.244640883977901,-0.44829633063341456
10.278011049723757,-0.5449494721339014
10.311381215469615,-0.5777295170459319
10.34475138121547,-0.5236956954192797
10.378121546961326,-0.38945943181481885
10.411491712707184,-0.20873204652970512
10.44486187845304,-0.02802050678416457
10.478232044198895,0.11278224859756837
10.511602209944753,0.19570845811177948
10.544972375690609,0.22900781998174852
10.578342541436465,0.23931754082633802
10.61171270718232,0.256707161555854
10.645082872928178,0.30059331113393295
10.678453038674034,0.3729566693786567
10.71182320441989,0.46048978064737256
10.745193370165747,0.5424085227839149
10.778563535911603,0.5985499432542425
10.811933701657459,0.6138644669968744
10.845303867403315,0.5789240610147344
10.878674033149172,0.48894597965524556
10.912044198895028,0.34419592869130133
10.945414364640884,0.15256378483979435
10.978784530386742,-0.06762156618600332
11.012154696132598,-0.2877488487485875
11.045524861878453,-0.4741163502693962
11.078895027624311,-0.5973666149309566
11.112265193370167,-0.6426018025584811
11.145635359116023,-0.6156001733026858
11.179005524861878,-0.5418658689725235
11.212375690607736,-0.45820016974306754
11.245745856353592,-0.39966055147863416
11.279116022099448,-0.3867823438999952
11.312486187845305,-0.4179928439239629
11.345856353591161,-0.47027351443353405
11.379226519337017,-0.50802665502899
11.412596685082875,-0.49687787514514936
11.44596685082873,-0.41698910538770967
11.479337016574586,-0.2703478126145276
11.512707182320442,-0.07880228645739039
11.5460773480663,0.12632116407835775
11.579447513812156,0.3180712129201532
11.612817679558011,0.4842210516870739
11.646187845303869,0.6285798828618341
11.679558011049725,0.7622851717026182
11.71292817679558,0.889619857965856
11.746298342541436,0.9964632363773641
11.779668508287294,1.048925033835237
11.81303867403315,1.004918710364034
11.846408839779006,0.8346039464737472
11.879779005524863,0.5402700333755895
11.91314917127072,0.16531268085300768
11.946519337016575,-0.2137275712941186
11.979889502762433,-0.5104423538345795
12.013259668508288,-0.6582040998934681
12.046629834254144,-0.6338655411782047
12.08,-0.46548872013206855
12.113370165745858,-0.22101781992449993
12.146740331491714,0.016946658544275062
12.18011049723757,0.1795007692103681
12.213480662983427,0.23167553130256818
12.246850828729283,0.17783782281815896
12.280220994475139,0.05245607746815984
12.313591160220996,-0.0977048932515669
12.346961325966852,-0.2315993115502347
12.380331491712708,-0.32545314019232685
12.413701657458564,-0.3753043135595364
12.447071823204421,-0.39212394562783714
12.480441988950277,-0.39337375758026144
12.513812154696133,-0.39476241384864236
12.54718232044199,-0.40445032622908345
12.580552486187846,-0.4204561770342865
12.613922651933702,-0.43134785309896534
12.64729281767956,-0.4201544143814907
12.680662983425416,-0.370952263228581
12.714033149171271,-0.27638173484599315
12.747403314917127,-0.1430975955066666
12.780773480662985,0.00792639957429002
12.81414364640884,0.1475133994251172
12.847513812154697,0.24896511275412567
12.880883977900554,0.29869451338101355
12.91425414364641,0.3015994042436315
12.947624309392266,0.2782201283352215
12.980994475138122,0.25482505239170883
13.01436464088398,0.25130098147951535
13.047734806629835,0.27293131363683354
13.081104972375691,0.310017890438438
13.114475138121549,0.3449578450196229
13.147845303867404,0.3623024048797578
13.18121546961326,0.35591580796993494
13.214585635359118,0.3294766730066281
13.247955801104974,0.29090515247204035
13.28132596685083,0.24511429653167685
13.314696132596685,0.19032770132920449
13.348066298342543,0.12054814291682615
13.381436464088399,0.03240415467587084
13.414806629834255,-0.06849535197336684
13.448176795580112,-0.16632361803346887
13.481546961325968,-0.24021132322815533
13.514917127071824,-0.2730581330119087
13.548287292817681,-0.25906663400318913
13.581657458563537,-0.20604807951108758
13.615027624309393,-0.13168623386440434
13.648397790055249,-0.05614130830998416
13.681767955801106,0.005163840458401411
13.715138121546962,0.04547768288796271
13.748508287292818,0.06638293574167374
13.781878453038676,0.07429073106505826
13.815248618784532,0.07594268040294617
13.848618784530387,0.07496798000114344
13.881988950276245,0.07067399378626499
13.9153591160221,0.059217556159740524
13.948729281767957,0.03641019488275003
13.982099447513813,0.0007605644534829161
14.01546961325967,-0.04482379833276127
14.048839779005526,-0.09366340227290539
14.082209944751382,-0.1379910676797664
14.11558011049724,-0.1722433147068251
14.148950276243095,-0.19526024091813476
14.182320441988951,-0.21048501256427535
14.215690607734807,-0.22433989455393827
14.249060773480664,-0.24354519477307737
14.28243093922652,-0.27215715754724323
14.315801104972376,-0.3090298706660634
14.349171270718234,-0.3465751989636756
14.38254143646409,-0.37178368621343844
14.415911602209945,-0.3698818506203981
14.449281767955803,-0.3296594315614969
14.482651933701659,-0.24819763802304423
14.516022099447515,-0.13258225812940796
14.54939226519337,0.0023783014607408454
14.582762430939228,0.13918100457582405
14.616132596685084,0.2626547353975748
14.64950276243094,0.36257685318398336
14.682872928176797,0.4334346480162511
14.716243093922653,0.47300779026532674
14.749613259668509,0.4820542152819581
14.782983425414367,0.4659025846778315
14.816353591160222,0.4362840703577
14.849723756906078,0.4103237245497294
14.883093922651934,0.4047270754966108
14.916464088397792,0.4265156956090617
14.949834254143648,0.4650925650787652
14.983204419889503,0.4913935058696556
15.016574585635361,0.46712922444510707
15.049944751381217,0.3617133901523161
15.083314917127073,0.16941424751109377
15.116685082872928,-0.08224441336683941
15.150055248618786,-0.33843073663082274
15.183425414364642,-0.5361151442020968
15.216795580110498,-0.6284850376837995
15.250165745856355,-0.6037763833829264
15.283535911602211,-0.4898575455559219
15.316906077348067,-0.34230283162383934
15.350276243093925,-0.22118990262839977
15.38364640883978,-0.1669073283309409
15.417016574585636,-0.18551978758173593
15.450386740331492,-0.24961612573788725
15.48375690607735,-0.31328867429051294
15.517127071823205,-0.33350936859904456
15.550497237569061,-0.2878161911023392
15.583867403314919,-0.1809491386513994
15.617237569060775,-0.03917897835457575
15.65060773480663,0.10295158149813124
15.683977900552488,0.21609915613985545
15.717348066298344,0.2840362994798716
15.7507182320442,0.3044284920299638
15.784088397790056,0.28472930087949716
15.817458563535913,0.23687497903770935
15.85082872928177,0.17338034891623744
15.884198895027625,0.10535862806105101
15.917569060773483,0.041603103903161784
15.950939226519338,-0.012139184662063925
15.984309392265194,-0.05374436716902717
16.01767955801105,-0.08456484883874232
16.051049723756908,-0.10817489169769952
16.084419889502765,-0.128363189513214
16.11779005524862,-0.1472789978129909
16.151160220994477,-0.1645318489434079
16.18453038674033,-0.177449152498285
16.21790055248619,-0.18215892118360413
16.251270718232046,-0.1750487792461513
16.2846408839779,-0.15432674389083442
16.318011049723758,-0.12144910138823559
16.351381215469615,-0.0818596145019645
16.38475138121547,-0.04410279181122116
16.418121546961327,-0.016580890490835998
16.451491712707185,-0.002406027391179208
16.48486187845304,0.005469167725042242
16.518232044198896,0.025557997258070998
16.551602209944754,0.08301340713214213
16.584972375690608,0.19885546264446025
16.618342541436466,0.37706948470678603
16.651712707182323,0.5958203540225571
16.685082872928177,0.8084520864447063
16.718453038674035,0.9560268587811541
16.751823204419892,0.9875240892191419
16.785193370165747,0.8793997810550064
16.818563535911604,0.6456584572843541
16.851933701657458,0.3336162292753013
16.885303867403316,0.007213748156591289
16.918674033149173,-0.27449705787470896
16.952044198895027,-0.4743232313325835
16.985414364640885,-0.583026309777369
17.018784530386743,-0.6140667328925299
17.052154696132597,-0.5918124249602305
17.085524861878454,-0.5400359546038269
17.118895027624312,-0.4756940631124085
17.152265193370166,-0.408975695913155
17.185635359116024,-0.3470296896361258
17.21900552486188,-0.2975219647389512
17.252375690607735,-0.26938658944387334
17.285745856353593,-0.2705015736038562
