Frequency (Hz),Amplitude
0.0,9.213571823827914
0.01993355481727575,9.209024092156902
0.0398671096345515,9.195385384380605
0.059800664451827246,9.172669157817836
0.079734219269103,9.140897826700048
0.09966777408637874,9.10010274023884
0.11960132890365449,9.05032415195499
0.13953488372093023,8.99161118030387
0.159468438538206,8.924021760642095
0.17940199335548174,8.84762258859068
0.19933554817275748,8.762489054860563
0.21926910299003324,8.668705171617322
0.23920265780730898,8.566363490473165
0.25913621262458475,8.455565012206533
0.27906976744186046,8.336419088322128
0.29900332225913623,8.209043314578203
0.318936877076412,8.073563416622909
0.3388704318936877,7.930113127898565
0.3588039867109635,7.7788340599919765
0.37873754152823924,7.619875565631343
0.39867109634551495,7.453394594557142
0.4186046511627907,7.279555542526906
0.4385382059800665,7.098530093754141
0.4584717607973422,6.910497057133035
0.47840531561461797,6.71564219666696
0.49833887043189373,6.51415805660631
0.5182724252491695,6.306243781918954
0.5382059800664452,6.092104934877444
0.5581395348837209,5.871953308771009
0.5780730897009968,5.646006740067264
0.5980066445182725,5.414488920805106
0.6179401993355482,5.177629213670056
0.637873754152824,4.935662473204776
0.6578073089700996,4.688828878136002
0.6777408637873754,4.43737378218403
0.6976744186046512,4.181547594532691
0.717607973421927,3.9216057073959476
0.7375415282392027,3.657808498701219
0.7574750830564785,3.390421456421919
0.7774086378737541,3.1197155047298546
0.7973421926910299,2.845967676002961
0.8172757475083057,2.5694624003263637
0.8372093023255814,2.290493954904145
0.8571428571428572,2.0093712334853318
0.877076411960133,1.7264275355076997
0.8970099667774087,1.4420423654148236
0.9169435215946844,1.1566960691475254
0.9368770764119602,0.8711326907627944
0.9568106312292359,0.5869971329464932
0.9767441860465116,0.31092843109622065
0.9966777408637875,0.12727296221106765
1.0166112956810631,0.3216589725523904
1.036544850498339,0.598452952548527
1.0564784053156147,0.8827532207392161
1.0764119601328903,1.1683921184314312
1.0963455149501662,1.4537915860302466
1.1162790697674418,1.7382246035051119
1.1362126245847177,2.0212166560410236
1.1561461794019936,2.3023905961726405
1.176079734219269,2.5814141531478043
1.196013289036545,2.8579788708412104
1.2159468438538206,3.1317906126750157
1.2358803986710964,3.402564923402778
1.255813953488372,3.6700246436522193
1.275747508305648,3.9338986539515335
1.2956810631229239,4.193921221437833
1.3156146179401993,4.449831684765776
1.3355481727574752,4.70137433667847
1.3554817275747508,4.948298425874278
1.3754152823920267,5.190358232612174
1.3953488372093024,5.427313190583668
1.4152823920265782,5.658928037934609
1.435215946843854,5.884972986450198
1.4551495016611296,6.105223901655209
1.4750830564784054,6.319462488922537
1.495016611295681,6.527476482184945
1.514950166112957,6.729059832830082
1.5348837209302328,6.924012897017826
1.5548172757475083,7.112142620108583
1.5747508305647842,7.293262717203907
1.5946843853820598,7.467193849020933
1.6146179401993357,7.633763792481786
1.6345514950166113,7.79280760551428
1.6544850498338872,7.944167785647869
1.6744186046511629,8.087694422053367
1.6943521594684385,8.223245340726878
1.7142857142857144,8.350686242557092
1.73421926910299,8.469890834048668
1.754152823920266,8.580740950499937
1.7740863787375416,8.68312667145601
1.7940199335548175,8.776946428277494
1.8139534883720931,8.862107103681707
1.8338870431893688,8.938524123128552
1.8538205980066447,9.006121537936682
1.8737541528239203,9.064832100028864
1.893687707641196,9.11459732821658
1.9136212624584719,9.155367565946312
1.9335548172757475,9.187102030439997
1.9534883720930232,9.209768853173362
1.9734219269102993,9.223345111646019
1.993355481727575,9.227816852407337
2.0132890365448506,9.22317910531239
2.0332225913621262,9.209435888992065
2.0531561461794023,9.186600207531592
2.073089700996678,9.15469403836163
2.0930232558139537,9.113748311376073
2.1129568106312293,9.063802879300859
2.132890365448505,9.004906479348342
2.1528239202657806,8.93711668620214
2.1727574750830567,8.860499856388012
2.1926910299003324,8.775131064097568
2.212624584717608,8.681094028542443
2.2325581395348837,8.57848103292935
2.25249169435216,8.467392835158215
2.2724252491694354,8.347938570360375
2.292358803986711,8.220235645407344
2.312292358803987,8.084409625538623
2.332225913621263,7.940594113274725
2.352159468438538,7.788930619803552
2.3720930232558137,7.629568429053875
2.39202657807309,7.462664454699848
2.4119601328903655,7.288383090378352
2.431893687707641,7.106896053447898
2.4518272425249172,6.91838222267787
2.471760797342193,6.723027470335506
2.4916943521594686,6.521024489241292
2.511627906976744,6.3125726155041
2.5315614617940203,6.097877647838826
2.551495016611296,5.877151664637876
2.5714285714285716,5.650612840347084
2.5913621262458477,5.418485263245684
2.611295681063123,5.180998757534762
2.6312292358803986,4.938388713845024
2.6511627906976742,4.690895934116617
2.6710963455149503,4.438766499681667
2.691029900332226,4.182251675984178
2.7109634551495017,3.921607874939396
2.7308970099667778,3.65709670874812
2.7508305647840534,3.388985191422289
2.770764119601329,3.1175461851139707
2.7906976744186047,2.8430592659988467
2.810631229235881,2.5658123399232333
2.8305647840531565,2.286104668645797
2.850498338870432,2.0042527236819634
2.870431893687708,1.7206021755102745
2.8903654485049834,1.4355546157775658
2.910299003322259,1.1496347523016224
2.9302325581395348,0.8636918370698045
2.950166112956811,0.5796945770848645
2.9700996677740865,0.30589387674683366
2.990033222591362,0.13979712302955807
3.0099667774086383,0.3380851968955718
3.029900332225914,0.6144260718003233
3.0498338870431896,0.8990022187416695
3.0697674418604657,1.1852027870598818
3.089700996677741,1.4712966887098924
3.1096345514950166,1.75649558813405
3.129568106312292,2.0402957476600423
3.1495016611295683,2.322304120867284
3.169435215946844,2.602178832815373
3.1893687707641196,2.8796050992106603
3.2093023255813957,3.1542842917851788
3.2292358803986714,3.425928555206817
3.249169435215947,3.694258010273791
3.2691029900332227,3.95899925845441
3.289036544850499,4.219884582976691
3.3089700996677744,4.476651541950847
3.32890365448505,4.729042791334592
3.3488372093023258,4.976806047131912
3.3687707641196014,5.219694134072773
3.388704318936877,5.457465088929481
3.4086378737541527,5.689882298615513
3.428571428571429,5.916714660321069
3.4485049833887045,6.137736755279727
3.46843853820598,6.352729030481084
3.4883720930232562,6.561477984391205
3.508305647840532,6.763776353888898
3.5282392026578075,6.9594233003932
3.548172757475083,7.148224593681029
3.5681063122923593,7.329992792257597
3.588039867109635,7.504547419398826
3.60797342192691,7.671715134169764
3.6279069767441863,7.831329896857486
3.647840531561462,7.983233128357236
3.6677740863787376,8.127273863126094
3.6877076411960132,8.263308895376813
3.7076411960132893,8.391202918229899
3.727574750830565,8.510828655578747
3.7475083056478407,8.622066986452394
3.7674418604651168,8.724807061685164
3.787375415282392,8.818946412723935
3.807308970099668,8.904391052421857
3.8272425249169437,8.98105556768399
3.8471760797342194,9.048863203844745
3.867109634551495,9.107745940670961
3.887043189368771,9.157644559896768
3.9069767441860463,9.198508704208532
3.9269102990033224,9.23029692760965
3.9468438538205985,9.252976737106014
3.9667774086378738,9.266524625663568
3.98671096345515,9.27092609640031
4.0066445182724255,9.266175677985219
4.026578073089701,9.252276931227158
4.046511627906977,9.229242446847001
4.0664451827242525,9.197093834436844
4.086378737541528,9.155861702620305
4.106312292358805,9.105585630438835
4.1262458471760795,9.046314129999518
4.146179401993356,8.97810460043099
4.166112956810632,8.901023273205622
4.186046511627907,8.815145148897733
4.205980066445183,8.72055392546053
4.225913621262459,8.617341918117305
4.245847176079734,8.505609970977154
4.26578073089701,8.385467360500991
4.2857142857142865,8.25703169096098
4.305647840531561,8.120428782056498
4.325581395348838,7.975792548872232
4.345514950166113,7.823264874390892
4.365448504983389,7.662995474805063
4.385382059800665,7.495141757911819
4.40531561461794,7.319868674922737
4.425249169435216,7.137348566083601
4.445182724252492,6.947761000578357
4.465116279069767,6.751292611296725
4.485049833887043,6.548136925185323
4.50498338870432,6.33849419009207
4.524916943521594,6.122571199275828
4.544850498338871,5.9005811151197225
4.5647840531561465,5.6727432941079075
4.584717607973422,5.4392831158790695
4.604651162790698,5.200431820279033
4.624584717607974,4.956426357996931
4.644518272425249,4.707509262912226
4.664451827242526,4.453928558255203
4.6843853820598005,4.195937715051298
4.704318936877076,3.9337956917953427
4.724252491694353,3.667767102059453
4.7441860465116275,3.398122587873289
4.764119601328904,3.125139533443034
4.78405315614618,2.8491033618044943
4.803986710963455,2.5703098735915004
4.823920265780731,2.289069548523153
4.8438538205980075,2.0057157876017393
4.863787375415282,1.7206217237130343
4.883720930232559,1.4342376595685888
4.9036544850498345,1.14718533487658
4.92358803986711,0.8605412312449381
4.943521594684386,0.5769566391186867
4.963455149501661,0.307840795085453
4.983388704318937,0.16496084583671597
5.003322259136213,0.3613369510607147
5.023255813953488,0.635999621695006
5.043189368770764,0.9208717315917099
5.063122923588041,1.208065293092435
5.083056478405315,1.4954641379934819
5.102990033222592,1.7821309358275357
5.122923588039868,2.0674922914924667
5.142857142857143,2.3511178483943587
5.162790697674419,2.6326435520341454
5.182724252491695,2.911740268821325
5.20265780730897,3.188099399205536
5.222591362126246,3.461425718745009
5.242524916943522,3.731433604749093
5.262458471760797,3.9978449739490665
5.282392026578074,4.260388139535873
5.3023255813953485,4.518797187568771
5.322259136212625,4.772811659120493
5.342192691029901,5.022176418550043
5.362126245847176,5.266641638153869
5.382059800664452,5.505962857045139
5.4019933554817285,5.739901087968364
5.421926910299003,5.968222955173201
5.44186046511628,6.190700852228573
5.4617940199335555,6.407113112270955
5.48172757475083,6.617244185503385
5.501661129568107,6.82088482028518
5.5215946843853825,7.017832245174558
5.541528239202658,7.207890349981781
5.561461794019934,7.390869864374416
5.5813953488372094,7.566588532917264
5.601328903654485,7.734871285673738
5.621262458471762,7.895550403673847
5.641196013289036,8.048465678685337
5.661129568106313,8.19346456682374
5.681063122923589,8.330402335612321
5.700996677740864,8.459142204162212
5.72093023255814,8.579555476188785
5.740863787375416,8.691521665618428
5.760797342192691,8.794928614570155
5.780730897009967,8.889672603522465
5.800664451827243,8.975658453498035
5.820598006644518,9.05279962011773
5.840531561461795,9.121018279392729
5.8604651162790695,9.180245405139082
5.880398671096346,9.230420837912868
5.900332225913622,9.27149334537797
5.920265780730897,9.303420674030379
5.940199335548173,9.326169592215667
5.960132890365449,9.339715924387292
5.980066445182724,9.344044576565299
6.0,9.33914955296572
6.0199335548172765,9.325033963782534
6.039867109634551,9.30171002411479
6.059800664451828,9.269199044042677
6.0797342192691035,9.227531409868064
6.099667774086379,9.17674655654585
6.119601328903655,9.116892931344823
6.139534883720931,9.048027948788912
6.159468438538206,8.970217936942296
6.179401993355482,8.883538075115636
6.1993355481727574,8.788072323085157
6.219269102990033,8.683913341932053
6.23920265780731,8.57116240662694
6.259136212624584,8.449929310503624
6.279069767441861,8.320332261788367
6.299003322259137,8.182497772376568
6.318936877076412,8.036560539078616
6.338870431893688,7.882663317593231
6.3588039867109645,7.720956789510407
6.378737541528239,7.551599422701347
6.398671096345516,7.3747573255221965
6.418604651162791,7.1906040953475125
6.438538205980066,6.999320662066056
6.458471760797343,6.801095127325614
6.4784053156146175,6.596122600520718
6.498338870431894,6.384605032799397
6.51827242524917,6.166751050755775
6.538205980066445,5.9427757920229665
6.558139534883721,5.712900745762047
6.578073089700998,5.477353602173863
6.598006644518272,5.236368116827395
6.617940199335549,4.990183998099775
6.6378737541528245,4.7390468298536685
6.6578073089701,4.483208047471849
6.677740863787376,4.222924994978659
6.6976744186046515,3.9584611068008857
6.717607973421927,3.6900862845658278
6.737541528239203,3.4180775864451185
6.7574750830564785,3.1427204324684537
6.777408637873754,2.8643106930057205
6.797342192691031,2.5831583562982963
6.8172757475083055,2.299594171874024
6.837209302325582,2.013982274534537
6.857142857142858,1.7267458258562716
6.877076411960133,1.4384240221258247
6.897009966777409,1.1498155343479413
6.9169435215946855,0.862408847834201
6.93687707641196,0.5800695171113069
6.956810631229236,0.31936452696131606
6.9767441860465125,0.20329786043230386
6.996677740863787,0.39350448616047246
7.016611295681064,0.6649885708148414
7.036544850498339,0.9499497511325259
7.056478405315615,1.2384384402089073
7.076411960132891,1.5276809441100354
7.096345514950166,1.8164797790177587
7.116279069767442,2.104138738455875
7.136212624584719,2.390161485654081
7.156146179401993,2.6741448126735112
7.17607973421927,2.9557344036075546
7.196013289036546,3.2346043258972403
7.21594684385382,3.510446706448441
7.235880398671097,3.782966211106461
7.2558139534883725,4.0518769649219415
7.275747508305648,4.3169007899729985
7.295681063122924,4.577766190701554
7.3156146179402,4.834207781238556
7.335548172757475,5.085965983185351
7.355481727574752,5.332786893609511
7.3754152823920265,5.574422262584949
7.395348837209303,5.810629542397758
7.415282392026579,6.041171984100366
7.435215946843854,6.265818765401996
7.45514950166113,6.484345139103498
7.475083056478406,6.696532594642996
7.495016611295681,6.9021690275256615
7.514950166112956,7.10104891288987
7.5348837209302335,7.292973480470852
7.554817275747508,7.477750888922918
7.574750830564784,7.655196397954786
7.5946843853820605,7.82513253708566
7.614617940199336,7.987389270085968
7.634551495016611,8.141804154355787
7.6544850498338874,8.288222494635034
7.674418604651163,8.426497490546755
7.694352159468439,8.55649037755714
7.714285714285715,8.678070561000531
7.73421926910299,8.791115742869017
7.754152823920266,8.895512041107388
7.774086378737542,8.9911541011888
7.794019933554818,9.077945199774776
7.813953488372093,9.15579734028772
7.83388704318937,9.224631340245612
7.853820598006645,9.284376910227024
7.8737541528239205,9.334972724352026
7.893687707641197,9.376366482179954
7.913621262458472,9.408514961939686
7.9335548172757475,9.431384065021607
7.953488372093024,9.444948851674067
7.9734219269103,9.44919356785938
7.9933554817275745,9.444111663237432
8.013289036544851,9.429705800256889
8.033222591362128,9.40598785434679
8.053156146179402,9.372978905213524
8.073089700996679,9.330709219261012
8.093023255813954,9.27921822316504
8.11295681063123,9.218554468646188
8.132890365448505,9.148775588500223
8.152823920265782,9.069948243960004
8.172757475083056,8.982148063479267
8.192691029900331,8.885459573046633
8.21262458471761,8.779976118158373
8.232558139534884,8.665799777600087
8.252491694352159,8.543041269214356
8.272425249169435,8.411819847860242
8.292358803986712,8.272263195806646
8.312292358803987,8.124507305844132
8.332225913621263,7.968696357452039
8.352159468438538,7.80498258642267
8.372093023255815,7.633526148426386
8.392026578073091,7.454494977106302
8.411960132890366,7.268064637427299
8.43189368770764,7.074418175182905
8.451827242524917,6.873745963802212
8.471760797342194,6.666245549920528
8.491694352159469,6.452121499617977
8.511627906976745,6.231585247840858
8.53156146179402,6.004854954379705
8.551495016611296,5.772155371004273
8.571428571428573,5.533717726135004
8.591362126245848,5.289779636053884
8.611295681063122,5.040585055600305
8.6312292358804,4.786384287337286
8.651162790697676,4.527434077633255
8.67109634551495,4.2639978432788945
8.691029900332227,3.9963460972589298
8.710963455149502,3.7247571847377214
8.730897009966778,3.449518514832306
8.750830564784053,3.1709286097017433
8.77076411960133,2.8893005517346233
8.790697674418604,2.6049679300238013
8.81063122923588,2.3182954970607668
8.830564784053157,2.029699290691522
8.850498338870432,1.739687347468611
8.870431893687707,1.4489499518710411
8.890365448504983,1.1585858302526062
8.91029900332226,0.8707750631869439
8.930232558139535,0.5913548093567887
8.950166112956811,0.3441567245511229
8.970099667774086,0.25602578793260583
8.990033222591363,0.4374734918767459
9.00996677740864,0.703993287614859
9.029900332225914,0.9885223331244962
9.049833887043189,1.2784164500271527
9.069767441860467,1.5699315115764962
9.089700996677742,1.8614677308282328
9.109634551495017,2.152134685816677
9.129568106312293,2.441330538749038
9.14950166112957,2.728589218434999
9.169435215946844,3.0135160191758024
9.189368770764121,3.295757353574548
9.209302325581396,3.5749853430511833
9.22923588039867,3.850889468596329
9.249169435215949,4.123171833998113
9.269102990033224,4.391544390192334
9.289036544850498,4.655727277800482
9.308970099667773,4.915447833974668
9.328903654485051,5.170440007777588
9.348837209302326,5.420444034186258
9.368770764119601,5.665206275780325
9.388704318936878,5.904479175245972
9.408637873754152,6.138021282151016
9.428571428571429,6.36559732992253
9.448504983388705,6.586978346814361
9.46843853820598,6.801941789714137
9.488372093023255,7.010271692970397
9.508305647840533,7.211758826654659
9.528239202657808,7.406200860198507
9.548172757475083,7.593402528404114
9.56810631229236,7.773175797572366
9.588039867109636,7.945340030026135
9.60797342192691,8.10972214569259
9.627906976744187,8.266156779692617
9.647840531561462,8.414486435096903
9.667774086378738,8.554561630167642
9.687707641196015,8.686241039527058
9.70764119601329,8.80939162878828
9.727574750830565,8.923888782258576
9.747508305647841,9.029616423384327
9.767441860465118,9.126467127655067
9.787375415282392,9.214342227723684
9.807308970099669,9.29315191053296
9.827242524916944,9.362815306266992
9.84717607973422,9.4232605689706
9.867109634551497,9.474424948701492
9.887043189368772,9.51625485509958
9.906976744186046,9.548705912275542
9.926910299003321,9.571743004937622
9.9468438538206,9.585340315691024
9.966777408637874,9.58948135345964
9.986710963455149,9.584158972994487
10.006644518272426,9.569375385447378
10.026578073089702,9.54514216000338
10.046511627906977,9.511480216579914
10.066445182724253,9.468419809615376
10.086378737541528,9.41600050298607
10.106312292358805,9.35427113610656
10.126245847176081,9.283289781286229
10.146179401993356,9.203123692433916
10.16611295681063,9.113849245223589
10.186046511627907,9.015551868857578
10.205980066445184,8.908325969590443
10.225913621262459,8.792274846207528
10.245847176079735,8.66751059768818
10.26578073089701,8.534154023326618
10.285714285714286,8.392334515635277
10.305647840531563,8.242189946418666
10.325581395348838,8.083866546485037
10.345514950166113,7.917518779561917
10.36544850498339,7.743309211108263
10.385382059800666,7.561408372879104
10.40531561461794,7.371994624311856
10.425249169435217,7.175254012085226
10.445182724252492,6.971380129579178
10.465116279069768,6.760573978475363
10.485049833887045,6.5430438354385245
10.50498338870432,6.319005127793993
10.524916943521594,6.088680323488983
10.544850498338871,5.852298842587745
10.564784053156147,5.610097000399688
10.584717607973422,5.362317996544718
10.604651162790697,5.1092119705813195
10.624584717607974,4.851036154513397
10.64451827242525,4.588055167673745
10.664451827242525,4.320541523841521
10.684385382059801,4.04877646059233
10.704318936877076,3.773051269024309
10.724252491694353,3.493669421640877
10.74418604651163,3.2109500143859275
10.764119601328904,2.9252334546808583
10.784053156146179,2.636891161148305
10.803986710963457,2.3463428155660053
10.823920265780732,2.054088764286728
10.843853820598007,1.7607752750479966
10.863787375415283,1.4673383887518692
10.88372093023256,1.1753611512611752
10.903654485049834,0.8881163892837265
