Time (s),Filtered Signal
0.0,0.02936066588113821
0.03337028824833703,0.05058572431052083
0.06674057649667406,0.1185182924617953
0.10011086474501109,0.2575091532944436
0.13348115299334812,0.4568690150476193
0.16685144124168516,0.6746778342086972
0.20022172949002218,0.8553403398616873
0.2335920177383592,0.9523791613601419
0.26696230598669624,0.9461873624531069
0.3003325942350333,0.8496697503876627
0.3337028824833703,0.7007590152455332
0.3670731707317073,0.5463886663445205
0.40044345898004435,0.4251530972014706
0.4338137472283814,0.35511052484838135
0.4671840354767184,0.33024734558824337
0.5005543237250555,0.32577250414451214
0.5339246119733925,0.309769174172858
0.5672949002217295,0.2570616866644024
0.6006651884700666,0.16040777214870153
0.6340354767184035,0.034516744834466845
0.6674057649667406,-0.08961615218679535
0.7007760532150776,-0.17892285441470385
0.7341463414634146,-0.21561610683467305
0.7675166297117517,-0.20949142778337312
0.8008869179600887,-0.19783311802635517
0.8342572062084257,-0.23066107665622615
0.8676274944567628,-0.34644096873526836
0.9009977827050998,-0.5492424355178873
0.9343680709534368,-0.7990809206889099
0.9677383592017739,-1.0217931006198233
1.001108647450111,-1.1356916960126766
1.0344789356984478,-1.0840417126371307
1.067849223946785,-0.8593128691945348
1.101219512195122,-0.508679388135746
1.134589800443459,-0.11845620174185671
1.167960088691796,0.21596339741322748
1.2013303769401331,0.42253140440844134
1.23470066518847,0.47496710646292495
1.268070953436807,0.3974776135998677
1.3014412416851442,0.2513145357826943
1.3348115299334813,0.10955252645462911
1.3681818181818182,0.030424554459079167
1.4015521064301553,0.03927832945142701
1.4349223946784924,0.12498200406419042
1.4682926829268292,0.2502209420493123
1.5016629711751663,0.36939143753702885
1.5350332594235034,0.4453491408324304
1.5684035476718403,0.45825256722983204
1.6017738359201774,0.40499961997955886
1.6351441241685145,0.29322096323561475
1.6685144124168514,0.13615004579587742
1.7018847006651885,-0.04753442148255026
1.7352549889135256,-0.23006486372194632
1.7686252771618625,-0.37284916100874205
1.8019955654101996,-0.43260065170416434
1.8353658536585367,-0.37648524292318636
1.8687361419068735,-0.20042617733073706
1.9021064301552106,0.05976428912219329
1.9354767184035477,0.3332207737412921
1.9688470066518848,0.5362709044968363
2.002217294900222,0.6042029525216283
2.035587583148559,0.5185597583842444
2.0689578713968957,0.31666652066963996
2.102328159645233,0.07762107977631554
2.13569844789357,-0.11021132762381804
2.1690687361419068,-0.18626342504973845
2.202439024390244,-0.14280512318235505
2.235809312638581,-0.02638700071756026
2.269179600886918,0.0852960861292067
2.302549889135255,0.12069350543250468
2.335920177383592,0.04853472689430896
2.369290465631929,-0.10732864274447193
2.4026607538802662,-0.2795358704921372
2.436031042128603,-0.3897894924611505
2.46940133037694,-0.38674154310264386
2.5027716186252773,-0.2710179329145245
2.536141906873614,-0.09560683173328409
2.569512195121951,0.05811682646681985
2.6028824833702884,0.11693995058505513
2.6362527716186253,0.047852777191668736
2.6696230598669626,-0.12836328370883726
2.7029933481152995,-0.34662313040511344
2.7363636363636363,-0.5242797757623958
2.7697339246119737,-0.5927329367348128
2.8031042128603105,-0.5212388722888439
2.8364745011086474,-0.3252674456212174
2.8698447893569847,-0.058727467103837715
2.9032150776053216,0.20512210071773665
2.9365853658536585,0.39690844916289547
2.969955654101996,0.4717053921902151
3.0033259423503327,0.4217306410926759
3.0366962305986696,0.27802378330738287
3.070066518847007,0.10040018433159272
3.1034368070953438,-0.04192607985140635
3.1368070953436806,-0.09339175498439918
3.170177383592018,-0.031062466061207227
3.203547671840355,0.12762475298383094
3.2369179600886917,0.3317422521937726
3.270288248337029,0.5159296557551245
3.303658536585366,0.6238787650649227
3.337028824833703,0.6265190333030689
3.37039911308204,0.527856607574989
3.403769401330377,0.3575594788163657
3.437139689578714,0.15569750530025125
3.470509977827051,-0.0419696016451193
3.503880266075388,-0.21166584699987123
3.537250554323725,-0.3410845706366866
3.5706208425720622,-0.4247242891564925
3.603991130820399,-0.46073965314876314
3.637361419068736,-0.4521445715751494
3.6707317073170733,-0.4102547893981035
3.70410199556541,-0.3551658818525933
3.737472283813747,-0.3095302901365562
3.7708425720620844,-0.28717345790207144
3.8042128603104213,-0.2833084404097666
3.8375831485587586,-0.27404969866463175
3.8709534368070955,-0.22820071904406444
3.9043237250554323,-0.1265443325451058
3.9376940133037697,0.021909475102667646
3.9710643015521065,0.1770739458653738
4.004434589800444,0.2821715788487887
4.037804878048781,0.2898358853965132
4.071175166297118,0.18743270432286194
4.1045454545454545,0.008450600489430315
4.137915742793791,-0.1769891744733181
4.171286031042128,-0.2894583338891889
4.204656319290466,-0.27353251682296603
4.238026607538803,-0.1219849532451641
4.27139689578714,0.12030760375860312
4.304767184035477,0.37465240071929495
4.3381374722838135,0.5607663346131232
4.371507760532151,0.6285006118700215
4.404878048780488,0.5753087050084215
4.438248337028825,0.44269380774946504
4.471618625277162,0.2945274372439361
4.504988913525499,0.18776702041698734
4.538359201773836,0.1484859728144705
4.571729490022173,0.16287596086271192
4.60509977827051,0.1860668553191264
4.638470066518847,0.16429220803785366
4.671840354767184,0.06076229142584825
4.705210643015521,-0.1257636977699809
4.738580931263858,-0.3577910485095924
4.771951219512196,-0.5729975255863256
4.8053215077605325,-0.7094624104463506
4.838691796008869,-0.731152381033764
4.872062084257206,-0.6422206883049001
4.905432372505543,-0.4836737463220388
4.93880266075388,-0.3140485631583136
4.972172949002218,-0.18306464831006936
5.005543237250555,-0.11036703545111325
5.0389135254988915,-0.07911884941721008
5.072283813747228,-0.04745168005996391
5.105654101995565,0.027426566544115502
5.139024390243902,0.1637829445863638
5.17239467849224,0.34108457110394536
5.205764966740577,0.5047961927520191
5.239135254988914,0.5894053702446713
5.2725055432372505,0.549818115119797
5.305875831485587,0.3863970020161
5.339246119733925,0.15092884234702184
5.372616407982262,-0.07083591613370098
5.405986696230599,-0.19354183296006727
5.439356984478936,-0.16875967366120567
5.472727272727273,-0.007432847864808584
5.5060975609756095,0.22214255367003255
5.539467849223947,0.4206110019784619
5.572838137472284,0.4973766635795325
5.606208425720621,0.40722844246922973
5.639578713968958,0.1682076620874085
5.672949002217295,-0.14695708958694192
5.706319290465632,-0.4421082894312185
5.7396895787139695,-0.637796455698788
5.773059866962306,-0.7023520264163513
5.806430155210643,-0.6599666731964485
5.83980044345898,-0.5724836661693894
5.873170731707317,-0.5039776102913212
5.906541019955654,-0.48544275211273025
5.939911308203992,-0.4970058195744723
5.9732815964523285,-0.4769096450377067
6.006651884700665,-0.35382698743709884
6.040022172949002,-0.08766197476588246
6.073392461197339,0.30087239261811105
6.106762749445676,0.7274812116692799
6.140133037694014,1.0721748544925034
6.173503325942351,1.2272739543986628
6.2068736141906875,1.1445220046505287
6.240243902439024,0.8591575005614691
6.273614190687361,0.4783479413897656
6.306984478935698,0.13770421761930152
6.340354767184036,-0.05508476541021445
6.373725055432373,-0.06392956758357529
6.40709534368071,0.06438989565209734
6.4404656319290465,0.22567420501588747
6.473835920177383,0.3076338142844261
6.507206208425721,0.23988653391526052
6.540576496674058,0.02247348156276415
6.573946784922395,-0.278124458798181
6.607317073170732,-0.5613323547609038
6.640687361419069,-0.7370408187735153
6.674057649667406,-0.7622287465261903
6.707427937915743,-0.6544373507057148
6.74079822616408,-0.47802329823656414
6.774168514412417,-0.31141877008210556
6.807538802660754,-0.21167876245210857
6.840909090909091,-0.19281362434553634
6.874279379157428,-0.22677852011353686
6.9076496674057655,-0.26436903267883
6.941019955654102,-0.26361256379326636
6.974390243902439,-0.21051073531360337
7.007760532150776,-0.12236067896213859
7.041130820399113,-0.03404457407173069
7.07450110864745,0.02325049008562866
7.107871396895788,0.038386654478425486
7.1412416851441245,0.02339185110013535
7.174611973392461,0.003392847792368547
7.207982261640798,0.0008188380339071439
7.241352549889135,0.02368226088298914
7.274722838137472,0.06426806609338052
7.30809312638581,0.10784858270311624
7.341463414634147,0.1451908967098151
7.3748337028824835,0.18080778350939705
7.40820399113082,0.23176138215694522
7.441574279379157,0.3174225557753447
7.474944567627494,0.4457063783853979
7.508314855875832,0.6032830234987491
7.541685144124169,0.7553145130192812
7.575055432372506,0.8556379682326568
7.6084257206208425,0.8633813738001906
7.641796008869179,0.759002217548119
7.675166297117517,0.5528857113223884
7.708536585365854,0.28277145444031215
7.741906873614191,0.001028612998425603
7.775277161862528,-0.2429014160867379
7.808647450110865,-0.41767417381096156
7.842017738359202,-0.5169810813577239
7.875388026607539,-0.5563613368080742
7.908758314855876,-0.5624963531720925
7.942128603104213,-0.5604479885942036
7.97549889135255,-0.5643027571366049
8.008869179600888,-0.5742492232061948
8.042239467849225,-0.5798468547342661
8.075609756097561,-0.566841684962314
8.108980044345898,-0.5241895952946806
8.142350332594235,-0.44872160706632136
8.175720620842572,-0.34628860827532953
8.209090909090909,-0.22951406828793844
8.242461197339246,-0.11319417964227013
8.275831485587583,-0.008985038265539346
8.30920177383592,0.07867557972516402
8.342572062084257,0.15366335422246222
8.375942350332595,0.22546008518402577
8.409312638580932,0.3033535370343954
8.442682926829269,0.38981205846347117
8.476053215077606,0.4761412466219748
8.509423503325943,0.5430930180233909
8.54279379157428,0.5672747514012967
8.576164079822616,0.5314898314075525
8.609534368070953,0.4346418911623402
8.64290465631929,0.29597713920647467
8.676274944567627,0.15023041394094566
8.709645232815964,0.03442865826892895
8.743015521064303,-0.02814924934904043
8.77638580931264,-0.038795963438562696
8.809756097560976,-0.022609336111515804
8.843126385809313,-0.015492586155782098
8.87649667405765,-0.045166802689437784
8.909866962305987,-0.11636144195092303
8.943237250554324,-0.2085279746140784
8.97660753880266,-0.28751112617130165
9.009977827050998,-0.32459331354539056
9.043348115299334,-0.31209004464171985
9.076718403547671,-0.2668230058164588
9.110088691796008,-0.2199469924321465
9.143458980044347,-0.1993431385439033
9.176829268292684,-0.21456327935332314
9.21019955654102,-0.25222727009030615
9.243569844789358,-0.2835228777004935
9.276940133037694,-0.2789389994723529
9.310310421286031,-0.22216063017867851
9.343680709534368,-0.11644800333464105
9.377050997782705,0.01854464030510105
9.410421286031042,0.156518760197105
9.443791574279379,0.2750583669855764
9.477161862527716,0.36175471910580487
9.510532150776053,0.41405070821015383
9.543902439024391,0.4347882097231694
9.577272727272728,0.4275533151717856
9.610643015521065,0.3951614160258071
9.644013303769402,0.3417569630065558
9.677383592017739,0.27607972026106065
9.710753880266076,0.21241571872535653
9.744124168514412,0.16718896324654814
9.77749445676275,0.15204748528271536
9.810864745011086,0.16684176145641133
9.844235033259423,0.19659449340070137
9.87760532150776,0.214992128969087
9.910975609756099,0.19383032197202296
9.944345898004435,0.11472293202788923
9.977716186252772,-0.02216311082173781
10.01108647450111,-0.19660768680584337
10.044456762749446,-0.37510491233469284
10.077827050997783,-0.5229881165887172
10.11119733924612,-0.6164235567215485
10.144567627494457,-0.649001389391135
10.177937915742794,-0.6305530879744756
10.21130820399113,-0.5797822273008196
10.244678492239467,-0.5151175586181388
10.278048780487804,-0.4483967793451255
10.311419068736143,-0.3836476333998685
10.34478935698448,-0.3199362489799478
10.378159645232817,-0.2550892716660625
10.411529933481154,-0.18731740752140508
10.44490022172949,-0.11400703998346949
10.478270509977827,-0.02952773854848118
10.511640798226164,0.07499959009867542
10.545011086474501,0.2081862276158763
10.578381374722838,0.37198439592415394
10.611751662971175,0.5557246358383876
10.645121951219512,0.7344776523280941
10.67849223946785,0.8738801969322008
10.711862527716187,0.9403273769220203
10.745232815964524,0.912480487659783
10.778603104212861,0.7890607040111547
10.811973392461198,0.5895354515836304
10.845343680709535,0.3477103174361905
10.878713968957872,0.10151905881064804
10.912084257206208,-0.11636437320783911
10.945454545454545,-0.2837133007015779
10.978824833702882,-0.3892408329910427
11.012195121951219,-0.4305406576933408
11.045565410199556,-0.41237960322529305
11.078935698447895,-0.3467784784176888
11.112305986696231,-0.25378762772517244
11.145676274944568,-0.16021994164398298
11.179046563192905,-0.09427443176889966
11.212416851441242,-0.07679394725603567
11.245787139689579,-0.11301440966268754
11.279157427937916,-0.18972034377164773
11.312527716186253,-0.2805016873880696
11.34589800443459,-0.35727867878507275
11.379268292682926,-0.4022010281377333
11.412638580931263,-0.41328093827461976
11.4460088691796,-0.40057415561433646
11.479379157427939,-0.3754525098418617
11.512749445676276,-0.3398891552330623
11.546119733924613,-0.2827999244606694
11.57949002217295,-0.18616771798344697
11.612860310421286,-0.03759956407069533
11.646230598669623,0.1580970341139078
11.67960088691796,0.3753175655303647
11.712971175166297,0.5744874684522411
11.746341463414634,0.7158945513996633
11.77971175166297,0.773453369717488
11.813082039911308,0.7418948724866451
11.846452328159646,0.6350140904159759
11.879822616407983,0.47755203872674423
11.91319290465632,0.2960123221823187
11.946563192904657,0.11287361587097465
11.979933481152994,-0.05467622704050489
12.01330376940133,-0.19361468337589072
12.046674057649668,-0.2946522259782991
12.080044345898004,-0.3538614930212694
12.113414634146341,-0.37495661813285
12.146784922394678,-0.3692899327930254
12.180155210643015,-0.3517062545010237
12.213525498891352,-0.3334415533541371
12.24689578713969,-0.3160740463183554
12.280266075388028,-0.2908460796140166
12.313636363636364,-0.24477741006019246
12.347006651884701,-0.17049920997540063
12.380376940133038,-0.07369252366542259
12.413747228381375,0.02719606461627795
12.447117516629712,0.10976397662354019
12.480487804878049,0.16027812366188374
12.513858093126386,0.18253131447554727
12.547228381374723,0.19710846996841233
12.58059866962306,0.2306360662456809
12.613968957871396,0.3003127263872202
12.647339246119735,0.40173076922153
12.680709534368072,0.5063919881105742
12.714079822616409,0.5706178672152221
12.747450110864746,0.5523578296652508
12.780820399113082,0.42904955503595393
12.81419068736142,0.20929148759688768
12.847560975609756,-0.06651079968983141
12.880931263858093,-0.33720150659743314
12.91430155210643,-0.5399140132223926
12.947671840354767,-0.6303409634555102
12.981042128603104,-0.5969691892376936
13.014412416851442,-0.4642302436142071
13.04778270509978,-0.28360876401919943
13.081152993348116,-0.11611694516237128
13.114523281596453,-0.012493546937135683
13.14789356984479,0.0020401101345266744
13.181263858093127,-0.06637268498100983
13.214634146341464,-0.18511757001429158
13.2480044345898,-0.3084230301797719
13.281374722838137,-0.3940678818616462
13.314745011086474,-0.4174207612874848
13.348115299334811,-0.37774115868755537
13.381485587583148,-0.29459777143022337
13.414855875831487,-0.19630214572752244
13.448226164079824,-0.10580447453852805
13.48159645232816,-0.030731616142538585
13.514966740576497,0.037793846646177735
13.548337028824834,0.11746833261513151
13.581707317073171,0.22287649471753737
13.615077605321508,0.3560861245319736
13.648447893569845,0.5047729256396346
13.681818181818182,0.6481922724761939
13.715188470066519,0.7665939655910124
13.748558758314855,0.8479001637391568
13.781929046563192,0.8877447469629492
13.815299334811531,0.8837845071891036
13.848669623059868,0.8293722246992865
13.882039911308205,0.7124449789299118
13.915410199556542,0.5221790461279733
13.948780487804878,0.26052041051563785
13.982150776053215,-0.04847996819689516
14.015521064301552,-0.3586607765781276
14.048891352549889,-0.6136791447626303
14.082261640798226,-0.7667403178747605
14.115631929046563,-0.7989990848650674
14.1490022172949,-0.7273597609080925
14.182372505543238,-0.5974140123162622
14.215742793791575,-0.4646967227380709
14.249113082039912,-0.3731794997339558
14.282483370288249,-0.3408523818413224
14.315853658536586,-0.35804504765072453
14.349223946784923,-0.3973816078731926
14.38259423503326,-0.4288252981743866
14.415964523281596,-0.4319875298250896
14.449334811529933,-0.4008974954971906
14.48270509977827,-0.3413372314012075
14.516075388026607,-0.2644548438443779
14.549445676274944,-0.18088006939870754
14.582815964523283,-0.09754753467163378
14.61618625277162,-0.01698020979446758
14.649556541019956,0.06227952652092093
14.682926829268293,0.1448111392208006
14.71629711751663,0.23665176423953108
14.749667405764967,0.34222619620938116
14.783037694013304,0.46033409095167327
14.81640798226164,0.5811331251156274
14.849778270509978,0.6865092621811993
14.883148558758315,0.7548585149351582
14.916518847006651,0.768729258266348
14.949889135254988,0.7216924761891941
14.983259423503327,0.6207848159202558
15.016629711751664,0.4831333569013214
15.05,0.32858939311098484
15.083370288248338,0.17238787068020042
15.116740576496674,0.021687050922198768
15.150110864745011,-0.12253590650633703
15.183481152993348,-0.25990730312812654
15.216851441241685,-0.38512964134016353
15.250221729490022,-0.4860378664183395
15.283592017738359,-0.5465441454736916
15.316962305986696,-0.5529787483579881
15.350332594235034,-0.5006692127205932
15.383702882483371,-0.3978580688430946
15.417073170731708,-0.26566284039846216
15.450443458980045,-0.13438390658512128
15.483813747228382,-0.03712358284726348
15.517184035476719,-0.001594721306974833
15.550554323725056,-0.04115448235757802
15.583924611973393,-0.1471307533058371
15.61729490022173,-0.2858423096989934
15.650665188470066,-0.40384054399715713
15.684035476718403,-0.44261424483793277
15.71740576496674,-0.35962006187433515
15.750776053215079,-0.14809848355008282
15.784146341463416,0.15352393601790318
15.817516629711752,0.4690174524941314
15.85088691796009,0.7081736840621753
15.884257206208426,0.7990677742898602
15.917627494456763,0.715974950267733
15.9509977827051,0.49090043396693434
15.984368070953437,0.20295815986346905
16.017738359201775,-0.05098652023774998
16.05110864745011,-0.1929193368272186
16.08447893569845,-0.19265118935318873
16.117849223946784,-0.07723125248003286
16.151219512195123,0.08295081683626797
16.184589800443458,0.20516371681159745
16.217960088691797,0.22891021982767173
16.251330376940132,0.13925314842775502
16.28470066518847,-0.030574830960220345
16.31807095343681,-0.21720313327368818
16.351441241685144,-0.3564999484063789
16.384811529933483,-0.4104409805672043
16.418181818181818,-0.3797489813832926
16.451552106430157,-0.2980591133304039
16.48492239467849,-0.21222927815345485
16.51829268292683,-0.15926538945068028
16.551662971175165,-0.15065444899114322
16.585033259423504,-0.17019477054238794
16.61840354767184,-0.18458295340688124
16.651773835920178,-0.16054608654205066
16.685144124168513,-0.08042890196409914
16.71851441241685,0.0500032169267292
16.75188470066519,0.2037445469853063
16.785254988913525,0.34275743927775826
16.818625277161864,0.43156505436653825
16.8519955654102,0.449023521097117
16.885365853658538,0.39444180023971936
16.918736141906873,0.28671269769332924
16.95210643015521,0.15762748813119348
16.985476718403547,0.04212956842188041
17.018847006651885,-0.0314170575031446
17.05221729490022,-0.04848743593662441
17.08558758314856,-0.011701450559609522
17.118957871396898,0.06034306520200195
17.152328159645233,0.13831988580230142
17.18569844789357,0.19023280091262332
17.219068736141907,0.19028671183469203
17.252439024390245,0.126272813450671
17.28580931263858,0.0034577396968083238
