Frequency (Hz),Amplitude
0.0,34.91514926979929
0.019823788546255508,34.9128702046177
0.039647577092511016,34.90604103942339
0.059471365638766524,34.89468584611131
0.07929515418502203,34.878844680587115
0.09911894273127755,34.858573486669535
0.11894273127753305,34.83394396111887
0.13876651982378857,34.80504337936576
0.15859030837004406,34.771974381402806
0.17841409691629956,34.73485471720207
0.1982378854625551,34.69381695093051
0.2180616740088106,34.649008123159106
0.2378854625550661,34.60058937020252
0.25770925110132165,34.54873549968309
0.27753303964757714,34.493634521395194
0.29735682819383263,34.43548713254945
0.31718061674008813,34.37450615650996
0.3370044052863437,34.31091593420093
0.3568281938325991,34.244951667455815
0.37665198237885467,34.17685871371744
0.3964757709251102,34.10689183167034
0.41629955947136565,34.035314377604465
0.4361233480176212,33.962397452570066
0.4559471365638767,33.88841900069147
0.4757709251101322,33.8136628593644
0.49559471365638774,33.7384177624632
0.5154185022026433,33.662976298138425
0.5352422907488987,33.58763382328006
0.5550660792951543,33.51268733726238
0.5748898678414097,33.43843431816509
0.5947136563876653,33.36517152527351
0.6145374449339208,33.29319377229935
0.6343612334801763,33.222792676409384
0.6541850220264318,33.15425538880898
0.6740088105726874,33.08786331327034
0.6938325991189428,33.023890819624576
0.7136563876651982,32.96260395982241
0.7334801762114539,32.90425919470705
0.7533039647577093,32.84910214010862
0.7731277533039648,32.797366341254246
0.7929515418502204,32.74927208476819
0.8127753303964759,32.70502525770609
0.8325991189427313,32.664816263104576
0.8524229074889869,32.62881900143018
0.8722466960352424,32.59718992706627
0.8920704845814978,32.5700671885819
0.9118942731277534,32.54756986098057
0.931718061674009,32.529797277434504
0.9515418502202644,32.51682846717753
0.9713656387665199,32.508721705271306
0.9911894273127755,32.505514178884034
1.0110132158590308,32.50722177356235
1.0308370044052866,32.513838981736065
1.0506607929515421,32.52533893442011
1.0704845814977975,32.54167355577425
1.090308370044053,32.56277383888904
1.1101321585903086,32.58855023990754
1.1299559471365639,32.61889318639021
1.1497797356828194,32.65367369471315
1.1696035242290752,32.69274409027281
1.1894273127753305,32.73593882337881
1.209251101321586,32.78307537295244
1.2290748898678416,32.83395522953447
1.248898678414097,32.88836494863868
1.2687224669603525,32.94607726517011
1.288546255506608,33.00685225946103
1.3083700440528636,33.070438565450495
1.3281938325991192,33.13657461164273
1.3480176211453747,33.20498988570643
1.36784140969163,33.27540621391487
1.3876651982378856,33.347539047056095
1.4074889867841411,33.42109874494511
1.4273127753303965,33.49579185223826
1.4471365638766522,33.57132235885778
1.4669603524229078,33.64739293897141
1.4867841409691631,33.723706163127694
1.5066079295154187,33.79996567879641
1.5264317180616742,33.8758773552108
1.5462555066079295,33.95115038902797
1.5660792951541853,34.02549836791867
1.5859030837004409,34.09864028975591
1.6057268722466962,34.17030153558875
1.6255506607929517,34.240214795060666
1.6453744493392073,34.30812094335856
1.6651982378854626,34.373769869156654
1.6850220264317182,34.43692125334911
1.7048458149779737,34.497345298649485
1.7246696035242293,34.55482341037269
1.7444933920704848,34.60914882890697
1.7643171806167404,34.660127214539486
1.7841409691629957,34.707577185409725
1.8039647577092512,34.75133080944849
1.8237885462555068,34.79123405120127
1.8436123348017623,34.82714717445934
1.863436123348018,34.85894510160772
1.8832599118942732,34.88651773057115
1.9030837004405288,34.90977021018758
1.9229074889867843,34.92862317476759
1.9427312775330399,34.943012938517825
1.9625550660792954,34.95289165040765
1.982378854625551,34.95822740995303
2.002202643171806,34.95900434427868
2.0220264317180616,34.95522264669887
2.041850220264317,34.94689857693326
2.061674008810573,34.93406442294926
2.0814977973568287,34.91676842429857
2.1013215859030843,34.895074656689026
2.1211453744493394,34.86906287741608
2.140969162995595,34.838828331163995
2.1607929515418505,34.80448151558037
2.180616740088106,34.7661479059336
2.2004405286343616,34.72396763807933
2.220264317180617,34.678095148893966
2.2400881057268722,34.6286987732836
2.2599118942731278,34.57596029684593
2.2797356828193833,34.52007446325724
2.299559471365639,34.46124843547447
2.319383259911895,34.39970120989288
2.3392070484581504,34.33566298267955
2.3590308370044055,34.269374467620956
2.378854625550661,34.20108616497783
2.3986784140969166,34.13105758103665
2.418502202643172,34.05955639828836
2.4383259911894277,33.98685759645099
2.4581497797356833,33.91324252488595
2.4779735682819384,33.83899792734013
2.497797356828194,33.764414920375174
2.5176211453744495,33.68978792732127
2.537444933920705,33.61541357011366
2.5572687224669606,33.54158952193137
2.577092511013216,33.468613324152905
2.5969162995594717,33.39678117176934
2.6167400881057272,33.32638667203975
2.6365638766519828,33.25771958182792
2.6563876651982383,33.191064529712435
2.676211453744494,33.12669972959969
2.6960352422907494,33.064895693177434
2.715859030837005,33.00591394910956
2.73568281938326,32.95000577737527
2.7555066079295156,32.89741096758053
2.775330396475771,32.84835661040213
2.7951541850220267,32.803055931545856
2.8149779735682823,32.76170717770556
2.834801762114538,32.72449256397337
2.854625550660793,32.69157729197997
2.874449339207049,32.6631086477185
2.8942731277533045,32.639215187532166
2.91409691629956,32.62000602012231
2.9339207048458156,32.60557019166641
2.953744493392071,32.59597618023573
2.9735682819383262,32.591271504681124
2.993392070484582,32.59148245203383
3.0132158590308373,32.596613926264354
3.033039647577093,32.606649419981046
3.0528634361233484,32.621551109357405
3.072687224669604,32.64126007127586
3.092511013215859,32.66569662040021
3.1123348017621146,32.694760762655505
3.1321585903083706,32.72833276043474
3.151982378854626,32.76627380378648
3.1718061674008817,32.80842678088111
3.1916299559471373,32.854617140230964
3.2114537444933924,32.90465383644999
3.231277533039648,32.95833035080231
3.2511013215859035,33.015425777398825
3.270925110132159,33.07570596566255
3.2907488986784146,33.138924709591315
3.31057268722467,33.20482497438848
3.3303964757709252,33.27314015120557
3.350220264317181,33.34359533102561
3.3700440528634363,33.415908589101534
3.389867841409692,33.48979227183226
3.4096916299559474,33.56495427849831
3.4295154185022034,33.641099330865764
3.4493392070484585,33.71793022429329
3.469162995594714,33.79514905462245
3.4889867841409696,33.872458415785246
3.508810572687225,33.94956256371081
3.5286343612334807,34.02616854274572
3.5484581497797363,34.101987271410636
3.5682819383259914,34.1767345848905
3.588105726872247,34.2501322321934
3.6079295154185025,34.321908826405966
3.627753303964758,34.39180074692413
3.6475770925110136,34.459552992936075
3.667400881057269,34.5249199877912
3.6872246696035247,34.58766633419093
3.7070484581497802,34.64756752039889
3.726872246696036,34.704410577882186
3.7466960352422913,34.75799469096681
3.7665198237885464,34.80813175922358
3.7863436123348024,34.854646913398035
3.8061674008810575,34.897378985756674
3.8259911894273135,34.936180935757825
3.8458149779735686,34.970920231956214
3.8656387665198246,35.00147919103058
3.8854625550660797,35.02775527478418
3.905286343612335,35.049661345903296
3.925110132158591,35.06712588318708
3.9449339207048464,35.08009315686659
3.964757709251102,35.088523364535135
3.9845814977973575,35.09239272809735
4.004405286343612,35.09169355202952
4.024229074889869,35.08643424312219
4.044052863436123,35.0766392917505
4.06387665198238,35.062349214593034
4.083700440528634,35.04362045859567
4.103524229074891,35.02052526585558
4.123348017621146,34.993151498984204
4.143171806167401,34.961602426398485
4.162995594713657,34.92599646689021
4.182819383259912,34.88646689273454
4.2026431718061685,34.84316149052291
4.222466960352423,34.79624217884822
4.242290748898679,34.74588458193115
4.262114537444934,34.69227755825701
4.28193832599119,34.63562268330215
4.301762114537445,34.57613368546255
4.321585903083701,34.51403583436459
4.3414096916299565,34.44956528083707
4.361233480176212,34.382968347963626
4.381057268722468,34.31450077280784
4.400881057268723,34.24442689862951
4.420704845814979,34.17301881767024
4.440528634361234,34.10055546490168
4.46035242290749,34.027321663488515
4.4801762114537445,33.95360712312616
4.500000000000001,33.879705392866605
4.5198237885462555,33.805912770549796
4.539647577092512,33.732527171496116
4.559471365638767,33.65984695970083
4.579295154185023,33.58816974537943
4.599118942731278,33.51779115335338
4.618942731277533,33.4490035674127
4.63876651982379,33.38209485645003
4.658590308370044,33.317347088804404
4.678414096916301,33.25503524187795
4.6982378854625555,33.19542591467283
4.718061674008811,33.138776051430426
4.737885462555067,33.08533168501411
4.757709251101322,33.035326709057514
4.777533039647578,32.98898168817375
4.797356828193833,32.94650271568093
4.817180616740089,32.908080328333604
4.837004405286344,32.873888487439324
4.856828193832599,32.84408363549109
4.876651982378855,32.81880383704029
4.896475770925111,32.798168011984224
4.9162995594713665,32.78227526874292
4.936123348017622,32.77120434396039
4.955947136563877,32.76501315440451
4.975770925110133,32.76373846566115
4.995594713656388,32.767395681054225
5.015418502202644,32.775978752987854
5.035242290748899,32.78946021762494
5.055066079295155,32.80779135252132
5.07488986784141,32.83090245554138
5.094713656387666,32.85870324212809
5.114537444933921,32.8910833568024
5.134361233480177,32.92791299365574
5.154185022026432,32.96904361958913
5.174008810572688,33.01430879316399
5.193832599118943,33.06352507117544
5.213656387665199,33.116492994448464
5.2334801762114544,33.172998143894475
5.25330396475771,33.23281225755604
5.2731277533039655,33.29569439920194
5.292951541850221,33.36139216901353
5.312775330396477,33.42964294701262
5.332599118942731,33.50017516011119
5.352422907488988,33.57270956400148
5.372246696035242,33.64696053153071
5.392070484581499,33.722637339713955
5.4118942731277535,33.799445448096314
5.43171806167401,33.87708776178866
5.451541850220265,33.95526587313314
5.47136563876652,34.0336812766052
5.491189427312777,34.11203655221118
5.511013215859031,34.190036513277924
5.530837004405288,34.26738931515318
5.550660792951542,34.34380752192411
5.570484581497798,34.419009128819255
5.5903083700440535,34.49271853847168
5.610132158590309,34.56466748969386
5.6299559471365646,34.63459593783786
5.64977973568282,34.702252886191424
5.669603524229076,34.767397168189156
5.689427312775331,34.82979818050065
5.709251101321586,34.88923656729215
5.729074889867842,34.94550485615433
5.748898678414098,34.99840804633616
5.768722466960353,35.047764150045076
5.788546255506609,35.093404687646
5.808370044052864,35.13517513764329
5.82819383259912,35.172935342344275
5.848017621145375,35.20655987009738
5.867841409691631,35.23593833496346
5.887665198237886,35.26097567463132
5.907488986784142,35.28159238731652
5.927312775330397,35.29772472830137
5.9471365638766525,35.30932486667705
5.966960352422908,35.31636100274383
5.986784140969164,35.31881744641162
6.00660792951542,35.31669465682332
6.026431718061675,35.31000924330175
6.04625550660793,35.29879392759513
6.066079295154186,35.28309746727136
6.085903083700441,35.26298453999059
6.105726872246697,35.23853558826509
6.125550660792952,35.20984662420411
6.145374449339208,35.177028993637485
6.1651982378854635,35.14020909891802
6.185022026431718,35.09952807962012
6.204845814977975,35.055141450289064
6.224669603524229,35.007218694344715
6.244493392070486,34.95594281321771
6.264317180616741,34.901509829792
6.284140969162996,34.84412824524926
6.303964757709252,34.78401844846496
6.323788546255507,34.72141207718827
6.3436123348017635,34.656551330361346
6.363436123348018,34.5896882310903
6.3832599118942746,34.52108383998378
6.403083700440529,34.451007418817454
6.422907488986785,34.37973554477512
6.44273127753304,34.30755117585453
6.462555066079296,34.23474266841103
6.482378854625551,34.161602748247674
6.502202643171807,34.088427437137916
6.5220264317180625,34.01551493719253
6.541850220264318,33.943164476044856
6.561674008810574,33.871675116427326
6.581497797356829,33.80134453433764
6.601321585903085,33.732467770637726
6.62114537444934,33.66533596158219
6.640969162995596,33.60023505442536
6.6607929515418505,33.53744451488681
6.680616740088107,33.47723603386448
6.700440528634362,33.41987224133777
6.720264317180618,33.36560543590281
6.740088105726873,33.31467633879752
6.759911894273129,33.267312881600056
6.779735682819384,33.2237290369985
6.799559471365639,33.184123702122385
6.819383259911895,33.1486796438872
6.83920704845815,33.11756251561924
6.859030837004407,33.090919953896105
6.8788546255506615,33.068880764058605
6.898678414096917,33.05155420221952
6.918502202643173,33.03902936082198
6.938325991189428,33.03137466389824
6.958149779735684,33.02863747715404
6.977973568281939,33.0308438368842
6.997797356828195,33.03799830051874
7.01762114537445,33.05008392034192
7.037444933920705,33.0670623406355
7.0572687224669615,33.08887401720287
7.077092511013216,33.115438556956455
7.096916299559473,33.146655174027536
7.116740088105728,33.182403257701345
7.136563876651983,33.22254304642108
7.156387665198239,33.266916401157076
7.176211453744494,33.315347670615026
7.19603524229075,33.36764464007826
7.215859030837005,33.42359955514192
7.235682819383261,33.482990211211735
7.255506607929516,33.54558109940532
7.275330396475772,33.61112459939834
7.295154185022027,33.67936220980447
7.314977973568283,33.75002580684828
7.334801762114538,33.82283892237323
7.354625550660794,33.89751803260946
7.374449339207049,33.97377384959482
7.394273127753305,34.05131260767244
7.4140969162995605,34.12983733807641
7.433920704845816,34.20904912523682
7.453744493392072,34.28864833907709
7.473568281938327,34.36833583822713
7.493392070484583,34.44781413971828
7.513215859030838,34.5267885513594
7.533039647577093,34.60496826359221
7.552863436123348,34.68206739820337
7.572687224669605,34.75780601179933
7.59251101321586,34.831911052447296
7.612334801762115,34.90411726832926
7.6321585903083715,34.97416806765899
7.651982378854627,35.0418163294628
7.671806167400882,35.10682516513064
7.691629955947137,35.16896863090384
7.711453744493394,35.228032391680216
7.731277533039649,35.28381433668989
7.751101321585904,35.33612514772905
7.7709251101321595,35.38478882073486
7.790748898678416,35.42964314154806
7.81057268722467,35.47054011674299
7.830396475770926,35.507346360407475
7.850220264317182,35.53994343773977
7.870044052863436,35.56822816628396
7.889867841409693,35.592112875569924
7.909691629955948,35.611525625845104
7.929515418502204,35.62641038649872
7.9493392070484585,35.63672717467609
7.969162995594715,35.64245215447418
7.9889867841409705,35.64357769699142
8.008810572687224,35.64011240138502
8.02863436123348,35.63208107696577
8.048458149779737,35.61952468623592
8.068281938325994,35.60250024865239
8.088105726872246,35.5810807047782
8.107929515418503,35.55535474037079
8.12775330396476,35.52542656984683
8.147577092511014,35.49141567846646
8.167400881057269,35.453456522493454
8.187224669603525,35.411698186514094
8.207048458149782,35.36630399704355
8.226872246696036,35.31745109151104
8.246696035242293,35.26532994170158
8.266519823788547,35.21014383074283
8.286343612334802,35.15210828276501
8.306167400881058,35.091450444431956
8.325991189427315,35.028408417646965
8.345814977973568,34.96323054287824
8.365638766519824,34.89617463273279
8.38546255506608,34.827507155630805
8.405286343612337,34.7575023697048
8.42511013215859,34.6864414073629
8.444933920704846,34.61461131132022
8.464757709251103,34.54230402331554
8.484581497797357,34.46981532718725
8.504405286343614,34.39744374848784
8.524229074889869,34.32548941336094
8.544052863436125,34.25425286998726
8.56387665198238,34.184033876519116
8.583700440528636,34.11513016005895
8.60352422907489,34.047836151886955
8.623348017621145,33.98244170479533
8.643171806167402,33.91923079902769
8.662995594713658,33.85848024394211
8.682819383259913,33.80045838309429
8.702643171806168,33.745423810962784
8.722466960352424,33.693624109993515
8.74229074889868,33.64529461700807
8.762114537444935,33.60065722828756
8.78193832599119,33.559919252794195
8.801762114537446,33.52327232301491
8.821585903083701,33.49089137279769
8.841409691629957,33.46293369128771
8.861233480176212,33.43953806166393
8.881057268722468,33.420823992816246
8.900881057268723,33.406891051400066
8.92070484581498,33.39781830086632
8.940528634361234,33.39366385309697
8.960352422907489,33.39446453720463
8.980176211453745,33.40023568888871
9.000000000000002,33.410971062510356
9.019823788546258,33.42664286677257
9.039647577092511,33.44720192360054
9.059471365638768,33.47257794853343
9.079295154185024,33.50267994969011
9.099118942731279,33.53739674118316
9.118942731277533,33.576597565749
9.13876651982379,33.620132820359274
9.158590308370046,33.667834877694474
9.1784140969163,33.719518995611466
9.198237885462555,33.77498430612865
9.218061674008812,33.834014874991205
9.237885462555067,33.89638082256939
9.257709251101323,33.96183949667591
9.27753303964758,34.030136687865145
9.297356828193834,34.10100787788165
9.317180616740089,34.1741795121525
9.337004405286345,34.24937028754897
9.356828193832602,34.3262924470658
9.376651982378855,34.40465307356498
9.396475770925111,34.48415537528785
9.416299559471367,34.56449995644149
9.436123348017622,34.64538606679349
9.455947136563877,34.72651282485552
9.475770925110133,34.807580409879485
9.49559471365639,34.88829121852801
9.515418502202644,34.96835098269506
9.5352422907489,35.04746984554128
9.555066079295155,35.12536339336315
9.57488986784141,35.201753641425235
9.594713656387666,35.27636997235763
9.614537444933923,35.34895002614333
9.634361233480178,35.41924054109641
9.654185022026432,35.48699814556284
9.674008810572689,35.55199010035738
9.693832599118945,35.61399499218869
9.713656387665198,35.67280337851864
9.733480176211454,35.72821838445701
9.75330396475771,35.78005625240684
9.773127753303967,35.828146845257976
9.792951541850222,35.872334103974715
9.812775330396477,35.91247646044267
9.832599118942733,35.948447206434004
9.852422907488988,35.98013481952164
9.872246696035244,36.00744324672193
9.892070484581499,36.03029214658088
9.911894273127754,36.04861709033435
9.93171806167401,36.0623697226821
9.951541850220266,36.07151788260782
9.971365638766521,36.07604568456885
9.991189427312776,36.07595356025884
10.011013215859032,36.071258261026934
10.030837004405289,36.06199282091398
10.050660792951543,36.04820648014219
10.070484581497798,36.02996456877566
10.090308370044054,36.007348350151986
10.11013215859031,35.980454823575435
10.129955947136565,35.94939648566012
10.14977973568282,35.91430104962047
10.169603524229077,35.87531112173012
10.189427312775331,35.8325838341043
10.209251101321588,35.786290432920104
10.229074889867842,35.73661582116397
10.248898678414099,35.68375805499532
10.268722466960353,35.627927792844915
10.28854625550661,35.56934769642143
10.308370044052865,35.508251782891044
10.32819383259912,35.444884727621194
10.348017621145376,35.3795011170434
10.367841409691632,35.31236465139818
10.387665198237887,35.24374729737416
10.407488986784141,35.17392839095047
10.427312775330398,35.10319369109425
10.447136563876654,35.03183438535543
10.466960352422909,34.960146048839455
10.486784140969164,34.88842755852085
10.50660792951542,34.81697996538756
10.526431718061675,34.7461053274707
10.546255506607931,34.67610550741278
10.566079295154186,34.60728093885342
10.585903083700442,34.53992936655185
10.605726872246697,34.4743445658188
10.625550660792953,34.410815047472376
10.645374449339208,34.349622755164305
10.665198237885463,34.291041762516436
10.685022026431719,34.23533697805866
10.704845814977975,34.18276286644434
10.724669603524232,34.13356219482801
10.744493392070485,34.0879648136027
10.764317180616741,34.04618648089941
10.784140969162998,34.008427740332415
10.803964757709252,33.974872861425
10.823788546255507,33.945688851957975
