Frequency (Hz),Amplitude
0.0,4.586654356299873
0.019867549668874173,4.586947044440514
0.039735099337748346,4.5878238487708405
0.059602649006622516,4.589280995920294
0.07947019867549669,4.591312219885248
0.09933774834437085,4.593908796219522
0.11920529801324503,4.597059589444291
0.13907284768211922,4.600751113230934
0.15894039735099338,4.604967602796653
0.17880794701986755,4.609691098849587
0.1986754966887417,4.614901542328163
0.2185430463576159,4.620576879100552
0.23841059602649006,4.626693173725129
0.2582781456953642,4.633224731322326
0.27814569536423844,4.6401442265718735
0.2980132450331126,4.647422838828102
0.31788079470198677,4.655030392338056
0.33774834437086093,4.662935500552975
0.3576158940397351,4.671105713540821
0.3774834437086093,4.679507667536885
0.3973509933774834,4.688107235707093
0.4172185430463576,4.696869679245594
0.4370860927152318,4.705759797981051
0.45695364238410596,4.7147420797244965
0.4768211920529801,4.723780847653575
0.49668874172185434,4.732840405092674
0.5165562913907285,4.741885177113304
0.5364238410596026,4.750879848445099
0.5562913907284769,4.759789497251231
0.5761589403973509,4.768579724384597
0.5960264900662252,4.777216777799924
0.6158940397350993,4.785667671852875
0.6357615894039735,4.79390030126896
0.6556291390728477,4.801883549612483
0.6754966887417219,4.809587392128829
0.695364238410596,4.8169829928717895
0.7152317880794702,4.824042796061073
0.7350993377483444,4.830740611644552
0.7549668874172186,4.837051695064443
0.7748344370860927,4.842952821246439
0.7947019867549668,4.848422352847805
0.8145695364238411,4.853440302812184
0.8344370860927152,4.857988391288355
0.8543046357615894,4.862050096975186
0.8741721854304636,4.865610702958254
0.8940397350993378,4.868657337103232
0.9139072847682119,4.87117900706891
0.9337748344370861,4.873166629998504
0.9536423841059603,4.874613056941293
0.9735099337748344,4.8755130920494585
0.9933774834437087,4.875863506585867
1.0132450331125828,4.875663047768692
1.033112582781457,4.874912442468408
1.0529801324503312,4.873614395761874
1.0728476821192052,4.871773584336643
1.0927152317880795,4.8693966447283366
1.1125827814569538,4.866492156362688
1.1324503311258278,4.863070619363984
1.1523178807947019,4.859144427082454
1.1721854304635762,4.854727833284974
1.1920529801324504,4.849836913946766
1.2119205298013245,4.844489523576684
1.2317880794701985,4.838705246005859
1.2516556291390728,4.8325053395684225
1.271523178807947,4.8259126766049105
1.2913907284768211,4.818951677223969
1.3112582781456954,4.81164823726539
1.3311258278145695,4.804029650419285
1.3509933774834437,4.7961245244714075
1.370860927152318,4.787962691663758
1.390728476821192,4.779575113183259
1.410596026490066,4.77099377781968
1.4304635761589404,4.762251594866192
1.4503311258278146,4.753382281374146
1.4701986754966887,4.744420243915368
1.4900662251655628,4.735400455052618
1.5099337748344372,4.726358324770028
1.5298013245033113,4.71732956717119
1.5496688741721854,4.708350062811619
1.5695364238410596,4.699455717095059
1.5894039735099337,4.6906823152279005
1.609271523178808,4.682065374292437
1.6291390728476822,4.673639993066789
1.6490066225165563,4.665440700285557
1.6688741721854303,4.65750130209989
1.6887417218543048,4.649854729556549
1.7086092715231789,4.642532886972251
1.728476821192053,4.635566502129101
1.7483443708609272,4.628984979259427
1.7682119205298013,4.622816255821086
1.7880794701986755,4.617086664085939
1.8079470198675496,4.611820798574612
1.8278145695364238,4.607041390366864
1.847682119205298,4.60276918929998
1.8675496688741722,4.5990228550352485
1.8874172185430464,4.59581885792614
1.9072847682119205,4.5931713905596006
1.9271523178807946,4.591092290766376
1.9470198675496688,4.589590976806158
1.9668874172185429,4.588674395331861
1.9867549668874174,4.588346982624285
2.0066225165562916,4.588610639467099
2.0264900662251657,4.5894647199034395
2.0463576158940397,4.590906033982491
2.066225165562914,4.5929288644699655
2.086092715231788,4.595524997361385
2.1059602649006623,4.598683765906443
2.1258278145695364,4.602392107726402
2.1456953642384105,4.606634634488616
2.165562913907285,4.6113937134938485
2.185430463576159,4.616649560435026
2.205298013245033,4.6223803425021455
2.2251655629139075,4.628562290937918
2.2450331125827816,4.635169822092954
2.2649006622516556,4.642175665988952
2.2847682119205297,4.649551001372188
2.3046357615894038,4.6572655962282425
2.324503311258278,4.665287952731066
2.3443708609271523,4.6735854556144805
2.364238410596027,4.682124522980487
2.384105960264901,4.690870758595594
2.403973509933775,4.699789104771462
2.423841059602649,4.708843994979018
2.443708609271523,4.717999505403036
2.463576158940397,4.727219504706905
2.4834437086092715,4.736467801342055
2.5033112582781456,4.745708287803181
2.52317880794702,4.754905081296772
2.543046357615894,4.764022660356179
2.562913907284768,4.7730259970000715
2.5827814569536423,4.781880684091756
2.6026490066225163,4.790553057614941
2.622516556291391,4.799010313634275
2.642384105960265,4.807220619759019
2.662251655629139,4.815153220972327
2.6821192052980134,4.822778539729016
2.7019867549668874,4.830068270259502
2.7218543046357615,4.8369954670486255
2.741721854304636,4.843534627483387
2.76158940397351,4.849661768685691
2.781456953642384,4.855354498562929
2.801324503311258,4.8605920811227925
2.821192052980132,4.865355496108439
2.8410596026490067,4.8696274930158125
2.8609271523178808,4.873392639558695
2.8807947019867552,4.876637364646809
2.9006622516556293,4.8793499959405455
2.9205298013245033,4.88152079204124
2.9403973509933774,4.883141969369863
2.9602649006622515,4.884207723779212
2.9801324503311255,4.884714246935268
3.0,4.884659737493531
3.0198675496688745,4.884044407084924
3.0397350993377485,4.882870481114396
3.0596026490066226,4.881142194363708
3.0794701986754967,4.878865781377915
3.0993377483443707,4.876049461603672
3.119205298013245,4.8727034192363785
3.1390728476821192,4.86883977772297
3.1589403973509933,4.864472568858001
3.1788079470198674,4.859617696402645
3.198675496688742,4.854292894150133
3.218543046357616,4.8485176783568935
3.23841059602649,4.842313294456343
3.2582781456953644,4.835702657973092
3.2781456953642385,4.828710289558388
3.2980132450331126,4.821362244074753
3.3178807947019866,4.813686033667209
3.3377483443708607,4.805710544773367
3.3576158940397347,4.797465949042464
3.3774834437086096,4.788983608156011
3.3973509933774837,4.780295972570687
3.4172185430463577,4.771436474235915
3.437086092715232,4.762439413376247
3.456953642384106,4.753339839470994
3.47682119205298,4.744173426611096
3.4966887417218544,4.734976343465705
3.5165562913907285,4.725785118147809
3.5364238410596025,4.716636498329744
3.556291390728477,4.707567307024411
3.576158940397351,4.69861429451573
3.596026490066225,4.689813986992251
3.615894039735099,4.6812025325089115
3.6357615894039736,4.67281554497298
3.6556291390728477,4.66468794691988
3.6754966887417218,4.6568538119114535
3.695364238410596,4.649346207451524
3.7152317880794703,4.642197039369724
3.7350993377483444,4.635436898673324
3.754966887417219,4.629094911905896
3.774834437086093,4.623198596079553
3.794701986754967,4.617773719263846
3.814569536423841,4.612844167916159
3.834437086092715,4.608431822025905
3.854304635761589,4.6045564391171325
3.8741721854304636,4.601235548109938
3.8940397350993377,4.59848435398146
3.9139072847682117,4.5963156540919945
3.9337748344370858,4.5947397669515295
3.9536423841059607,4.593764474098149
3.9735099337748347,4.593394975644275
3.993377483443709,4.593633859920218
4.013245033112583,4.594481087511001
4.033112582781457,4.595933989842567
4.052980132450331,4.597987282331328
4.072847682119205,4.600633091968325
4.0927152317880795,4.6038609990692825
4.112582781456953,4.607658092787037
4.132450331125828,4.612009039855392
4.152317880794702,4.616896165916308
4.172185430463576,4.622299548676903
4.19205298013245,4.628197122050228
4.211920529801325,4.634564790356688
4.231788079470199,4.641376551600964
4.251655629139073,4.648604628792614
4.271523178807947,4.656219608248853
4.291390728476821,4.664190583802389
4.311258278145695,4.672485305837687
4.33112582781457,4.6810703340921
4.3509933774834435,4.689911193184843
4.370860927152318,4.698972529873705
4.390728476821192,4.708218271086342
4.410596026490066,4.717611781827633
4.43046357615894,4.727116022125304
4.450331125827815,4.736693702241949
4.470198675496689,4.7463074354498485
4.490066225165563,4.755919887735545
4.509933774834438,4.765493923871145
4.529801324503311,4.774992749359675
4.549668874172186,4.784380047828341
4.569536423841059,4.793620113509454
4.589403973509934,4.80267797850872
4.6092715231788075,4.811519534618638
4.629139072847682,4.820111649486391
4.649006622516556,4.8284222769935745
4.66887417218543,4.836420561747579
4.688741721854305,4.844076937621753
4.708609271523179,4.85136322031412
4.728476821192054,4.858252693921753
4.748344370860927,4.864720191550847
4.768211920529802,4.8707421700006925
4.788079470198675,4.8762967785737725
4.80794701986755,4.881363922074433
4.827814569536423,4.885925318064811
4.847682119205298,4.889964548450127
4.867549668874172,4.8934671054651915
4.887417218543046,4.896420432132072
4.9072847682119205,4.898813957253133
4.927152317880794,4.900639124997703
4.947019867549669,4.901889419131212
4.966887417218543,4.902560381925892
4.986754966887418,4.902649627780865
5.006622516556291,4.902156851566915
5.026490066225166,4.901083831699062
5.04635761589404,4.899434427926014
5.066225165562914,4.897214573813152
5.086092715231788,4.894432263881892
5.105960264900662,4.891097535355922
5.125827814569536,4.8872224444526635
5.14569536423841,4.882821037147293
5.1655629139072845,4.8779093143269785
5.185430463576159,4.8725051912447075
5.205298013245033,4.866628451175882
5.225165562913908,4.86030069317698
5.245033112582782,4.853545273843853
5.264900662251656,4.846387242969105
5.28476821192053,4.83885327300283
5.304635761589404,4.830971582229155
5.324503311258278,4.822771851584304
5.344370860927152,4.814285135058445
5.364238410596027,4.805543763645551
5.3841059602649,4.796581242832543
5.403973509933775,4.787432143650864
5.4238410596026485,4.7781319873517365
5.443708609271523,4.768717123809351
5.463576158940397,4.759224603805564
5.483443708609272,4.7496920454042
5.503311258278146,4.740157494683086
5.52317880794702,4.730659281157033
5.543046357615895,4.721235868294501
5.562913907284768,4.711925699603958
5.582781456953643,4.702767040842717
5.602649006622516,4.693797818978515
5.622516556291391,4.685055458613699
5.642384105960264,4.676576716659329
5.662251655629139,4.668397516123021
5.682119205298013,4.660552779944884
5.701986754966887,4.653076265883167
5.7218543046357615,4.646000403508025
5.741721854304636,4.639356134411074
5.7615894039735105,4.63317275677519
5.781456953642384,4.62747777547317
5.801324503311259,4.622296758872652
5.821192052980132,4.617653203518599
5.841059602649007,4.613568407840792
5.860927152317881,4.610061355992458
5.880794701986755,4.60714861286727
5.900662251655629,4.604844231265854
5.920529801324503,4.603159672088817
5.940397350993377,4.602103738325042
5.960264900662251,4.6016825234802265
5.980132450331126,4.6018993749561306
6.0,4.602754872745285
6.0198675496688745,4.604246823655053
6.039735099337749,4.606370271118517
6.059602649006623,4.60911752049286
6.079470198675497,4.612478179591655
6.099337748344371,4.616439214047044
6.119205298013245,4.620985016956792
6.139072847682119,4.626097492139553
6.158940397350993,4.631756150203149
6.178807947019867,4.637938216527443
6.198675496688741,4.6446187501749145
6.218543046357616,4.651770772672071
6.23841059602649,4.659365405551577
6.258278145695365,4.66737201550945
6.2781456953642385,4.675758366013941
6.298013245033113,4.684490774201093
6.317880794701987,4.6935342719056194
6.337748344370861,4.70285276970406
6.357615894039735,4.712409222887363
6.377483443708609,4.72216579833117
6.397350993377484,4.732084041292293
6.417218543046357,4.742125041226509
6.437086092715232,4.752249595795351
6.456953642384105,4.762418372305057
6.47682119205298,4.772592065897893
6.496688741721854,4.782731553894483
6.516556291390729,4.792798045761293
6.5364238410596025,4.80275322825247
6.556291390728477,4.812559405345962
6.5761589403973515,4.822179632660822
6.596026490066225,4.831577846104894
6.6158940397351,4.840718984559468
6.635761589403973,4.84956910645903
6.655629139072848,4.8580955001702515
6.675496688741721,4.866266788115509
6.695364238410596,4.874053024620327
6.715231788079469,4.881425787494133
6.735099337748344,4.888358263378006
6.754966887417219,4.89482532691191
6.774834437086093,4.900803613789105
6.794701986754967,4.906271587775204
6.814569536423841,4.911209601776175
6.8344370860927155,4.915599953041617
6.854304635761589,4.919426932589767
6.874172185430464,4.92267686893669
6.894039735099337,4.9253381662061
6.913907284768212,4.927401336688249
6.933774834437086,4.928859027905726
6.95364238410596,4.929706044232322
6.973509933774834,4.929939363097981
6.993377483443709,4.929558145798522
7.013245033112583,4.928563742914114
7.033112582781457,4.926959694324556
7.052980132450331,4.924751723794505
7.072847682119205,4.9219477280852955
7.0927152317880795,4.91855776053563
7.112582781456954,4.914594009037981
7.132450331125828,4.910070768324413
7.152317880794702,4.9050044064626785
7.172185430463576,4.899413325452588
7.19205298013245,4.8933179158036895
7.211920529801324,4.886740504968322
7.231788079470198,4.879705299500114
7.251655629139073,4.872238320806919
7.271523178807947,4.8643673343694305
7.291390728476822,4.856121772303174
7.311258278145695,4.847532649152116
7.33112582781457,4.838632470817614
7.3509933774834435,4.829455136546855
7.370860927152318,4.820035833931456
7.390728476821192,4.8104109268986575
7.410596026490066,4.800617836716157
7.430463576158941,4.79069491607648
7.450331125827814,4.780681316378008
7.470198675496689,4.770616848378047
7.490066225165562,4.760541836457679
7.509933774834438,4.750496966808874
7.52980132450331,4.740523129930675
7.549668874172186,4.730661257902795
7.569536423841059,4.720952156990377
7.589403973509934,4.711436336222401
7.6092715231788075,4.702153832676646
7.629139072847682,4.693144034294238
7.649006622516557,4.6844455011362145
7.66887417218543,4.676095786079546
7.6887417218543055,4.668131256029895
7.708609271523178,4.660586914800409
7.728476821192054,4.6534962288678186
7.748344370860927,4.646890957266737
7.768211920529802,4.640800986918465
7.788079470198675,4.635254174709914
7.80794701986755,4.630276197639421
7.827814569536423,4.6258904123279585
7.847682119205298,4.622117725156659
7.8675496688741715,4.6189764742318395
7.887417218543046,4.616482324300157
7.907284768211921,4.61464817563626
7.927152317880795,4.613484087807763
7.9470198675496695,4.612997219086536
7.966887417218543,4.613191782125545
7.986754966887418,4.614069016358055
8.006622516556291,4.615627177404802
8.026490066225167,4.617861543598215
8.046357615894038,4.620764439553427
8.066225165562914,4.6243252765392535
8.086092715231787,4.62853060922977
8.105960264900663,4.633364208254155
8.125827814569536,4.638807147810592
8.14569536423841,4.644837907473166
8.165562913907285,4.651432487200056
8.185430463576159,4.65856453444992
8.205298013245034,4.666205482230963
8.225165562913906,4.67432469684604
8.245033112582782,4.682889634055742
8.264900662251655,4.691866002360859
8.28476821192053,4.701217932103594
8.304635761589404,4.7109081491036315
8.324503311258278,4.7208981515771935
8.344370860927151,4.7311483891349155
8.364238410596027,4.741618442712852
8.3841059602649,4.752267204361295
8.403973509933774,4.7630530558929065
8.42384105960265,4.773934045475112
8.443708609271523,4.784868061338855
8.463576158940398,4.795813001864208
8.483443708609272,4.806726941392379
8.503311258278146,4.817568291200771
8.52317880794702,4.828295955162295
8.543046357615895,4.838869479690186
8.562913907284768,4.849249197645548
8.582781456953642,4.859396365954436
8.602649006622515,4.869273296745303
8.62251655629139,4.878843481875146
8.642384105960264,4.888071710763607
8.66225165562914,4.8969241814988145
8.682119205298013,4.905368605216589
8.701986754966887,4.913374303786625
8.721854304635762,4.9209123008649005
8.741721854304636,4.9279554063917415
8.76158940397351,4.934478294630049
8.781456953642383,4.940457575848079
8.801324503311259,4.945871861756828
8.821192052980132,4.950701824813699
8.841059602649008,4.954930251502113
8.86092715231788,4.958542089691207
8.880794701986755,4.961524490172049
8.90066225165563,4.963866842455739
8.920529801324504,4.965560804906591
8.940397350993377,4.966600329268421
8.960264900662251,4.96698167962662
8.980132450331126,4.966703445831056
9.0,4.9657665513869995
9.019867549668875,4.9641742558024005
9.039735099337747,4.961932151361195
9.059602649006623,4.959048154272537
9.079470198675496,4.955532490127984
9.099337748344372,4.9513976735791925
9.119205298013245,4.946658482132201
9.139072847682119,4.941331923937291
9.158940397350994,4.9354371994389545
9.178807947019868,4.928995656737277
9.198675496688743,4.922030740501485
9.218543046357615,4.914567934268435
9.23841059602649,4.906634695953722
9.258278145695364,4.898260386402367
9.27814569536424,4.889476190808485
9.298013245033111,4.880315032841538
9.317880794701987,4.870811481329278
9.33774834437086,4.8610016493664014
9.357615894039736,4.85092308574288
9.37748344370861,4.840614658617434
9.397350993377483,4.830116431400978
9.417218543046358,4.819469530861081
9.437086092715232,4.808716007513052
9.456953642384107,4.797898688425587
9.47682119205298,4.787061022639645
9.496688741721854,4.77624691947687
9.516556291390728,4.765500580100377
9.536423841059603,4.754866322782385
9.556291390728477,4.744388402432275
9.57615894039735,4.7341108250413555
9.596026490066224,4.724077157807417
9.6158940397351,4.714330335809875
9.635761589403973,4.704912466214398
9.655629139072847,4.695864631090352
9.675496688741722,4.687226690024651
9.695364238410596,4.679037083807144
9.715231788079471,4.671332640544465
9.735099337748345,4.664148385627172
9.754966887417218,4.657517357027136
9.774834437086092,4.651470427435785
9.794701986754967,4.646036134766493
9.814569536423841,4.641240522534492
9.834437086092716,4.63710699159389
9.854304635761588,4.633656164652189
9.874172185430464,4.630905764898915
9.894039735099337,4.6288705099763074
9.913907284768213,4.6275620223877
9.933774834437086,4.626988757286034
9.95364238410596,4.627155948412173
9.973509933774835,4.628065572764388
9.993377483443709,4.6297163343807615
10.013245033112582,4.632103667407487
10.033112582781456,4.635219758415493
10.052980132450331,4.639053587716713
10.072847682119205,4.643590989227296
10.09271523178808,4.648814728229761
10.112582781456952,4.654704596205266
10.132450331125828,4.661237521743268
10.152317880794701,4.6683876963924185
10.172185430463577,4.676126714195188
10.192052980132452,4.684423723551539
10.211920529801324,4.693245589984606
10.2317880794702,4.702557068333685
10.251655629139073,4.712320982876818
10.271523178807948,4.722498413885281
10.29139072847682,4.733048889133942
10.311258278145695,4.74393057893309
10.331125827814569,4.755100493305044
10.350993377483444,4.76651468000266
10.370860927152318,4.77812842215086
10.390728476821192,4.7898964343869705
10.410596026490065,4.8017730564754135
10.43046357615894,4.8137124434768905
10.450331125827816,4.8256687516580365
10.470198675496688,4.837596319432601
10.490066225165563,4.84944984272835
10.509933774834437,4.861184544272539
10.529801324503312,4.8727563363827455
10.549668874172186,4.884121976936965
10.56953642384106,4.8952392182775535
10.589403973509933,4.906066948876097
10.609271523178808,4.916565327651666
10.629139072847682,4.92669591089179
10.649006622516556,4.936421771774806
10.66887417218543,4.945707612533936
10.688741721854305,4.95451986933746
10.70860927152318,4.962826809986859
10.728476821192054,4.970598624555334
10.748344370860927,4.977807509103947
10.7682119205298,4.9844277426214845
10.788079470198676,4.990435757338714
10.80794701986755,4.9958102025665525
10.827814569536423,5.0005320022037765
10.847682119205297,5.004584406051474
10.867549668874172,5.007953035060149
10.887417218543046,5.010625920621651
10.907284768211921,5.012593538001393
