Time (s),Filtered Signal
0.0,0.023250744912954327
0.033370165745856356,-0.5320543093786891
0.06674033149171271,-0.985514475850541
0.10011049723756907,-1.25872484002842
0.13348066298342542,-1.3153503946126615
0.16685082872928178,-1.169610515776567
0.20022099447513814,-0.8809017962341655
0.2335911602209945,-0.5345970635945545
0.26696132596685085,-0.21469513369681
0.30033149171270723,0.021585086075062074
0.33370165745856356,0.15712537598219728
0.3670718232044199,0.21119699069317363
0.4004419889502763,0.22180987149657627
0.43381215469613266,0.22372633156957933
0.467182320441989,0.23308186005638948
0.5005524861878453,0.245093962227023
0.5339226519337017,0.24381636880058513
0.5672928176795581,0.21665396302237974
0.6006629834254145,0.16471623045216272
0.6340331491712707,0.10353726251499448
0.6674033149171271,0.05482640187236402
0.7007734806629835,0.03501318545499126
0.7341436464088398,0.0475690332434003
0.7675138121546962,0.08306475200225566
0.8008839779005525,0.12586984602479562
0.8342541436464089,0.16259637995863035
0.8676243093922653,0.1870442994104362
0.9009944751381216,0.19934228648568414
0.934364640883978,0.20100253025241238
0.9677348066298344,0.19010242941894032
1.0011049723756906,0.16036103625190065
1.0344751381215471,0.10497938599655487
1.0678453038674034,0.022697642548964773
1.1012154696132597,-0.07822285632620915
1.1345856353591162,-0.1813133661019174
1.1679558011049724,-0.26844835687069685
1.201325966850829,-0.3281182885755701
1.2346961325966852,-0.3604989200726613
1.2680662983425415,-0.3760255771185084
1.301436464088398,-0.38796676089728266
1.3348066298342542,-0.4031639133285049
1.3681767955801105,-0.4164129569639394
1.401546961325967,-0.4120444633175059
1.4349171270718233,-0.37215411931880354
1.4682872928176796,-0.2869922381938955
1.501657458563536,-0.1615648049915064
1.5350276243093923,-0.01448955851058504
1.5683977900552488,0.1304473435812013
1.601767955801105,0.25531594814956576
1.6351381215469614,0.3553626231691264
1.6685082872928179,0.43846744405936633
1.7018784530386741,0.5171378139899167
1.7352486187845306,0.5977125608190028
1.768618784530387,0.6730100240629692
1.8019889502762432,0.7227487808761581
1.8353591160220997,0.7218806157916717
1.868729281767956,0.6527755865382605
1.9020994475138122,0.5151255642229872
1.9354696132596687,0.3284917583319346
1.968839779005525,0.12606233806801598
2.0022099447513813,-0.05744269334757926
2.0355801104972375,-0.1979504357494483
2.0689502762430942,-0.2887444484583541
2.1023204419889505,-0.3392661715414117
2.135690607734807,-0.3677650087413557
2.169060773480663,-0.3923706814429614
2.2024309392265193,-0.4250489408600123
2.235801104972376,-0.47023563179622985
2.2691712707182323,-0.5267342804417854
2.3025414364640886,-0.5899036241229253
2.335911602209945,-0.6520971177788655
2.369281767955801,-0.7017385420585961
2.402651933701658,-0.7233044681677648
2.436022099447514,-0.7003021144632356
2.4693922651933704,-0.621133770862633
2.5027624309392267,-0.48512854895042995
2.536132596685083,-0.3050088966126845
2.5695027624309392,-0.10359888031456482
2.602872928176796,0.09416839746205223
2.636243093922652,0.2700210561813943
2.6696132596685085,0.41738347318026703
2.7029834254143648,0.5402396385075293
2.736353591160221,0.6468175551247763
2.7697237569060777,0.7418208303921814
2.803093922651934,0.8215239398000685
2.8364640883977903,0.8743832798616138
2.8698342541436466,0.8869123221447408
2.903204419889503,0.851838682554771
2.936574585635359,0.7741765272689038
2.969944751381216,0.6714312965578028
3.003314917127072,0.5666500040420052
3.0366850828729284,0.4766207855817935
3.0700552486187846,0.40068554113137655
3.103425414364641,0.31659233671262704
3.1367955801104976,0.18749189052840162
3.170165745856354,-0.02091398667908053
3.20353591160221,-0.3196778200930819
3.2369060773480665,-0.6821099053886249
3.2702762430939227,-1.0438335825175498
3.3036464088397794,-1.3199853105547397
3.3370165745856357,-1.4344442799405037
3.370386740331492,-1.3498528115421913
3.4037569060773483,-1.0856212863385475
3.4371270718232045,-0.7151498714412722
3.4704972375690613,-0.34174606460224266
3.5038674033149175,-0.06179950964635292
3.537237569060774,0.07030525253982056
3.57060773480663,0.06115404332580685
3.6039779005524863,-0.026849016230302097
3.6373480662983426,-0.102684693832987
3.6707182320441993,-0.08460952628577617
3.7040883977900556,0.06695014136990203
3.737458563535912,0.33459120450083596
3.770828729281768,0.652135089925329
3.8041988950276244,0.9309812471193606
3.837569060773481,1.0928863198683179
3.8709392265193374,1.0961958668621916
3.9043093922651937,0.9466756419423756
3.93767955801105,0.6909778347181844
3.9710497237569062,0.39724947536959837
4.0044198895027625,0.1312088016829411
4.037790055248619,-0.06358338684181598
4.071160220994475,-0.17510514070313699
4.104530386740332,-0.22009934545168544
4.1379005524861885,-0.23183338154089334
4.171270718232044,-0.24413429404911824
4.204640883977901,-0.2780430753255131
4.238011049723757,-0.33560344312623425
4.271381215469614,-0.40203858536944176
4.30475138121547,-0.45430447826482373
4.338121546961326,-0.47193591524037015
4.371491712707183,-0.4457642355052971
4.404861878453039,-0.3813422480444254
4.438232044198895,-0.2961588974256298
4.471602209944752,-0.21215719696277802
4.504972375690608,-0.1468598245900444
4.538342541436465,-0.10689586241679641
4.5717127071823205,-0.08665763794985226
4.605082872928177,-0.07256782352377585
4.638453038674034,-0.0509440018960646
4.67182320441989,-0.01582155322727166
4.7051933701657465,0.026931923358182112
4.738563535911602,0.06130509505335182
4.771933701657459,0.06824117053357201
4.805303867403316,0.035369110439290925
4.8386740331491715,-0.03474427975165443
4.872044198895028,-0.12164830665112344
4.905414364640884,-0.19127960111396985
4.938784530386741,-0.20645882168469334
4.972154696132597,-0.1399079272445354
5.005524861878453,0.015183839550176024
5.03889502762431,0.2411584537044017
5.072265193370166,0.4999288219243826
5.105635359116023,0.7433755771935301
5.1390055248618784,0.9262127702385937
5.172375690607735,1.017078262992554
5.205745856353592,1.0049550672698158
5.239116022099448,0.9000992735858492
5.272486187845304,0.7302728353454457
5.30585635359116,0.5336395685572602
5.339226519337017,0.34946808299304155
5.372596685082874,0.20772198266634567
5.4059668508287295,0.11946653919448087
5.439337016574586,0.07151544908305918
5.472707182320442,0.029394606815806266
5.506077348066299,-0.049258386897173045
5.5394475138121555,-0.1937127404650711
5.572817679558011,-0.40034840437713787
5.606187845303868,-0.625743846963425
5.639558011049724,-0.8008990857389867
5.672928176795581,-0.8648807370288252
5.706298342541437,-0.8039373428240102
5.739668508287293,-0.6746382951678626
5.77303867403315,-0.5928133559286228
5.806408839779006,-0.6849397898172415
5.839779005524862,-1.0192591176340913
5.873149171270718,-1.5495930962224183
5.906519337016575,-2.1053337801248815
5.939889502762432,-2.4428492015079355
5.9732596685082875,-2.3432702247780384
6.006629834254144,-1.7144072877289647
6.04,-0.646476390169276
6.073370165745857,0.6101743525622307
6.1067403314917135,1.7393904694488291
6.140110497237569,2.4824189001552117
6.173480662983426,2.7314247888928915
6.206850828729282,2.55066050371919
6.240220994475139,2.1210045501922075
6.273591160220995,1.642413680458856
6.306961325966851,1.246589145971546
6.340331491712708,0.9606347235905377
6.373701657458564,0.7306697161819187
6.40707182320442,0.48179991406910494
6.440441988950277,0.17546314102408855
6.473812154696133,-0.1667731090356302
6.50718232044199,-0.48002900749096417
6.5405524861878455,-0.6965502748080848
6.573922651933702,-0.7821246198140706
6.607292817679559,-0.7476927548321215
6.640662983425415,-0.633255334221143
6.674033149171271,-0.4782391085763879
6.707403314917127,-0.2989840659984693
6.740773480662984,-0.08746908619376832
6.774143646408841,0.16904270424495613
6.8075138121546965,0.46109391823637197
6.840883977900553,0.7412010088882818
6.874254143646409,0.9312540837448312
6.907624309392266,0.9520528224257513
6.9409944751381225,0.7610085329383196
6.974364640883978,0.3785184582182259
7.007734806629835,-0.1117119970294501
7.041104972375691,-0.5905042149304601
7.074475138121548,-0.9473017652899623
7.107845303867403,-1.120437208148536
7.14121546961326,-1.115352579059846
7.174585635359117,-0.9935286150280292
7.207955801104973,-0.8391702971050564
7.241325966850829,-0.7208163998213899
7.274696132596685,-0.6659578506922715
7.308066298342542,-0.6586039398296454
7.341436464088399,-0.6574551013649073
7.3748066298342545,-0.6225968401682952
7.408176795580111,-0.5361281928354458
7.441546961325967,-0.407354185185126
7.474917127071824,-0.26252956522105786
7.5082872928176805,-0.12727636859289995
7.541657458563536,-0.012537748991535636
7.575027624309393,0.08859652920571835
7.608397790055249,0.1930169188403114
7.641767955801106,0.3148557962903009
7.675138121546962,0.45602418513049986
7.708508287292818,0.6050176725027022
7.741878453038675,0.7432071126814123
7.775248618784531,0.8533488978635996
7.808618784530387,0.9246328745654953
7.841988950276244,0.9520646999841862
7.8753591160221,0.9325496276580519
7.908729281767957,0.8623672751494341
7.9420994475138125,0.7392629617728232
7.975469613259669,0.5683325532255127
8.008839779005525,0.3672225310733698
8.042209944751383,0.165592363640925
8.075580110497238,-0.003090368394125727
8.108950276243094,-0.11439570009538043
8.14232044198895,-0.16378741970703822
8.175690607734808,-0.1690882645419338
8.209060773480664,-0.162360113388887
8.24243093922652,-0.17481207900451304
8.275801104972377,-0.22229457717519782
8.309171270718233,-0.2986526511720695
8.342541436464089,-0.379903622846968
8.375911602209946,-0.43646680807474686
8.409281767955802,-0.4468072858399675
8.442651933701658,-0.40584698305719363
8.476022099447514,-0.3249504195607306
8.509392265193371,-0.22491452077974164
8.542762430939227,-0.12655262622719637
8.576132596685083,-0.04374031960652647
8.60950276243094,0.018449475822741326
8.642872928176796,0.061034702279146105
8.676243093922652,0.08660878343447052
8.709613259668508,0.09616214727262996
8.742983425414366,0.08895978416016642
8.776353591160222,0.06497622764379454
8.809723756906077,0.027674593535133747
8.843093922651935,-0.015335930377063012
8.87646408839779,-0.05486905160021144
8.909834254143647,-0.0848535743928787
8.943204419889504,-0.10631644385737495
8.97657458563536,-0.127734154642154
9.009944751381216,-0.16063663563821923
9.043314917127072,-0.21214728898423718
9.07668508287293,-0.2783290218213057
9.110055248618785,-0.3423988145083053
9.143425414364641,-0.37974803532094326
9.176795580110499,-0.3682326887436975
9.210165745856354,-0.299164612852906
9.24353591160221,-0.183509895579765
9.276906077348068,-0.049636222451733665
9.310276243093924,0.067196536474125
9.34364640883978,0.13933784724975232
9.377016574585635,0.15867930266828015
9.410386740331493,0.1401712524114454
9.443756906077349,0.11468310560490402
9.477127071823205,0.1139926220260052
9.510497237569062,0.15484591572325185
9.543867403314918,0.23014710563510424
9.577237569060774,0.31242094097314543
9.610607734806631,0.3686929454690221
9.643977900552487,0.3796499494654317
9.677348066298343,0.3528016616075061
9.710718232044199,0.3215149229639427
9.744088397790057,0.32866991405365525
9.777458563535912,0.40199916669446256
9.810828729281768,0.5335071935270145
9.844198895027626,0.67458514011007
9.877569060773482,0.7514541775570811
9.910939226519337,0.6956044810048029
9.944309392265193,0.47592166195502533
9.97767955801105,0.11742406123868175
10.011049723756907,-0.3028468931763616
10.044419889502763,-0.6818557471880039
10.07779005524862,-0.9275782919214506
10.111160220994476,-0.9913066023634339
10.144530386740332,-0.8821956645946769
10.17790055248619,-0.6592670088933831
10.211270718232045,-0.40577968059578384
10.244640883977901,-0.1976134189939621
10.278011049723757,-0.07856490979951802
10.311381215469615,-0.05131044868506689
10.34475138121547,-0.08546104646684821
10.378121546961326,-0.1369318704794865
10.411491712707184,-0.16883718465975198
10.44486187845304,-0.1648534268359557
10.478232044198895,-0.13072865132358477
10.511602209944753,-0.08567841363974513
10.544972375690609,-0.049661871286470566
10.578342541436465,-0.03315120299607862
10.61171270718232,-0.033358046846360984
10.645082872928178,-0.03699301798971496
10.678453038674034,-0.02676075896467818
10.71182320441989,0.01190085491880436
10.745193370165747,0.08615695347437877
10.778563535911603,0.1937123748043
10.811933701657459,0.3226932831882901
10.845303867403315,0.4527847162515262
10.878674033149172,0.5577021527825099
10.912044198895028,0.6097188336390341
10.945414364640884,0.5866026175005238
10.978784530386742,0.47975869648232594
11.012154696132598,0.30049125953164735
11.045524861878453,0.08059850582949539
11.078895027624311,-0.1348910395748948
11.112265193370167,-0.30145366244892663
11.145635359116023,-0.39016759217544567
11.179005524861878,-0.3975330703253701
11.212375690607736,-0.34529276498817946
11.245745856353592,-0.2701010931502938
11.279116022099448,-0.20769490989193812
11.312486187845305,-0.17871498690730475
11.345856353591161,-0.18235021913543722
11.379226519337017,-0.20019657955204076
11.412596685082875,-0.20801993153399775
11.44596685082873,-0.18954127025867523
11.479337016574586,-0.14539095551187786
11.512707182320442,-0.09249811934705138
11.5460773480663,-0.05371643628674773
11.579447513812156,-0.042601308391003054
11.612817679558011,-0.051463017636175536
11.646187845303869,-0.05012667428059006
11.679558011049725,0.0020098609192912144
11.71292817679558,0.13496352308648638
11.746298342541436,0.34802434062933874
11.779668508287294,0.6011712904405752
11.81303867403315,0.8240652510501909
11.846408839779006,0.9404724443697949
11.879779005524863,0.898290386031852
11.91314917127072,0.6920251894405183
11.946519337016575,0.36739753796817815
11.979889502762433,0.005560999399132915
12.013259668508288,-0.30641146625966165
12.046629834254144,-0.505971611131511
12.08,-0.5736055405139108
12.113370165745858,-0.5326177530606417
12.146740331491714,-0.43244497494216927
12.18011049723757,-0.3250265328125361
12.213480662983427,-0.24563720731762698
12.246850828729283,-0.20564019759579255
12.280220994475139,-0.19760152881886012
12.313591160220996,-0.20716643084276246
12.346961325966852,-0.22394881111499823
12.380331491712708,-0.24583988525049655
12.413701657458564,-0.27576335657391415
12.447071823204421,-0.3142676124649397
12.480441988950277,-0.3533158319746326
12.513812154696133,-0.3755313233143814
12.54718232044199,-0.3598334729787621
12.580552486187846,-0.290721097408349
12.613922651933702,-0.16637323908222254
12.64729281767956,-0.0013021147603475716
12.680662983425416,0.17786727260916438
12.714033149171271,0.3413894012210876
12.747403314917127,0.4657721197541273
12.780773480662985,0.5393113290671483
12.81414364640884,0.5620199597518317
12.847513812154697,0.5414050444306268
12.880883977900554,0.4875392368223026
12.91425414364641,0.4104431364049615
12.947624309392266,0.32038792093157836
12.980994475138122,0.22916934993377633
13.01436464088398,0.1496219674546276
13.047734806629835,0.09224384524099923
13.081104972375691,0.06056781238045643
13.114475138121549,0.048658248103892236
13.147845303867404,0.0433221082272396
13.18121546961326,0.03064710042501831
13.214585635359118,0.0033395664134088913
13.247955801104974,-0.03569435872796261
13.28132596685083,-0.07608777145314032
13.314696132596685,-0.10776444408353286
13.348066298342543,-0.12910986863961466
13.381436464088399,-0.1503908163067446
13.414806629834255,-0.18975297541410796
13.448176795580112,-0.26319186543438644
13.481546961325968,-0.37323699051946224
13.514917127071824,-0.5020549911343641
13.548287292817681,-0.612953881353919
13.581657458563537,-0.660746854015959
13.615027624309393,-0.6076219872915936
13.648397790055249,-0.4386009200693873
13.681767955801106,-0.1704134997538233
13.715138121546962,0.15014447066386488
13.748508287292818,0.458381199402251
13.781878453038676,0.6903604792736538
13.815248618784532,0.8014523992427286
13.848618784530387,0.7782422269833952
13.881988950276245,0.6398744513717974
13.9153591160221,0.42902621422940984
13.948729281767957,0.19660058123967233
13.982099447513813,-0.013725878492680992
14.01546961325967,-0.1755734572994305
14.048839779005526,-0.28185918677861305
14.082209944751382,-0.33968912100053916
14.11558011049724,-0.3618596124561363
14.148950276243095,-0.35937800789007845
14.182320441988951,-0.33797549838978924
14.215690607734807,-0.29900919713543866
14.249060773480664,-0.2428988425492702
14.28243093922652,-0.17241543403686785
14.315801104972376,-0.0939090894030448
14.349171270718234,-0.016194990537256225
14.38254143646409,0.05180970030367224
14.415911602209945,0.10327606961690776
14.449281767955803,0.1347457421922517
14.482651933701659,0.14669822881718528
14.516022099447515,0.14387664066948336
14.54939226519337,0.13522859706975116
14.582762430939228,0.13246841125802475
14.616132596685084,0.1462657691650623
14.64950276243094,0.18047911938737077
14.682872928176797,0.22703108701127267
14.716243093922653,0.2652944209353797
14.749613259668509,0.2686529386474737
14.782983425414367,0.2171361812024941
14.816353591160222,0.11060926889115798
14.849723756906078,-0.025117253886031605
14.883093922651934,-0.14465514601053653
14.916464088397792,-0.20115645029167437
14.949834254143648,-0.1685442633315891
14.983204419889503,-0.05662246177669709
15.016574585635361,0.08983084402204412
15.049944751381217,0.20924878226470087
15.083314917127073,0.25089825592347376
15.116685082872928,0.19851481898197879
15.150055248618786,0.07780575049485816
15.183425414364642,-0.05649005527652358
15.216795580110498,-0.14786752254793994
15.250165745856355,-0.16603423175960158
15.283535911602211,-0.12151609909934336
15.316906077348067,-0.059673551312152406
15.350276243093925,-0.037446585006968264
15.38364640883978,-0.09470985554409045
15.417016574585636,-0.23430003872822797
15.450386740331492,-0.4197928781874109
15.48375690607735,-0.5910064171230083
15.517127071823205,-0.6889190976154891
15.550497237569061,-0.6782285313654257
15.583867403314919,-0.5582478434663398
15.617237569060775,-0.35925047815375977
15.65060773480663,-0.1280892228945782
15.683977900552488,0.08927220339184576
15.717348066298344,0.26099304807607415
15.7507182320442,0.37446360623074093
15.784088397790056,0.4336361015682827
15.817458563535913,0.45184289370836866
15.85082872928177,0.44405949022503316
15.884198895027625,0.4214828358070426
15.917569060773483,0.3895213256515689
15.950939226519338,0.3487671493352246
15.984309392265194,0.2976703649825446
16.01767955801105,0.2354806381108783
16.051049723756908,0.16438288137689158
16.084419889502765,0.09032642926291694
16.11779005524862,0.0225150881743316
16.151160220994477,-0.028261652865143698
16.18453038674033,-0.052196998334990544
16.21790055248619,-0.0435069708402081
16.251270718232046,-0.003217357588250753
16.2846408839779,0.0592399338557793
16.318011049723758,0.12646170978172966
16.351381215469615,0.1759788320054841
16.38475138121547,0.18552931353403385
16.418121546961327,0.1399630880795198
16.451491712707185,0.03820149477137981
16.48486187845304,-0.10230246008664531
16.518232044198896,-0.24663505568291358
16.551602209944754,-0.35103763578771735
16.584972375690608,-0.37809037687816816
16.618342541436466,-0.31345811799167256
16.651712707182323,-0.1764162055485734
16.685082872928177,-0.017217364620867957
16.718453038674035,0.1004945361081434
16.751823204419892,0.12651377234135777
16.785193370165747,0.048438664880214345
16.818563535911604,-0.098898468784925
16.851933701657458,-0.2456229492557639
16.885303867403316,-0.31715736414002677
16.918674033149173,-0.26960614926962106
16.952044198895027,-0.11319394824043696
16.985414364640885,0.08872203135404748
17.018784530386743,0.24626548077768384
17.052154696132597,0.2838317008701608
17.085524861878454,0.1760643461239998
17.118895027624312,-0.03832849485387808
17.152265193370166,-0.27201940316761497
17.185635359116024,-0.4270311855340963
17.21900552486188,-0.4378785801097432
17.252375690607735,-0.30023521866649355
17.285745856353593,-0.07240287897279366
