Time (s),Filtered Signal
0.0,0.007850706600039422
0.033370165745856356,0.007717992027638082
0.06674033149171271,0.0248233017434651
0.10011049723756907,0.06867136469470994
0.13348066298342542,0.13621602143651446
0.16685082872928178,0.21294506773304966
0.20022099447513814,0.27880347657461896
0.2335911602209945,0.3161091067206479
0.26696132596685085,0.3159583882536461
0.30033149171270723,0.2806172628157195
0.33370165745856356,0.22139330874943178
0.3670718232044199,0.15344806265351404
0.4004419889502763,0.09007284677622286
0.43381215469613266,0.03879887898783927
0.467182320441989,0.0005936680470585188
0.5005524861878453,-0.02809194910434179
0.5339226519337017,-0.05186442831069874
0.5672928176795581,-0.0733983206059799
0.6006629834254145,-0.09234229096728025
0.6340331491712707,-0.10642732382353341
0.6674033149171271,-0.11385774770394037
0.7007734806629835,-0.11536797248998028
0.7341436464088398,-0.11455541296199463
0.7675138121546962,-0.11615228200187991
0.8008839779005525,-0.12318088101865536
0.8342541436464089,-0.13468299698316227
0.8676243093922653,-0.14545903458050172
0.9009944751381216,-0.1481372022786196
0.934364640883978,-0.13658095975065077
0.9677348066298344,-0.10890141949904691
1.0011049723756906,-0.06857024218549151
1.0344751381215471,-0.023141773639836858
1.0678453038674034,0.018721854452440304
1.1012154696132597,0.05050498299995426
1.1345856353591162,0.06997955215683635
1.1679558011049724,0.07946800787321927
1.201325966850829,0.0842983223803311
1.2346961325966852,0.09019422566677027
1.2680662983425415,0.10066179952504914
1.301436464088398,0.11537457651959429
1.3348066298342542,0.13018610755694285
1.3681767955801105,0.1388081891110471
1.401546961325967,0.1355311189084762
1.4349171270718233,0.1178576790987881
1.4682872928176796,0.08784327850737393
1.501657458563536,0.051436842048715355
1.5350276243093923,0.01606553578511286
1.5683977900552488,-0.012357953283086824
1.601767955801105,-0.031467338571793665
1.6351381215469614,-0.04248548939224242
1.6685082872928179,-0.04839454699694152
1.7018784530386741,-0.05145498890945597
1.7352486187845306,-0.05166090294135365
1.768618784530387,-0.04709200545725353
1.8019889502762432,-0.03588936084284178
1.8353591160220997,-0.018528575662497295
1.868729281767956,0.0011360119021418375
1.9020994475138122,0.016817552188125535
1.9354696132596687,0.02227763802157734
1.968839779005525,0.013997219829952652
2.0022099447513813,-0.007347563967787455
2.0355801104972375,-0.037239295670096546
2.0689502762430942,-0.0691382776834006
2.1023204419889505,-0.09677078560910547
2.135690607734807,-0.11591406773312098
2.169060773480663,-0.12521111033627014
2.2024309392265193,-0.12609851514402448
2.235801104972376,-0.12216180855550195
2.2691712707182323,-0.11809723576379959
2.3025414364640886,-0.11823060958145205
2.335911602209945,-0.12458516614835916
2.369281767955801,-0.13494226036532161
2.402651933701658,-0.1419386538900936
2.436022099447514,-0.13443270655144304
2.4693922651933704,-0.10166699149342709
2.5027624309392267,-0.03918365698812065
2.536132596685083,0.0462616119138064
2.5695027624309392,0.13622089053366543
2.602872928176796,0.20665130640905827
2.636243093922652,0.23950315433003425
2.6696132596685085,0.2349123963824114
2.7029834254143648,0.21695380406977738
2.736353591160221,0.227304555064093
2.7697237569060777,0.306393381113171
2.803093922651934,0.46867717404285403
2.8364640883977903,0.6839331185249127
2.8698342541436466,0.8763378729173698
2.903204419889503,0.9463844642062793
2.936574585635359,0.8097218104530054
2.969944751381216,0.43713079633481017
3.003314917127072,-0.12321288146840513
3.0366850828729284,-0.7535925799015166
3.0700552486187846,-1.3036078751129236
3.103425414364641,-1.6411207967720227
3.1367955801104976,-1.6957101253480868
3.170165745856354,-1.4770901467234077
3.20353591160221,-1.0632179476235797
3.2369060773480665,-0.5664570226551888
3.2702762430939227,-0.09423819001279886
3.3036464088397794,0.27997006051065476
3.3370165745856357,0.5270807743019081
3.370386740331492,0.655373876639917
3.4037569060773483,0.6938495978033807
3.4371270718232045,0.6752432225475286
3.4704972375690613,0.6251146863549593
3.5038674033149175,0.5587643210544988
3.537237569060774,0.48388304702635704
3.57060773480663,0.4051939571926584
3.6039779005524863,0.3278338316811495
3.6373480662983426,0.2579486179051109
3.6707182320441993,0.2008648680693926
3.7040883977900556,0.15845311399007025
3.737458563535912,0.12755077091766118
3.770828729281768,0.10062467397054535
3.8041988950276244,0.06864168233023972
3.837569060773481,0.024969841552174136
3.8709392265193374,-0.03143133660826203
3.9043093922651937,-0.09502675821438197
3.93767955801105,-0.1554986405220291
3.9710497237569062,-0.2016881829888601
4.0044198895027625,-0.22608726176910635
4.037790055248619,-0.22796451817786656
4.071160220994475,-0.2137346810047224
4.104530386740332,-0.19437594223008545
4.1379005524861885,-0.18104359736207828
4.171270718232044,-0.18085235843697806
4.204640883977901,-0.19465836345617332
4.238011049723757,-0.21762885472235508
4.271381215469614,-0.24201131941347875
4.30475138121547,-0.2605500012522303
4.338121546961326,-0.26892484949795487
4.371491712707183,-0.2663487976692835
4.404861878453039,-0.25453280401380496
4.438232044198895,-0.23597998452464658
4.471602209944752,-0.21264020589001467
4.504972375690608,-0.18543874918967884
4.538342541436465,-0.1545175957412273
4.5717127071823205,-0.11965117049599956
4.605082872928177,-0.08040962695636036
4.638453038674034,-0.036074265239271874
4.67182320441989,0.014315318489762634
4.7051933701657465,0.07139563232629384
4.738563535911602,0.13440098576267606
4.771933701657459,0.2001048332139091
4.805303867403316,0.262591386565933
4.8386740331491715,0.3144497129312702
4.872044198895028,0.3493141626940966
4.905414364640884,0.3648777968326211
4.938784530386741,0.3649994380983697
4.972154696132597,0.3596124706405678
5.005524861878453,0.36187015590754196
5.03889502762431,0.38310051142954965
5.072265193370166,0.4272720104986536
5.105635359116023,0.48730429322215113
5.1390055248618784,0.5453099093826173
5.172375690607735,0.577613521183832
5.205745856353592,0.5634582852790249
5.239116022099448,0.4943661796259411
5.272486187845304,0.38005951484439765
5.30585635359116,0.24741314246628893
5.339226519337017,0.13129149267131388
5.372596685082874,0.05972526928419454
5.4059668508287295,0.03929708250248871
5.439337016574586,0.048048302761410894
5.472707182320442,0.0413178764948636
5.506077348066299,-0.029374477011219473
5.5394475138121555,-0.19118600512349354
5.572817679558011,-0.4305333950583456
5.606187845303868,-0.6914623103032258
5.639558011049724,-0.8972423022646231
5.672928176795581,-0.9890900016211863
5.706298342541437,-0.9646451349371874
5.739668508287293,-0.8943092391461613
5.77303867403315,-0.9001975785630557
5.806408839779006,-1.0993699695298242
5.839779005524862,-1.5331827114472618
5.873149171270718,-2.117450678530102
5.906519337016575,-2.644759416589061
5.939889502762432,-2.849137551131861
5.9732596685082875,-2.5126240007558778
6.006629834254144,-1.5683364355327394
6.04,-0.15019035015234522
6.073370165745857,1.4392883724218213
6.1067403314917135,2.8334368814112056
6.140110497237569,3.733088702656158
6.173480662983426,4.006857765571054
6.206850828729282,3.7178427107042875
6.240220994475139,3.071275288153332
6.273591160220995,2.314631356905613
6.306961325966851,1.6399024191930909
6.340331491712708,1.1297971518953873
6.373701657458564,0.7627849212811442
6.40707182320442,0.462087150865958
6.440441988950277,0.15613285132253657
6.473812154696133,-0.1807550538305594
6.50718232044199,-0.5225388152556872
6.5405524861878455,-0.8153116703591277
6.573922651933702,-1.0120005394285234
6.607292817679559,-1.0976188288360036
6.640662983425415,-1.0937016191914497
6.674033149171271,-1.0433939045942073
6.707403314917127,-0.988230113842944
6.740773480662984,-0.9498077605559431
6.774143646408841,-0.9246677484918714
6.8075138121546965,-0.8925423244464135
6.840883977900553,-0.8314213739188206
6.874254143646409,-0.730709664058926
6.907624309392266,-0.5963317921426011
6.9409944751381225,-0.4467840039090239
6.974364640883978,-0.30377495748029254
7.007734806629835,-0.18303451419012298
7.041104972375691,-0.08967868842827224
7.074475138121548,-0.019410645923250043
7.107845303867403,0.03627532111721451
7.14121546961326,0.08430931146881915
7.174585635359117,0.12669906256195534
7.207955801104973,0.16083875161813102
7.241325966850829,0.18263813549520663
7.274696132596685,0.1903527230129239
7.308066298342542,0.186934847564949
7.341436464088399,0.1797035915605747
7.3748066298342545,0.17754878281184353
7.408176795580111,0.18706058311382923
7.441546961325967,0.20943503392539362
7.474917127071824,0.23962115400201037
7.5082872928176805,0.2681679811010767
7.541657458563536,0.28504952816682083
7.575027624309393,0.2838842653169113
7.608397790055249,0.2647684368373844
7.641767955801106,0.23447950643831103
7.675138121546962,0.20385885097848036
7.708508287292818,0.1833410990575584
7.741878453038675,0.17841198599079194
7.775248618784531,0.18690981523615702
7.808618784530387,0.19943194319362914
7.841988950276244,0.20286520553611956
7.8753591160221,0.18570817355386626
7.908729281767957,0.14299180123043254
7.9420994475138125,0.0786734172887607
7.975469613259669,0.004412573488075186
8.008839779005525,-0.06479223521914608
8.042209944751383,-0.11623290399585193
8.075580110497238,-0.14396092810051553
8.108950276243094,-0.1502402869968575
8.14232044198895,-0.1435540062642756
8.175690607734808,-0.13431122669206486
8.209060773480664,-0.1303451815124661
8.24243093922652,-0.13416604929884682
8.275801104972377,-0.1428866576976356
8.309171270718233,-0.15040811440753088
8.342541436464089,-0.1505577968561329
8.375911602209946,-0.1397804326256387
8.409281767955802,-0.11852685313601523
8.442651933701658,-0.09116949088254576
8.476022099447514,-0.06469115271916616
8.509392265193371,-0.04650337465179392
8.542762430939227,-0.04180914721077249
8.576132596685083,-0.05115647025936214
8.60950276243094,-0.06914410150563324
8.642872928176796,-0.08525854543887214
8.676243093922652,-0.08720254632263348
8.709613259668508,-0.06589718406303498
8.742983425414366,-0.020186276387367683
8.776353591160222,0.041085062733644165
8.809723756906077,0.1010795752567673
8.843093922651935,0.14071728432265015
8.87646408839779,0.1459620340388871
8.909834254143647,0.11354706919229571
8.943204419889504,0.05262723381168706
8.97657458563536,-0.018365326029580162
9.009944751381216,-0.07829938894901833
9.043314917127072,-0.11062579787840349
9.07668508287293,-0.10855159228717531
9.110055248618785,-0.07639393463466508
9.143425414364641,-0.027036071466384946
9.176795580110499,0.023171123100297418
9.210165745856354,0.060013141080524066
9.24353591160221,0.07559379179337954
9.276906077348068,0.06991262200951383
9.310276243093924,0.0496731581433393
9.34364640883978,0.025088527503584583
9.377016574585635,0.006014890834356069
9.410386740331493,-0.0012035456266045199
9.443756906077349,0.004781708872634901
9.477127071823205,0.020767730269551855
9.510497237569062,0.04092909396713393
9.543867403314918,0.05933240468915345
9.577237569060774,0.07204510508743082
9.610607734806631,0.07810446312319722
9.643977900552487,0.07910969357097679
9.677348066298343,0.07776298039881913
9.710718232044199,0.07610502361485429
9.744088397790057,0.07428883852333347
9.777458563535912,0.07045814852133025
9.810828729281768,0.061768154509747215
9.844198895027626,0.04605390053361039
9.877569060773482,0.023350487669235136
9.910939226519337,-0.0034864923676870886
9.944309392265193,-0.029451628838746503
9.97767955801105,-0.04919628870573132
10.011049723756907,-0.059274641416938494
10.044419889502763,-0.05982035311607739
10.07779005524862,-0.05475472625208487
10.111160220994476,-0.05020559900770001
10.144530386740332,-0.05167038922115271
10.17790055248619,-0.061183517323581314
10.211270718232045,-0.07592781779590782
10.244640883977901,-0.08917718401453696
10.278011049723757,-0.093369392071341
10.311381215469615,-0.08398758811427273
10.34475138121547,-0.062343998723573435
10.378121546961326,-0.035668915696260295
10.411491712707184,-0.01408089727696956
10.44486187845304,-0.005592144109801046
10.478232044198895,-0.011534877847252418
10.511602209944753,-0.024951645828173073
10.544972375690609,-0.033280216227498625
10.578342541436465,-0.02450859750969729
10.61171270718232,0.006056644396237301
10.645082872928178,0.05198625962043127
10.678453038674034,0.0972748868940042
10.71182320441989,0.12297603758269927
10.745193370165747,0.11592258580263884
10.778563535911603,0.07523799642555448
10.811933701657459,0.013303450166297144
10.845303867403315,-0.04939157710155001
10.878674033149172,-0.09300083723096347
10.912044198895028,-0.10641391765081251
10.945414364640884,-0.0909235341822483
10.978784530386742,-0.0580870400347664
11.012154696132598,-0.023327731917177456
11.045524861878453,0.0012646552962149408
11.078895027624311,0.01147200395008696
11.112265193370167,0.011087487282978079
11.145635359116023,0.008304225620827879
11.179005524861878,0.010742415945696287
11.212375690607736,0.021788879666087953
11.245745856353592,0.03980262117812615
11.279116022099448,0.06000335462929223
11.312486187845305,0.07750933151996707
11.345856353591161,0.08967144400964194
11.379226519337017,0.09656201823864566
11.412596685082875,0.09968322664496419
11.44596685082873,0.09996161239552226
11.479337016574586,0.0964024826351716
11.512707182320442,0.08630538794593394
11.5460773480663,0.06698772484886799
11.579447513812156,0.0380425596859442
11.612817679558011,0.0027626932280209147
11.646187845303869,-0.03227014212443394
11.679558011049725,-0.059470271178516824
11.71292817679558,-0.0733987939545534
11.746298342541436,-0.07322413190937649
11.779668508287294,-0.06321350626364972
11.81303867403315,-0.050939336641944485
11.846408839779006,-0.04401137181751893
11.879779005524863,-0.04684328494403687
11.91314917127072,-0.05890461766699894
11.946519337016575,-0.07518118056885105
11.979889502762433,-0.08856322890899652
12.013259668508288,-0.09306224277731498
12.046629834254144,-0.0864443109908849
12.08,-0.07114969952331886
12.113370165745858,-0.053109986087568214
12.146740331491714,-0.038980099914763006
12.18011049723757,-0.033008656417037145
12.213480662983427,-0.0349668386833539
12.246850828729283,-0.040120121548584214
12.280220994475139,-0.04130876600720618
12.313591160220996,-0.03220600069546246
12.346961325966852,-0.010239188525985803
12.380331491712708,0.02218645669258439
12.413701657458564,0.0586777690647818
12.447071823204421,0.0914710050126264
12.480441988950277,0.11432732976387001
12.513812154696133,0.12435181670720592
12.54718232044199,0.12210959794487311
12.580552486187846,0.11040477174290954
12.613922651933702,0.09272290809622669
12.64729281767956,0.07225611865006777
12.680662983425416,0.05176834685895461
12.714033149171271,0.0338406623524149
12.747403314917127,0.02078819582406658
12.780773480662985,0.013920832111814491
12.81414364640884,0.012522456090029794
12.847513812154697,0.013406519039167217
12.880883977900554,0.011773257997914949
12.91425414364641,0.003364804653017146
12.947624309392266,-0.012987703872104727
12.980994475138122,-0.033835290363784604
13.01436464088398,-0.05173691487424498
13.047734806629835,-0.05816706855793808
13.081104972375691,-0.047571021747742234
13.114475138121549,-0.020619628016726906
13.147845303867404,0.015114738695794319
13.18121546961326,0.047661015703390375
13.214585635359118,0.0653159835141069
13.247955801104974,0.06129397312808984
13.28132596685083,0.03614229654164031
13.314696132596685,-0.0031579657912923927
13.348066298342543,-0.04679910060553124
13.381436464088399,-0.08653069819100569
13.414806629834255,-0.11860059196992215
13.448176795580112,-0.14387750087686357
13.481546961325968,-0.16528872708448564
13.514917127071824,-0.18411520654243407
13.548287292817681,-0.1972984280048556
13.581657458563537,-0.19741348855297705
13.615027624309393,-0.17557914491280732
13.648397790055249,-0.12600480344111512
13.681767955801106,-0.049940449503476175
13.715138121546962,0.042998343498021695
13.748508287292818,0.13692335859011392
13.781878453038676,0.2143738261682506
13.815248618784532,0.2616614635995594
13.848618784530387,0.2727295488675244
13.881988950276245,0.25019810862545466
13.9153591160221,0.20355446166246852
13.948729281767957,0.1455600746652634
13.982099447513813,0.08840753121658923
14.01546961325967,0.040902255170445136
14.048839779005526,0.007252746124016179
14.082209944751382,-0.012649076383054198
14.11558011049724,-0.021990629104891603
14.148950276243095,-0.02544252922761918
14.182320441988951,-0.027641446774215057
14.215690607734807,-0.03198822539514061
14.249060773480664,-0.039878337645791594
14.28243093922652,-0.05045580224761905
14.315801104972376,-0.06097044009092743
14.349171270718234,-0.06772990868071954
14.38254143646409,-0.06744720134185098
14.415911602209945,-0.05856876030384622
14.449281767955803,-0.04207340478993937
14.482651933701659,-0.021373953651646762
14.516022099447515,-0.0013152253659992545
14.54939226519337,0.013329321311340259
14.582762430939228,0.019238024905132843
14.616132596685084,0.015273548434496836
14.64950276243094,0.0024026182712397898
14.682872928176797,-0.016955282261221595
14.716243093922653,-0.03968271479141656
14.749613259668509,-0.062418159224889115
14.782983425414367,-0.08160134481540661
14.816353591160222,-0.09336008051232689
14.849723756906078,-0.09370292625168988
14.883093922651934,-0.0794004496965132
14.916464088397792,-0.04953126932735869
14.949834254143648,-0.007090566928510238
14.983204419889503,0.04036093119199245
15.016574585635361,0.08192364022006796
15.049944751381217,0.10660530157717184
15.083314917127073,0.10757875280395623
15.116685082872928,0.08555546680618296
15.150055248618786,0.04938637137725698
15.183425414364642,0.01309192410249495
15.216795580110498,-0.009748074873791937
15.250165745856355,-0.011833573942857395
15.283535911602211,0.004578059309695074
15.316906077348067,0.028694392419531218
15.350276243093925,0.04620348951148628
15.38364640883978,0.045963351806938925
15.417016574585636,0.025148001255929246
15.450386740331492,-0.00962289659070463
15.48375690607735,-0.04561145619224772
15.517127071823205,-0.06993732073385688
15.550497237569061,-0.07513647328706424
15.583867403314919,-0.061639723883341886
15.617237569060775,-0.036297218807663616
15.65060773480663,-0.008197077973234879
15.683977900552488,0.01572624706111264
15.717348066298344,0.03304808548595328
15.7507182320442,0.045365495846764296
15.784088397790056,0.05580558186440276
15.817458563535913,0.06626730513809732
15.85082872928177,0.07591631877117673
15.884198895027625,0.08147757486163916
15.917569060773483,0.0788500787583906
15.950939226519338,0.06505900560023957
15.984309392265194,0.039675657710249924
16.01767955801105,0.005304220841234729
16.051049723756908,-0.032824205988466
16.084419889502765,-0.06791766676938407
16.11779005524862,-0.09313578418433967
16.151160220994477,-0.1033579624007073
16.18453038674033,-0.09687769135508584
16.21790055248619,-0.07644389915542106
16.251270718232046,-0.04897823744319364
16.2846408839779,-0.023631530919593417
16.318011049723758,-0.008597007923753251
16.351381215469615,-0.007894040304314075
16.38475138121547,-0.019633077205625564
16.418121546961327,-0.03675258108274821
16.451491712707185,-0.05005675992638202
16.48486187845304,-0.05218676464331808
16.518232044198896,-0.04061593251206431
16.551602209944754,-0.018224422015783875
16.584972375690608,0.0087266632213359
16.618342541436466,0.03401007764581197
16.651712707182323,0.05428436049375165
16.685082872928177,0.06978609596371456
16.718453038674035,0.08255293484838282
16.751823204419892,0.09337845411147974
16.785193370165747,0.09956084536602239
16.818563535911604,0.09517586066131654
16.851933701657458,0.07419276860345314
16.885303867403316,0.03499382426745886
16.918674033149173,-0.016268141436224594
16.952044198895027,-0.06582640971582993
16.985414364640885,-0.09673413511387755
17.018784530386743,-0.0960782169492505
17.052154696132597,-0.06169651003094444
17.085524861878454,-0.004856486910277343
