Frequency (Hz),Amplitude
0.0,1.3496802464845041
0.04,1.3490986534548197
0.08,1.3473546354613497
0.12,1.3444504768704295
0.16,1.3403899885877852
0.19999999999999998,1.3351785136065106
0.24,1.3288229349875846
0.27999999999999997,1.3213316864929123
0.32,1.3127147661635623
0.36,1.302983753216401
0.39999999999999997,1.2921518287228986
0.44,1.2802338006373064
0.48,1.2672461338606986
0.52,1.2532069861661883
0.5599999999999999,1.2381362509735476
0.6,1.2220556081535503
0.64,1.204988584270125
0.6799999999999999,1.186960623939451
0.72,1.1679991743085634
0.76,1.148133785042965
0.7999999999999999,1.1273962266760895
0.84,1.1058206307287666
0.88,1.0834436556719738
0.9199999999999999,1.0603046836015244
0.96,1.0364460534415914
1.0,1.0119133376185976
1.04,0.9867556704705929
1.0799999999999998,0.9610261381968765
1.1199999999999999,0.9347822419126943
1.1600000000000001,0.9080864473333792
1.2,0.881006836703628
1.24,0.8536178806628706
1.28,0.826001349514004
1.3199999999999998,0.7982473843397182
1.3599999999999999,0.7704557477440155
1.4,0.7427372703177851
1.44,0.7152155000957883
1.48,0.6880285450683339
1.52,0.6613310686186926
1.5599999999999998,0.6352963483920836
1.5999999999999999,0.6101182331244277
1.64,0.5860127221472404
1.68,0.5632187453565426
1.72,0.5419975453938083
1.76,0.5226298897150238
1.7999999999999998,0.5054102364778992
1.8399999999999999,0.49063705826193027
1.88,0.47859893298251044
1.92,0.46955684536297937
1.9599999999999997,0.4637243516000329
2.0,0.4612485194449165
2.0399999999999996,0.462195288098694
2.08,0.46654252959747466
2.12,0.47418249786759176
2.1599999999999997,0.48493305462060926
2.2,0.49855502421666087
2.2399999999999998,0.5147720508574333
2.28,0.5332895904374328
2.3200000000000003,0.5538107543046488
2.36,0.5760480129869595
2.4,0.5997308025938051
2.44,0.6246096811173568
2.48,0.6504579009954302
2.5199999999999996,0.6770712327836915
2.56,0.7042667239094557
2.6,0.7318808961379297
2.6399999999999997,0.759767722810875
2.68,0.7877965994924386
2.7199999999999998,0.8158504303631278
2.76,0.8438238915943735
2.8,0.8716218944183308
2.84,0.8991582478259899
2.88,0.926354508429816
2.92,0.9531389991697773
2.96,0.9794459766106417
2.9999999999999996,1.0052149268719672
3.04,1.0303899716816227
3.08,1.0549193680023774
3.1199999999999997,1.078755086774005
3.16,1.1018524583357656
3.1999999999999997,1.1241698739444965
3.2399999999999998,1.1456685344414341
3.28,1.1663122385400977
3.32,1.1860672044198521
3.36,1.2049019193356418
3.4,1.2227870128168823
3.44,1.2396951497507946
3.4799999999999995,1.255600940248985
3.52,1.2704808636997305
3.5599999999999996,1.2843132048288524
3.5999999999999996,1.2970779999433375
3.64,1.3087569918257957
3.6799999999999997,1.3193335919945497
3.7199999999999998,1.3287928492517773
3.76,1.3371214236177031
3.7999999999999994,1.3443075648980778
3.84,1.350341095259843
3.88,1.355213395300043
3.9199999999999995,1.3589173931889547
3.96,1.3614475565531106
4.0,1.3627998868395665
4.04,1.3629719159718439
4.079999999999999,1.361962705172091
4.12,1.3597728458850638
4.16,1.3564044627990264
4.199999999999999,1.3518612190183075
4.24,1.3461483235033735
4.28,1.3392725409588822
4.319999999999999,1.3312422044196561
4.36,1.322067230861047
4.4,1.3117591402459656
4.4399999999999995,1.3003310785183253
4.4799999999999995,1.2877978451650318
4.5200000000000005,1.2741759260993741
4.56,1.2594835327721072
4.6,1.2437406485978766
4.640000000000001,1.2269690840002345
4.68,1.2091925416359282
4.72,1.1904366936678796
4.76,1.1707292733275856
4.8,1.1501001834552946
4.84,1.12858162524714
4.88,1.1062082510921518
4.92,1.0830173461728128
4.96,1.059049044458206
5.0,1.0343465858707572
5.039999999999999,1.0089566227910785
5.08,0.9829295857166102
5.12,0.9563201198416031
5.159999999999999,0.9291876065997152
5.2,0.9015967868011112
5.24,0.8736185048458995
5.279999999999999,0.8453305964519291
5.319999999999999,0.8168189450775857
5.36,0.7881787341493346
5.3999999999999995,0.7595159222636849
5.4399999999999995,0.7309489649492151
5.48,0.7026107964814188
5.52,0.6746510642023459
5.56,0.6472385692666731
5.6,0.620563802715837
5.64,0.594841363180036
5.68,0.5703118913323827
5.72,0.5472429514784948
5.76,0.5259280453889589
5.8,0.5066827082186853
5.84,0.48983652200370614
5.879999999999999,0.4757200690863905
5.92,0.4646465457428369
5.96,0.45688907716265825
5.999999999999999,0.45265652970472947
6.04,0.4520721732285435
6.08,0.45515998933516727
6.119999999999999,0.46184210927108904
6.16,0.4719480516191399
6.2,0.48523331237405753
6.239999999999999,0.5014028397884908
6.279999999999999,0.5201346847708532
6.32,0.5411003231076998
6.359999999999999,0.5639799128668693
6.3999999999999995,0.5884722902744636
6.44,0.6143004568634606
6.4799999999999995,0.6412136838380263
6.52,0.6689873458441836
6.56,0.6974213959389787
6.6,0.7263381457621717
6.64,0.7555797921552645
6.68,0.7850059594130712
6.72,0.8144914056481916
6.76,0.8439239630222113
6.8,0.8732027335089099
6.84,0.9022365345283118
6.88,0.9309425747575001
6.92,0.9592453344820947
6.959999999999999,0.9870756235739964
7.0,1.0143697914053307
7.04,1.041069065426101
7.08,1.0671189979824176
7.119999999999999,1.0924690038143772
7.16,1.1170719733347068
7.199999999999999,1.1408839491592129
7.239999999999999,1.1638638554134149
7.28,1.1859732710877082
7.32,1.2071762401842314
7.359999999999999,1.2274391126268953
7.3999999999999995,1.2467304109264956
7.4399999999999995,1.265020718438548
7.4799999999999995,1.2822825857509608
7.52,1.2984904523174055
7.5600000000000005,1.3136205809310624
7.599999999999999,1.3276510030303972
7.64,1.3405614731582078
7.68,1.3523334311697253
7.719999999999999,1.3629499710149333
7.76,1.3723958151128262
7.800000000000001,1.3806572934976253
7.839999999999999,1.3877223270548769
7.88,1.3935804142831418
7.92,1.3982226211187612
7.959999999999999,1.401641573449948
8.0,1.4038314520250865
8.040000000000001,1.40478798953083
8.08,1.4045084696804488
8.12,1.4029917282137812
8.159999999999998,1.4002381557686814
8.2,1.3962497026416791
8.24,1.3910298855142682
8.28,1.3845837962824545
8.32,1.3769181131926314
8.36,1.3680411145584317
8.399999999999999,1.3579626954132034
8.44,1.3466943875434396
8.48,1.3342493834531504
8.52,1.3206425649311213
8.56,1.3058905370366345
8.6,1.2900116684898997
8.639999999999999,1.2730261396574423
8.68,1.2549559995682984
8.72,1.2358252336936801
8.76,1.215659844583474
8.8,1.1944879478926596
8.84,1.1723398868687929
8.879999999999999,1.1492483690318738
8.92,1.1252486295899964
8.959999999999999,1.1003786271347333
9.0,1.0746792783945374
9.040000000000001,1.0481947403473657
9.079999999999998,1.0209727498710404
9.12,0.9930650334181632
9.16,0.9645278020274195
9.2,0.9354223504137742
9.24,0.9058157829951208
9.280000000000001,0.875781894554342
9.32,0.8454022387576471
9.36,0.8147674237279009
9.399999999999999,0.7839786797418378
9.44,0.7531497487094247
9.48,0.7224091461754796
9.52,0.6919028401791931
9.559999999999999,0.6617973706524976
9.6,0.632283387201181
9.639999999999999,0.6035794954868903
9.68,0.5759361499593294
9.72,0.5496390860265082
9.76,0.5250114258454217
9.8,0.5024131263245453
9.84,0.4822359490420594
9.879999999999999,0.4648918423545447
9.92,0.45079293729037617
9.959999999999999,0.44032276202953297
10.0,0.43380101274924443
10.04,0.4314477105440245
10.079999999999998,0.4333551498646745
10.12,0.4394756268522326
10.16,0.44962875906779165
10.2,0.4635260229202653
10.24,0.4808052315487471
10.280000000000001,0.5010663430124374
10.319999999999999,0.5239020072156612
10.36,0.5489196995316884
10.4,0.5757552781138334
10.44,0.6040795137919368
10.48,0.6335996726211306
10.52,0.664058049784299
10.559999999999999,0.69522889377172
10.6,0.7269146835823617
10.639999999999999,0.7589423391798109
10.68,0.7911596774558382
10.72,0.8234322551627078
10.76,0.8556406398344601
10.799999999999999,0.8876780955548441
10.84,0.9194486446532464
10.879999999999999,0.9508654570001934
10.92,0.981849517978009
10.96,1.0123285299129485
11.0,1.0422360072111987
11.04,1.0715105312636806
11.08,1.100095136688871
11.12,1.1279368053734704
11.16,1.1549860489630175
11.2,1.1811965639691584
11.24,1.2065249465655283
11.28,1.2309304565243495
11.319999999999999,1.2543748216850505
11.36,1.2768220759212328
11.4,1.298238424849824
11.44,1.318592134562206
11.48,1.3378534394979005
11.52,1.3559944662649006
11.559999999999999,1.3729891707674233
11.6,1.3888132864565972
11.64,1.4034442818921173
11.68,1.41686132610915
11.72,1.4290452605376118
11.759999999999998,1.4399785764305935
11.799999999999999,1.4496453969334717
11.84,1.4580314630718487
11.879999999999999,1.465124123060362
11.92,1.4709123244399607
11.96,1.475386608642231
11.999999999999998,1.4785391076586871
12.04,1.4803635425632935
12.08,1.4808552236999644
12.12,1.4800110524053605
12.16,1.477829524192662
12.200000000000001,1.4743107333758518
12.239999999999998,1.4694563791677717
12.28,1.4632697733406481
12.32,1.455755849596295
12.36,1.4469211748568893
12.4,1.4367739627578235
12.44,1.4253240897043586
12.479999999999999,1.4125831139460663
12.52,1.3985642982311992
12.559999999999999,1.3832826367308806
12.6,1.3667548870758215
12.64,1.3489996085324587
12.68,1.330037207569037
12.719999999999999,1.3098899923354783
12.76,1.2885822379169538
12.799999999999999,1.2661402646363524
12.84,1.2425925321968714
12.88,1.2179697530999414
12.92,1.192305029581228
12.959999999999999,1.1656340193243082
12.999999999999998,1.1379951364973062
13.04,1.1094297962894624
13.08,1.0799827132023574
13.12,1.049702266003923
13.16,1.0186409456489864
13.2,0.9868559068205126
13.239999999999998,0.9544096493176574
13.28,0.9213708626364385
13.32,0.887815476137722
13.36,0.8538279685848322
13.4,0.8195030049224934
13.44,0.7849474851033142
13.479999999999999,0.7502831091109446
13.52,0.7156495823479333
13.559999999999999,0.6812086018726963
13.6,0.6471487671139556
13.64,0.6136915299263519
13.68,0.5810982036237762
13.719999999999999,0.5496778298107136
13.76,0.5197952641260795
13.799999999999999,0.4918780695837483
13.84,0.466419603677423
13.88,0.4439741264056641
13.919999999999998,0.42513837529050014
13.959999999999999,0.4105141877273078
14.0,0.4006504329402162
14.04,0.3959710034625289
14.08,0.39670647958568006
14.120000000000001,0.4028528665646492
14.16,0.41417401475957183
14.2,0.43024652640878414
14.239999999999998,0.45052903399737126
14.28,0.4744326977354878
14.32,0.5013766352439548
14.36,0.5308227947748544
14.399999999999999,0.5622926364380542
14.44,0.595371105175569
14.479999999999999,0.6297032449868616
14.52,0.6649873795301261
14.56,0.7009672802675728
14.6,0.737424612547284
14.64,0.7741722339344169
14.68,0.8110485173214739
14.719999999999999,0.8479126705165587
14.76,0.884640938588851
14.799999999999999,0.921123550527277
14.84,0.9572622759893372
14.879999999999999,0.9929684739443086
14.919999999999998,1.0281615342208967
14.959999999999999,1.0627676313854046
15.0,1.0967187264494105
15.04,1.1299517652626156
15.079999999999998,1.162408033239402
15.120000000000001,1.1940326346467072
15.159999999999998,1.2247740714350122
15.199999999999998,1.2545839018844798
15.24,1.2834164634725056
15.28,1.3112286475989976
15.319999999999999,1.337979716332099
15.36,1.3636311533174368
15.399999999999999,1.3881465425504818
15.439999999999998,1.411491469939237
15.48,1.4336334435560951
15.52,1.4545418292498453
15.559999999999999,1.474187798904959
15.600000000000001,1.4925442891290455
15.639999999999999,1.5095859685468533
15.679999999999998,1.5252892122007626
15.72,1.5396320818189713
15.76,1.5525943109261886
15.799999999999999,1.564157293947063
15.84,1.5743040785977827
15.879999999999999,1.5830193609820806
15.919999999999998,1.5902894829095062
15.96,1.5961024310398648
16.0,1.6004478375316604
16.04,1.6033169819367423
16.080000000000002,1.6047027941402348
16.12,1.6045998581963743
16.16,1.6030044169584627
16.200000000000003,1.5999143774463866
16.24,1.5953293169395124
16.279999999999998,1.5892504898274462
16.319999999999997,1.581680835297679
16.36,1.572624985989055
16.4,1.5620892777948394
16.439999999999998,1.5500817610610707
16.48,1.536612213496975
16.52,1.5216921551974922
16.56,1.5053348662767294
16.6,1.4875554077298334
16.64,1.4683706462848916
16.68,1.4477992841829481
16.72,1.4258618950422337
16.759999999999998,1.4025809672338503
16.799999999999997,1.3779809565359518
16.84,1.3520883502618808
16.88,1.3249317456015997
16.919999999999998,1.2965419456106082
16.96,1.266952077174018
17.0,1.2361977364298546
17.04,1.204317168642403
17.080000000000002,1.1713514914926144
17.12,1.1373449733625873
17.16,1.1023453816615207
17.2,1.0664044208871961
17.24,1.0295782863807312
17.279999999999998,0.9919283682319455
17.32,0.9535221513974971
17.36,0.9144343740256148
17.4,0.8747485279471785
17.44,0.8345588156530397
17.48,0.7939727200172223
17.52,0.7531144006526144
17.56,0.7121292089117148
17.6,0.6711897165605202
17.64,0.6305037815920523
17.68,0.5903253162920432
17.72,0.5509685315888044
17.759999999999998,0.5128263826310866
17.799999999999997,0.4763934394160034
17.84,0.44229184593237003
17.88,0.4112953606317241
17.919999999999998,0.38433944683393445
17.96,0.36249523624446833
18.0,0.34687802809487
18.04,0.3384733096904489
18.080000000000002,0.3379121221395804
18.12,0.3452931237870595
18.159999999999997,0.3601571756542267
18.2,0.3816304939149857
18.24,0.40864621714047267
18.279999999999998,0.44013644928132206
18.32,0.4751451780713329
18.36,0.5128696006499954
18.4,0.5526581877455801
18.44,0.5939899441501739
18.48,0.6364492057082602
18.52,0.6797024427781047
18.560000000000002,0.7234791515217193
18.6,0.7675569313478493
18.64,0.8117501369426856
18.679999999999996,0.8559013535090795
18.72,0.8998750187897345
18.759999999999998,0.9435526478117713
18.799999999999997,0.9868292450326319
18.84,1.0296105949161354
18.88,1.0718112038440075
18.919999999999998,1.1133527271652757
18.96,1.1541627597129727
19.0,1.1941739004322074
19.04,1.2333230251716005
19.080000000000002,1.2715507186732296
19.119999999999997,1.308800829164083
19.159999999999997,1.3450201180046764
19.2,1.380157983516025
19.24,1.414166243045385
19.279999999999998,1.4469989610159226
19.32,1.4786123134727058
19.36,1.5089644817301213
19.4,1.5380155693186752
19.44,1.5657275376499737
19.48,1.5920641567601495
19.52,1.6169909682228363
19.560000000000002,1.6404752578935924
19.6,1.6624860365962253
19.639999999999997,1.6829940272160457
19.68,1.7019716569470644
19.72,1.7193930536657134
19.759999999999998,1.7352340455852466
19.8,1.7494721634919457
19.84,1.7620866449841024
19.88,1.7730584402330825
19.919999999999998,1.782370218867071
19.96,1.7900063776459745
20.0,1.7959530486530864
20.04,1.8001981077778342
20.08,1.8027311833061115
20.119999999999997,1.8035436644716734
20.159999999999997,1.8026287098553841
20.2,1.799981255549605
20.24,1.7955980230339024
20.279999999999998,1.789477526736289
20.32,1.7816200812824476
20.36,1.772027808464622
20.4,1.7607046439932534
20.44,1.7476563441289055
20.48,1.7328904923311816
20.52,1.7164165061064747
20.560000000000002,1.6982456442897145
20.599999999999998,1.6783910150591757
20.639999999999997,1.65686758506098
20.68,1.6336921901154895
20.72,1.6088835480963055
20.759999999999998,1.5824622747215984
20.8,1.5544509031858318
20.84,1.524873908800675
20.88,1.4937577401236282
20.92,1.4611308584550957
20.96,1.4270237881111552
21.0,1.3914691805745931
21.04,1.3545018965532831
21.08,1.3161591112211264
21.119999999999997,1.2764804496095294
21.159999999999997,1.2355081614405303
21.2,1.193287347916495
21.24,1.1498662575067693
21.279999999999998,1.1052966742036507
21.32,1.0596344309819434
21.36,1.0129400947205156
21.4,0.9652798888862265
21.44,0.9167269504508915
21.48,0.8673630636868617
21.52,0.8172810853933657
21.56,0.7665883901144718
21.599999999999998,0.7154118479971202
21.639999999999997,0.6639051505101213
21.68,0.6122598045635178
21.72,0.5607219692625068
21.759999999999998,0.5096187542705044
21.8,0.4593999953502033
21.84,0.41070521752620365
21.88,0.3644699509277725
21.92,0.3220857042760017
21.96,0.2856025416496559
22.0,0.2578547501806012
22.04,0.2421476574890239
22.08,0.2410735549864559
22.119999999999997,0.25497580224468436
22.16,0.2817383979242927
22.2,0.31816951109109254
22.24,0.36134945455222195
22.28,0.4091050958303245
22.32,0.4599445025699182
22.36,0.5128611724296392
22.4,0.5671667218927585
22.44,0.6223767929830861
22.48,0.6781385565034795
22.519999999999996,0.7341854028071323
22.56,0.7903084579335006
22.599999999999998,0.8463383996913426
22.639999999999997,0.9021336262789755
22.68,0.9575724038899088
22.72,1.0125475536488542
22.759999999999998,1.0669627912437107
22.8,1.1207301632866522
22.84,1.1737682251534747
22.88,1.2260007290178156
22.92,1.2773556687582905
22.96,1.3277645783335479
23.0,1.3771620127421544
23.04,1.4254851622285902
23.08,1.4726735648959224
23.119999999999997,1.5186688927903207
23.16,1.5634147933840998
23.2,1.606856773200631
23.24,1.6489421137478932
23.28,1.6896198123892758
23.32,1.7288405425701368
23.36,1.7665566291336365
23.400000000000002,1.8027220354349864
23.44,1.8372923596938107
23.479999999999997,1.8702248385762914
23.519999999999996,1.901478356419305
23.56,1.931013458831766
23.599999999999998,1.9587923696584744
23.639999999999997,1.9847790104867546
23.68,2.008939022029555
23.72,2.0312397868399823
23.759999999999998,2.0516504529091173
23.8,2.070141957776885
23.84,2.0866870528488235
23.88,2.1012603276633675
23.92,2.113838233896973
23.96,2.1243991089301533
23.999999999999996,2.1329231988278567
24.04,2.139392680613756
24.08,2.14379168374097
24.119999999999997,2.1461063106824207
24.16,2.1463246565830696
24.2,2.1444368279343187
24.24,2.140434960248649
24.28,2.134313234730435
24.32,2.1260678939576327
24.36,2.1156972566092467
24.400000000000002,2.1032017312957962
24.439999999999998,2.0885838295754295
24.479999999999997,2.0718481782677576
24.52,2.053001531212216
24.56,2.0320527806594733
24.599999999999998,2.009012968535036
24.64,1.9838952978764532
24.68,1.9567151448228757
24.72,1.927490071632702
24.759999999999998,1.8962398413277646
24.8,1.8629864347191394
24.84,1.8277540707712732
24.88,1.7905692315229196
24.92,1.7514606931261547
24.959999999999997,1.7104595650178214
24.999999999999996,1.6675993398420594
25.04,1.6229159575565195
25.08,1.5764478882627477
25.119999999999997,1.5282362398254188
25.16,1.478324898466908
25.2,1.4267607135140319
25.24,1.3735937417447237
25.28,1.318877572969947
25.32,1.2626697675893217
25.36,1.205032450475819
25.4,1.1460331262829637
25.439999999999998,1.085745813473519
25.479999999999997,1.0242526454540306
25.52,0.9616461701235562
25.56,0.8980327171719776
25.599999999999998,0.8335374385613007
25.64,0.7683120435587094
25.68,0.7025470059201718
25.72,0.6364914418155503
25.76,0.570486615956915
25.8,0.5050245440203287
25.84,0.4408543210751489
25.880000000000003,0.3791807744641834
25.919999999999998,0.32203637488828346
25.959999999999997,0.2729213972659792
25.999999999999996,0.23753361763926356
26.04,0.2231258576892602
26.08,0.23410240292435544
26.119999999999997,0.26770520579595364
26.16,0.3170431578088479
26.2,0.3761062064580195
26.24,0.44106819940507036
26.28,0.5096896141985092
26.32,0.5806448768951507
26.36,0.6531121819550071
26.4,0.7265520102556137
26.439999999999998,0.8005886963973287
26.479999999999997,0.8749454806707659
26.52,0.9494076064306464
26.56,1.02380056906015
26.599999999999998,1.097976844319908
26.64,1.1718075325576123
26.68,1.2451769494180132
26.72,1.3179790376779021
26.76,1.3901149365573258
26.8,1.461491305592704
26.84,1.5320191518420467
26.88,1.6016129999056483
26.919999999999998,1.6701902998932083
26.959999999999997,1.7376710034128475
27.0,1.8039772600781367
27.04,1.8690332017019582
27.08,1.9327647911249994
27.119999999999997,1.99509971925501
27.16,2.055967338456339
27.2,2.115298623617244
27.24,2.1730261544798166
27.28,2.2290841144365157
27.32,2.283408302172598
27.36,2.3359361533969722
27.4,2.386606770544954
27.439999999999998,2.4353609588177623
27.479999999999997,2.482141267288984
27.52,2.5268920340888874
27.56,2.56955943489561
27.599999999999998,2.6100915341341118
27.64,2.648438338421267
27.68,2.6845518519073557
27.72,2.718386133257182
27.76,2.749897354093109
27.8,2.779043858791494
27.839999999999996,2.8057862255863286
27.88,2.83008732899201
27.919999999999998,2.8519124036132766
