Frequency (Hz),Amplitude
0.0,9.040197527814334
0.019867549668874173,9.039709561082917
0.039735099337748346,9.038247432558288
0.059602649006622516,9.035816452502312
0.07947019867549669,9.032425455519242
0.09933774834437085,9.0280867767779
0.11920529801324503,9.02281621866373
0.13907284768211922,9.01663300780457
0.15894039735099338,9.009559742399563
0.17880794701986755,9.001622329770026
0.1986754966887417,8.992849914042177
0.2185430463576159,8.983274793865892
0.23841059602649006,8.972932330072242
0.2582781456953642,8.961860843174
0.27814569536423844,8.950101500620908
0.2980132450331126,8.937698193733157
0.31788079470198677,8.924697404254312
0.33774834437086093,8.91114806048884
0.3576158940397351,8.897101383020201
0.3774834437086093,8.882610720042454
0.3973509933774834,8.867731372384032
0.4172185430463576,8.852520408354335
0.4370860927152318,8.837036468604806
0.45695364238410596,8.82133956126375
0.4768211920529801,8.80549084768109
0.49668874172185434,8.789552419202195
0.5165562913907285,8.77358706548059
0.5364238410596026,8.757658034937036
0.5562913907284769,8.741828788074223
0.5761589403973509,8.726162744463991
0.5960264900662252,8.710723024333905
0.6158940397350993,8.695572185791496
0.6357615894039735,8.680771958836422
0.6556291390728477,8.666382977418827
0.6754966887417219,8.652464510908167
0.695364238410596,8.63907419643277
0.7152317880794702,8.626267773640025
0.7350993377483444,8.614098823502937
0.7549668874172186,8.6026185128605
0.7748344370860927,8.591875346425873
0.7947019867549668,8.581914928021215
0.8145695364238411,8.572779732804925
0.8344370860927152,8.564508892239036
0.8543046357615894,8.557137993504107
0.8741721854304636,8.550698895003897
0.8940397350993378,8.545219559511555
0.9139072847682119,8.540723906395552
0.9337748344370861,8.5372316842256
0.9536423841059603,8.534758364900139
0.9735099337748344,8.53331506025722
0.9933774834437087,8.532908461936694
1.0132450331125828,8.533540805051029
1.033112582781457,8.535209856003876
1.0529801324503312,8.537908924569937
1.0728476821192052,8.541626900122546
1.0927152317880795,8.546348311669973
1.1125827814569538,8.552053411142719
1.1324503311258278,8.558718279164772
1.1523178807947019,8.566314952346463
1.1721854304635762,8.574811570958184
1.1920529801324504,8.584172545684536
1.2119205298013245,8.594358742022125
1.2317880794701985,8.605327680768918
1.2516556291390728,8.61703375296436
1.271523178807947,8.629428447573645
1.2913907284768211,8.642460590168815
1.3112582781456954,8.656076590842996
1.3311258278145695,8.670220699598849
1.3509933774834437,8.684835267479388
1.370860927152318,8.69986101175408
1.390728476821192,8.715237283535961
1.410596026490066,8.730902336281137
1.4304635761589404,8.746793593710674
1.4503311258278146,8.762847915792594
1.4701986754966887,8.779001861525481
1.4900662251655628,8.795191947374944
1.5099337748344372,8.811354900324885
1.5298013245033113,8.827427904617034
1.5496688741721854,8.84334884136268
1.5695364238410596,8.859056520316813
1.5894039735099337,8.874490903207889
1.609271523178808,8.889593318112777
1.6291390728476822,8.904306664457687
1.6490066225165563,8.918575608308428
1.6688741721854303,8.932346767690161
1.6887417218543048,8.945568887744267
1.7086092715231789,8.958193005590847
1.728476821192053,8.97017260481742
1.7483443708609272,8.9814637595596
1.7682119205298013,8.992025268176823
1.7880794701986755,9.00181877655676
1.8079470198675496,9.010808891105706
1.8278145695364238,9.018963281500346
1.847682119205298,9.026252773287508
1.8675496688741722,9.032651430426338
1.8874172185430464,9.038136627868548
1.9072847682119205,9.042689114270894
1.9271523178807946,9.046293064928582
1.9470198675496688,9.048936125008955
1.9668874172185429,9.050609443154231
1.9867549668874174,9.051307695508171
2.0066225165562916,9.051029100206677
2.0264900662251657,9.049775422355864
2.0463576158940397,9.047551969504708
2.066225165562914,9.044367577601724
2.086092715231788,9.040234587408547
2.1059602649006623,9.035168811327056
2.1258278145695364,9.029189490581489
2.1456953642384105,9.022319242683801
2.165562913907285,9.01458399909927
2.185430463576159,9.00601293302048
2.205298013245033,8.996638377152586
2.2251655629139075,8.986495731410885
2.2450331125827816,8.975623360433698
2.2649006622516556,8.964062480820916
2.2847682119205297,8.951857038020604
2.3046357615894038,8.939053572803749
2.324503311258278,8.925701077291667
2.3443708609271523,8.911850840531034
2.364238410596027,8.897556283649315
2.384105960264901,8.882872784668697
2.403973509933775,8.86785749310946
2.423841059602649,8.852569134574196
2.443708609271523,8.837067805573387
2.463576158940397,8.821414758928455
2.4834437086092715,8.805672180173117
2.5033112582781456,8.789902955464317
2.52317880794702,8.774170431611385
2.543046357615894,8.758538168935429
2.562913907284768,8.743069687777703
2.5827814569536423,8.727828209586862
2.6026490066225163,8.712876393626265
2.622516556291391,8.698276070454547
2.642384105960265,8.684087973442132
2.662251655629139,8.670371469690501
2.6821192052980134,8.657184291819384
2.7019867549668874,8.644582272175432
2.7218543046357615,8.632619081092042
2.741721854304636,8.621345970892468
2.76158940397351,8.610811527373757
2.781456953642384,8.601061430534983
2.801324503311258,8.59213822631891
2.821192052980132,8.584081111119039
2.8410596026490067,8.576925730762586
2.8609271523178808,8.57070399561496
2.8807947019867552,8.565443913360234
2.9006622516556293,8.561169440898652
2.9205298013245033,8.557900356663172
2.9403973509933774,8.555652154498194
2.9602649006622515,8.554435960064437
2.9801324503311255,8.55425847053753
3.0,8.555121918159035
3.0198675496688745,8.557024057978708
3.0397350993377485,8.559958179901194
3.0596026490066226,8.56391314492306
3.0794701986754967,8.568873445220207
3.0993377483443707,8.574819287526738
3.119205298013245,8.581726699036771
3.1390728476821192,8.589567654865238
3.1589403973509933,8.598310225925218
3.1788079470198674,8.607918745919664
3.198675496688742,8.618353996008445
3.218543046357616,8.629573405597132
3.23841059602649,8.641531267604464
3.2582781456953644,8.654178966499954
3.2781456953642385,8.667465217362725
3.2980132450331126,8.681336314195484
3.3178807947019866,8.695736385733504
3.3377483443708607,8.71060765701437
3.3576158940397347,8.725890715020482
3.3774834437086096,8.741524776767706
3.3973509933774837,8.757447958290356
3.4172185430463577,8.77359754306112
3.437086092715232,8.789910248481686
3.456953642384106,8.806322489184705
3.47682119205298,8.822770635996678
3.4966887417218544,8.839191269522154
3.5165562913907285,8.85552142742189
3.5364238410596025,8.871698844567039
3.556291390728477,8.887662185358517
3.576158940397351,8.903351267603371
3.596026490066225,8.918707277436527
3.615894039735099,8.933672974867008
3.6357615894039736,8.948192889610997
3.6556291390728477,8.962213506950453
3.6754966887417218,8.975683443423387
3.695364238410596,8.988553612213003
3.7152317880794703,9.000777378154874
3.7350993377483444,9.01231070232663
3.754966887417219,9.02311227622127
3.774834437086093,9.033143645536892
3.794701986754967,9.042369323638148
3.814569536423841,9.050756894763499
3.834437086092715,9.058277107063223
3.854304635761589,9.064903955560927
3.8741721854304636,9.070614755132834
3.8940397350993377,9.075390203597044
3.9139072847682117,9.079214434999923
3.9337748344370858,9.082075063177253
3.9536423841059607,9.083963215657047
3.9735099337748347,9.084873557957273
3.993377483443709,9.084804308316402
4.013245033112583,9.08375724287899
4.033112582781457,9.081737691340964
4.052980132450331,9.078754523042605
4.072847682119205,9.074820123480317
4.0927152317880795,9.069950361191431
4.112582781456953,9.064164544952515
4.132450331125828,9.057485371216961
4.152317880794702,9.049938861707483
4.172185430463576,9.041554291070032
4.19205298013245,9.032364104490409
4.211920529801325,9.022403825172988
4.231788079470199,9.01171195158389
4.251655629139073,9.00032984436715
4.271523178807947,8.988301602855708
4.291390728476821,8.975673931116937
4.311258278145695,8.96249599349616
4.33112582781457,8.948819259653614
4.3509933774834435,8.93469733912769
4.370860927152318,8.92018580550306
4.390728476821192,8.905342010315755
4.410596026490066,8.8902248868882
4.43046357615894,8.874894744356057
4.450331125827815,8.859413052226234
4.470198675496689,8.843842215889072
4.490066225165563,8.828245343599555
4.509933774834438,8.812686005540439
4.529801324503311,8.79722798568337
4.549668874172186,8.781935027271889
4.569536423841059,8.766870572861619
4.589403973509934,8.752097499964608
4.6092715231788075,8.737677853457862
4.629139072847682,8.723672576024576
4.649006622516556,8.71014123800272
4.66887417218543,8.697141768112939
4.688741721854305,8.684730186626942
4.708609271523179,8.67296034261303
4.728476821192054,8.661883656959423
4.748344370860927,8.651548872918944
4.768211920529802,8.642001815946502
4.788079470198675,8.633285164605233
4.80794701986755,8.625438234299137
4.827814569536423,8.618496775549287
4.847682119205298,8.6124927884638
4.867549668874172,8.607454354961558
4.887417218543046,8.603405490193474
4.9072847682119205,8.600366014467696
4.927152317880794,8.598351446823374
4.947019867549669,8.597372921218803
4.966887417218543,8.597437126102388
4.986754966887418,8.598546267924876
5.006622516556291,8.600698058930856
5.026490066225166,8.603885729341378
5.04635761589404,8.608098063811177
5.066225165562914,8.613319461817852
5.086092715231788,8.61953002142068
5.105960264900662,8.626705645616731
5.125827814569536,8.634818170326273
5.14569536423841,8.643835512860383
5.1655629139072845,8.65372183956398
5.185430463576159,8.664437751190283
5.205298013245033,8.675940484448342
5.225165562913908,8.68818412807545
5.245033112582782,8.701119851720856
5.264900662251656,8.714696145887347
5.28476821192053,8.728859071159535
5.304635761589404,8.7435525149541
5.324503311258278,8.758718454053795
5.344370860927152,8.774297221232176
5.364238410596027,8.790227774339028
5.3841059602649,8.80644796629263
5.403973509933775,8.82289481451366
5.4238410596026485,8.839504768433347
5.443708609271523,8.856213973813064
5.463576158940397,8.872958532721874
5.483443708609272,8.889674758129868
5.503311258278146,8.906299422186652
5.52317880794702,8.922769997365076
5.543046357615895,8.939024889756668
5.562913907284768,8.955003663908249
5.582781456953643,8.97064725868608
5.602649006622516,8.985898193744532
5.622516556291391,9.000700766259687
5.642384105960264,9.015001237664393
5.662251655629139,9.028748010189688
5.682119205298013,9.041891793077077
5.701986754966887,9.05438575838015
5.7218543046357615,9.066185686317047
5.741721854304636,9.077250100174554
5.7615894039735105,9.08754039079359
5.781456953642384,9.097020930690789
5.801324503311259,9.105659177887553
5.821192052980132,9.11342576953085
5.841059602649007,9.120294605395696
5.860927152317881,9.126242921362609
5.880794701986755,9.131251352960009
5.900662251655629,9.135303989056862
5.920529801324503,9.138388415781563
5.940397350993377,9.140495750731862
5.960264900662251,9.141620667526968
5.980132450331126,9.141761410738052
6.0,9.140919801217084
6.0198675496688745,9.13910123182676
6.039735099337749,9.1363146535575
6.059602649006623,9.132572552000285
6.079470198675497,9.127890914128034
6.099337748344371,9.122289185323497
6.119205298013245,9.115790216578015
6.139072847682119,9.108420201774484
6.158940397350993,9.100208604959835
6.178807947019867,9.09118807750628
6.198675496688741,9.081394365059909
6.218543046357616,9.070866204177268
6.23841059602649,9.059645208558173
6.258278145695365,9.047775744795926
6.2781456953642385,9.035304797583994
6.298013245033113,9.022281824343777
6.317880794701987,9.008758599268884
6.337748344370861,8.994789046820218
6.357615894039735,8.980429064752562
6.377483443708609,8.965736336806623
6.397350993377484,8.950770135262989
6.417218543046357,8.935591113623648
6.437086092715232,8.920261089764313
6.456953642384105,8.904842819986483
6.47682119205298,8.88939976448974
6.496688741721854,8.873995844883614
6.516556291390729,8.85869519446292
6.5364238410596025,8.843561902078552
6.556291390728477,8.828659750547612
6.5761589403973515,8.814051950659769
6.596026490066225,8.799800871949367
6.6158940397351,8.785967771512656
6.635761589403973,8.772612522255654
6.655629139072848,8.759793342055424
6.675496688741721,8.747566525407251
6.695364238410596,8.73598617920602
6.715231788079469,8.725103964372508
6.735099337748344,8.71496884507995
6.754966887417219,8.705626847361824
6.774834437086093,8.697120828886586
6.794701986754967,8.689490261666226
6.814569536423841,8.682771029423309
6.8344370860927155,8.676995241274065
6.854304635761589,8.672191063293036
6.874172185430464,8.668382569408086
6.894039735099337,8.665589612935127
6.913907284768212,8.663827719899826
6.933774834437086,8.663108005112552
6.95364238410596,8.663437111764713
6.973509933774834,8.664817175103392
6.993377483443709,8.667245810519217
7.013245033112583,8.670716126155547
7.033112582781457,8.675216759917431
7.052980132450331,8.680731940532148
7.072847682119205,8.68724157209198
7.0927152317880795,8.694721341300236
7.112582781456954,8.703142846444578
7.132450331125828,8.712473746942507
7.152317880794702,8.722677932143979
7.172185430463576,8.733715707938966
7.19205298013245,8.745543999602845
7.211920529801324,8.758116569223231
7.231788079470198,8.771384245986837
7.251655629139073,8.785295167564259
7.271523178807947,8.799795030814728
7.291390728476822,8.814827350038128
7.311258278145695,8.830333721029461
7.33112582781457,8.84625408923622
7.3509933774834435,8.862527020382352
7.370860927152318,8.879089971999317
7.390728476821192,8.895879564393704
7.410596026490066,8.912831849679074
7.430463576158941,8.929882577604817
7.450331125827814,8.946967457023959
7.470198675496689,8.964022411954138
7.490066225165562,8.980983831297715
7.509933774834438,8.997788811397351
7.52980132450331,9.014375390710718
7.549668874172186,9.030682775991153
7.569536423841059,9.046651559457622
7.589403973509934,9.062223926528747
7.6092715231788075,9.077343853779098
7.629139072847682,9.091957296851753
7.649006622516557,9.10601236813006
7.66887417218543,9.11945950403169
7.6887417218543055,9.132251621840169
7.708609271523178,9.144344266035091
7.728476821192054,9.155695744118553
7.748344370860927,9.1662672519667
7.768211920529802,9.176022988758392
7.788079470198675,9.18493026155121
7.80794701986755,9.19295957958645
7.827814569536423,9.200084738411721
7.847682119205298,9.206282893911824
7.8675496688741715,9.21153462633637
7.887417218543046,9.21582399440677
7.907284768211921,9.219138579576963
7.927152317880795,9.221469520509917
7.9470198675496695,9.222811537819151
7.966887417218543,9.223162949108978
7.986754966887418,9.222525674331113
8.006622516556291,9.220905231458008
8.026490066225167,9.218310722456337
8.046357615894038,9.214754809527381
8.066225165562914,9.210253681564504
8.086092715231787,9.204827010763378
8.105960264900663,9.198497899307224
8.125827814569536,9.191292816038702
8.14569536423841,9.183241523021511
8.165562913907285,9.174376991889776
8.185430463576159,9.16473530988251
8.205298013245034,9.15435557546271
8.225165562913906,9.143279783429055
8.245033112582782,9.131552699441448
8.264900662251655,9.119221723899637
8.28476821192053,9.106336745141386
8.304635761589404,9.092949981956512
8.324503311258278,9.079115815454841
8.344370860927151,9.064890610371112
8.364238410596027,9.050332525945826
8.3841059602649,9.035501316583272
8.403973509933774,9.02045812255878
8.42384105960265,9.005265251125682
8.443708609271523,8.989985948458887
8.463576158940398,8.974684162964902
8.483443708609272,8.95942430058832
8.503311258278146,8.944270972849257
8.52317880794702,8.92928873845657
8.543046357615895,8.914541839453438
8.562913907284768,8.900093932966493
8.582781456953642,8.886007819742016
8.602649006622515,8.872345170764342
8.62251655629139,8.859166253356918
8.642384105960264,8.846529658264675
8.66225165562914,8.83449202930586
8.682119205298013,8.823107797257052
8.701986754966887,8.812428919697041
8.721854304635762,8.802504628579364
8.741721854304636,8.79338118732796
8.76158940397351,8.785101659253998
8.781456953642383,8.777705689072024
8.801324503311259,8.771229299249757
8.821192052980132,8.765704702857153
8.841059602649008,8.761160134486518
8.86092715231788,8.757619700697404
8.880794701986755,8.75510325129762
8.90066225165563,8.75362627260902
8.920529801324504,8.753199803682644
8.940397350993377,8.753830376228885
8.960264900662251,8.755519978814382
8.980132450331126,8.758266045654366
9.0,8.762061470101068
9.019867549668875,8.766894642696952
9.039735099337747,8.772749513434674
9.059602649006623,8.779605677643282
9.079470198675496,8.787438484709723
9.099337748344372,8.796219168647262
9.119205298013245,8.805914999343164
9.139072847682119,8.81648945315795
9.158940397350994,8.827902401410782
9.178807947019868,8.840110315172126
9.198675496688743,8.853066484694489
9.218543046357615,8.866721251748332
9.23841059602649,8.881022253090173
9.258278145695364,8.895914673273863
9.27814569536424,8.911341505022953
9.298013245033111,8.927243815409762
9.317880794701987,8.943561016133444
9.33774834437086,8.960231136252695
9.357615894039736,8.97719109580674
9.37748344370861,8.994376978847413
9.397350993377483,9.011724304504321
9.417218543046358,9.029168294810347
9.437086092715232,9.046644138125252
9.456953642384107,9.064087247106759
9.47682119205298,9.081433510291365
9.496688741721854,9.098619536458235
9.516556291390728,9.11558289105607
9.536423841059603,9.13226232407733
9.556291390728477,9.148597988860349
9.57615894039735,9.164531651392092
9.596026490066224,9.180006889766682
9.6158940397351,9.19496928353266
9.635761589403973,9.209366592728884
9.655629139072847,9.223148926470655
9.675496688741722,9.236268900999372
9.695364238410596,9.248681787154625
9.715231788079471,9.260345647264584
9.735099337748345,9.271221461481446
9.754966887417218,9.281273243611892
9.774834437086092,9.290468146510785
9.794701986754967,9.298776557117336
9.814569536423841,9.306172181220418
9.834437086092716,9.312632118040991
9.854304635761588,9.318136924717743
9.874172185430464,9.322670670776379
9.894039735099337,9.326220982653615
9.913907284768213,9.32877907833588
9.933774834437086,9.33033979215865
9.95364238410596,9.330901589797692
9.973509933774835,9.330466573466556
9.993377483443709,9.329040477318088
10.013245033112582,9.326632653030456
10.033112582781456,9.323256045541353
10.052980132450331,9.318927158878099
10.072847682119205,9.313666012016457
10.09271523178808,9.3074960846883
10.112582781456952,9.300444253046932
10.132450331125828,9.29254071509204
10.152317880794701,9.283818905750271
10.172185430463577,9.274315401507618
10.192052980132452,9.264069814492972
10.211920529801324,9.253124675920903
10.2317880794702,9.241525308814868
10.251655629139073,9.229319689953032
10.271523178807948,9.216558301004056
10.29139072847682,9.203293968854192
10.311258278145695,9.189581695166636
10.331125827814569,9.175478475263079
10.350993377483444,9.16104310647268
10.370860927152318,9.146335986157943
10.390728476821192,9.13141889969904
10.410596026490065,9.11635479879807
10.43046357615894,9.10120757055216
10.450331125827816,9.086041797839298
10.470198675496688,9.070922511661342
10.490066225165563,9.055914936195663
10.509933774834437,9.041084227417297
10.529801324503312,9.026495206267109
10.549668874172186,9.012212087456481
10.56953642384106,8.998298205112635
10.589403973509933,8.984815736580492
10.609271523178808,8.971825425802683
10.629139072847682,8.95938630779771
10.649006622516556,8.947555435845306
10.66887417218543,8.936387613063312
10.688741721854305,8.925935130121225
10.70860927152318,8.916247510878673
10.728476821192054,8.90737126776032
10.748344370860927,8.899349668680422
10.7682119205298,8.892222517308324
10.788079470198676,8.886025948420308
10.80794701986755,8.880792240011555
10.827814569536423,8.876549643746513
10.847682119205297,8.87332223520377
10.867549668874172,8.871129785228046
10.887417218543046,8.869987653534979
10.907284768211921,8.86990670552904
10.927152317880793,8.87089325309212
10.947019867549669,8.872949019885187
10.966887417218544,8.876071131479689
10.986754966887418,8.880252130405184
