Frequency (Hz),Amplitude
0.0,3.318360491045547
0.019801980198019802,3.3310317710072663
0.039603960396039604,3.3687103745876783
0.0594059405940594,3.4304274410717213
0.07920792079207921,3.514681734340819
0.09900990099009901,3.619581416067935
0.1188118811881188,3.7429973669207546
0.13861386138613863,3.882703461285087
0.15841584158415842,4.0364888571901405
0.1782178217821782,4.202237352869014
0.19801980198019803,4.377976093880967
0.21782178217821782,4.561899635257556
0.2376237623762376,4.752376292767378
0.25742574257425743,4.947943014462246
0.27722772277227725,5.1472936414499175
0.297029702970297,5.349264006485248
0.31683168316831684,5.552816120668512
0.33663366336633666,5.757022800001332
0.3564356435643564,5.961053462163628
0.37623762376237624,6.164161421233766
0.39603960396039606,6.365672762863119
0.4158415841584158,6.564976743478744
0.43564356435643564,6.761517586314308
0.45544554455445546,6.9547875179791205
0.4752475247524752,7.144320884363429
0.495049504950495,7.329689192825397
0.5148514851485149,7.510496942003711
0.5346534653465347,7.686378117251171
0.5544554455445545,7.856993246352768
0.5742574257425742,8.022026925725147
0.594059405940594,8.181185741183661
0.613861386138614,8.334196519460981
0.6336633663366337,8.480804857023287
0.6534653465346534,8.62077388150317
0.6732673267326733,8.753883208440374
0.6930693069306931,8.879928062187828
0.7128712871287128,8.998718534980016
0.7326732673267327,9.11007896244115
0.7524752475247525,9.213847397372854
0.7722772277227723,9.30987516662756
0.7920792079207921,9.39802649834896
0.8118811881188118,9.47817820892894
0.8316831683168316,9.550219440765554
0.8514851485148516,9.614051443366808
0.8712871287128713,9.669587391579748
0.891089108910891,9.716752235776069
0.9108910891089109,9.755482579726422
0.9306930693069307,9.78572658267476
0.9504950495049505,9.80744388280689
0.9702970297029703,9.820605539911353
0.99009900990099,9.825193995576491
1.00990099009901,9.821203049767613
1.0297029702970297,9.808637853098123
1.0495049504950495,9.787514914560603
1.0693069306930694,9.757862124928677
1.0891089108910892,9.719718796492657
1.108910891089109,9.673135720259602
1.1287128712871286,9.618175242248126
1.1485148514851484,9.554911361050262
1.1683168316831685,9.483429849434565
1.188118811881188,9.403828403442313
1.2079207920792079,9.316216823203325
1.227722772277228,9.220717230592586
1.2475247524752475,9.117464329892208
1.2673267326732673,9.006605718849016
1.2871287128712872,8.88830225896665
1.3069306930693068,8.762728515591645
1.3267326732673268,8.630073280405117
1.3465346534653466,8.490540191385225
1.3663366336633662,8.344348468248587
1.3861386138613863,8.191733784911175
1.405940594059406,8.03294930475464
1.4257425742574257,7.868266909583329
1.4455445544554455,7.697978659274807
1.4653465346534653,7.522398526444635
1.4851485148514851,7.341864459158728
1.504950495049505,7.156740835023376
1.5247524752475248,6.967421382018037
1.5445544554455446,6.77433265527118
1.5643564356435644,6.57793817448626
1.5841584158415842,6.378743343421287
1.6039603960396038,6.177301289604867
1.6237623762376237,5.974219777176088
1.6435643564356437,5.770169354480377
1.6633663366336633,5.5658928942134285
1.683168316831683,5.362216656625376
1.7029702970297032,5.160062938446971
1.7227722772277227,4.960464235792962
1.7425742574257426,4.7645786107990675
1.7623762376237624,4.573705558511186
1.782178217821782,4.389301061323055
1.801980198019802,4.212989633517184
1.8217821782178218,4.046569971957733
1.8415841584158414,3.892009410523676
1.8613861386138615,3.7514209920408814
1.881188118811881,3.627016205348345
1.900990099009901,3.5210272453534674
1.920792079207921,3.435596205771186
1.9405940594059405,3.3726356813948493
1.9603960396039604,3.333675191356674
1.98019801980198,3.319717665104887
2.0,3.33113504744965
2.01980198019802,3.367627519496607
2.0396039603960396,3.4282566066491555
2.0594059405940595,3.5115437954782176
2.0792079207920793,3.615611257117007
2.099009900990099,3.738335613502467
2.118811881188119,3.8774896712552684
2.1386138613861387,4.030856597413658
2.1584158415841586,4.19631111639488
2.1782178217821784,4.371869741091531
2.1980198019801978,4.555715951501345
2.217821782178218,4.746207278906357
2.237623762376238,4.941870602991884
2.257425742574257,5.141390617397368
2.2772277227722775,5.343594987969609
2.297029702970297,5.547438511781729
2.3168316831683167,5.75198766897076
2.336633663366337,5.956406323940939
2.3564356435643563,6.159942919568674
2.376237623762376,6.361919255875294
2.3960396039603964,6.561720801238024
2.4158415841584158,6.758788410723041
2.4356435643564356,6.952611295475134
2.455445544554456,7.142721081357812
2.4752475247524752,7.328686802798865
2.495049504950495,7.510110692067885
2.514851485148515,7.686624640877358
2.5346534653465347,7.85788722795255
2.5544554455445545,8.023581221864312
2.5742574257425743,8.183411482429502
2.594059405940594,8.337103196198749
2.6138613861386135,8.484400392017825
2.633663366336634,8.625064691513913
2.6534653465346536,8.75887425680918
2.673267326732673,8.88562290399587
2.6930693069306932,9.005119356102236
2.712871287128713,9.117186613605414
2.7326732673267324,9.22166142414638
2.7524752475247527,9.318393836100759
2.7722772277227725,9.407246823159223
2.792079207920792,9.488095969160737
2.811881188118812,9.560829204174096
2.8316831683168315,9.625346584297226
2.8514851485148514,9.68156010889051
2.8712871287128716,9.729393570020978
2.891089108910891,9.768782429802954
2.910891089108911,9.799673722106492
2.9306930693069306,9.822025975792128
2.9504950495049505,9.83580915723898
2.9702970297029703,9.84100463048151
2.99009900990099,9.837605133773021
3.00990099009901,9.825614771865574
3.0297029702970297,9.805049023748678
3.0495049504950495,9.775934766035252
3.0693069306930694,9.738310312634347
3.089108910891089,9.692225471818194
3.108910891089109,9.637741622288821
3.128712871287129,9.574931810389977
3.148514851485148,9.503880871209374
3.1683168316831685,9.424685576990738
3.1881188118811883,9.337454817045646
3.2079207920792077,9.242309814244825
3.227722772277228,9.139384384205444
3.2475247524752473,9.0288252445096
3.267326732673267,8.910792382728225
3.2871287128712874,8.785459493734825
3.3069306930693068,8.653014498832027
3.3267326732673266,8.513660161652922
3.346534653465347,8.367614818723384
3.366336633663366,8.215113246083323
3.386138613861386,8.056407687586145
3.4059405940594063,7.891769075567376
3.4257425742574257,7.721488480662057
3.4455445544554455,7.545878834835967
3.4653465346534653,7.365276980379449
3.485148514851485,7.180046107883283
3.504950495049505,6.99057865823966
3.5247524752475248,6.79729977755969
3.5445544554455446,6.6006714294653435
3.564356435643564,6.401197286048614
3.5841584158415842,6.199428535839282
3.603960396039604,5.995970762306343
3.6237623762376234,5.791492055971248
3.6435643564356437,5.586732520683952
3.6633663366336635,5.382515309397342
3.683168316831683,5.179759260071826
3.702970297029703,4.979493072567341
3.722772277227723,4.782870735405252
3.7425742574257423,4.591187526687502
3.762376237623762,4.4058953146227235
3.7821782178217824,4.228615008749216
3.801980198019802,4.061142832464583
3.8217821782178216,3.905445662256197
3.841584158415842,3.7636392623952997
3.8613861386138613,3.6379424031250194
3.881188118811881,3.530600535076831
3.9009900990099013,3.443776083968266
3.9207920792079207,3.3794093633541054
3.9405940594059405,3.339064040655056
3.96039603960396,3.323781165788147
3.98019801980198,3.3339710674609924
4.0,3.3693683923227424
4.01980198019802,3.429061611281394
4.03960396039604,3.511589490507444
4.0594059405940595,3.6150814584856805
4.079207920792079,3.737412543560914
4.099009900990099,3.8763471852219578
4.118811881188119,4.0296557334220635
4.138613861386139,4.195197736046213
4.158415841584159,4.370973790016507
4.178217821782178,4.555151826441271
4.198019801980198,4.746074856570383
4.217821782178218,4.94225659599748
4.237623762376238,5.142370031037857
4.257425742574258,5.345232539448278
4.2772277227722775,5.5497899368961106
4.297029702970297,5.755100883065646
4.316831683168317,5.960322429505396
4.336633663366336,6.164697067166593
4.356435643564357,6.367541372165672
4.376237623762377,6.56823620051191
4.3960396039603955,6.766218306558703
4.415841584158416,6.960973227992227
4.435643564356436,7.152029273856406
4.455445544554455,7.338952459713765
4.475247524752476,7.5213422483729815
4.4950495049504955,7.698827971444378
4.514851485148514,7.871065823942927
4.534653465346535,8.037736340015883
4.554455445544555,8.198542272076521
4.574257425742574,8.353206808012308
4.594059405940594,8.501472071750294
4.613861386138614,8.64309786145169
4.633663366336633,8.777860587162605
4.653465346534653,8.90555237606472
4.673267326732674,9.02598031873545
4.693069306930693,9.138965834210252
4.712871287128713,9.244344135286283
4.732673267326733,9.34196377854276
4.752475247524752,9.431686286084068
4.772277227722772,9.513385828126898
4.792079207920793,9.586948957324681
4.811881188118812,9.65227438721377
4.8316831683168315,9.709272808425945
4.851485148514852,9.757866737383377
4.871287128712871,9.797990393110133
4.891089108910891,9.829589598587052
4.910891089108912,9.852621703770101
4.930693069306931,9.867055528005409
4.9504950495049505,9.872871320126125
4.97029702970297,9.87006073502207
4.99009900990099,9.85862682594669
5.00990099009901,9.838584052280043
5.02970297029703,9.809958302913847
5.0495049504950495,9.772786935875315
5.069306930693069,9.727118835275474
5.089108910891089,9.673014487163398
5.108910891089109,9.610546076408214
5.128712871287129,9.539797607327243
5.148514851485149,9.460865051451542
5.1683168316831685,9.373856526586895
5.188118811881188,9.278892512214322
5.207920792079208,9.176106107306838
5.227722772277227,9.065643337851462
5.247524752475248,8.94766352279855
5.267326732673268,8.822339708862524
5.2871287128712865,8.689859186627755
5.306930693069307,8.55042410284205
5.326732673267327,8.404252186692501
5.346534653465346,8.251577611357998
5.366336633663367,8.09265201633998
5.3861386138613865,7.9277457211317675
5.405940594059405,7.757149166863244
5.425742574257426,7.581174629835852
5.445544554455446,7.400158259545751
5.465346534653465,7.214462504079427
5.485148514851486,7.0244789978286235
5.504950495049505,6.830632000400897
5.524752475247524,6.633382491315178
5.544554455445545,6.433233042157484
5.564356435643565,6.2307336053327145
5.584158415841584,6.02648837438984
5.603960396039604,5.821163881477425
5.623762376237624,5.61549849652658
5.643564356435643,5.410313469883338
5.663366336633663,5.206525598813358
5.683168316831684,5.005161473314677
5.702970297029703,4.807373031119271
5.7227722772277225,4.614453775169771
5.742574257425743,4.427854416787388
5.762376237623762,4.249195840537792
5.782178217821782,4.080276106730776
5.801980198019803,3.923066766845709
5.821782178217822,3.7796923060874943
5.841584158415841,3.652385599237956
5.861386138613861,3.5434128166417875
5.881188118811881,3.4549644528030172
5.900990099009901,3.38901597935815
5.920792079207921,3.347171622739184
5.9405940594059405,3.3305151607360264
5.96039603960396,3.3394974691945527
5.98019801980198,3.3738870516745347
6.0,3.4327960318528636
6.01980198019802,3.5147749559954713
6.03960396039604,3.617953528807816
6.0594059405940595,3.740197505342244
6.079207920792079,3.879255259816586
6.099009900990099,4.032877097984993
6.118811881188119,4.198900919868771
6.138613861386139,4.375305804793777
6.158415841584159,4.56023939821265
6.178217821782178,4.752026245438061
6.198019801980198,4.949163637590948
6.217821782178218,5.150310166722698
6.237623762376237,5.354270703943544
6.257425742574258,5.559980241605334
6.2772277227722775,5.766488077022355
6.297029702970296,5.972943144724118
6.316831683168317,6.178580867750285
6.336633663366337,6.382711631510468
6.356435643564356,6.584710831615239
6.376237623762377,6.78401036884862
6.396039603960396,6.980091431503667
6.415841584158415,7.172478398697819
6.435643564356436,7.3607337059720415
6.455445544554456,7.5444535290749
6.475247524752475,7.723264158994123
6.495049504950495,7.8968189585914965
6.514851485148515,8.064795807364364
6.534653465346534,8.226894955333401
6.554455445544554,8.382837219675174
6.574257425742575,8.532362468525127
6.594059405940594,8.675228345526545
6.6138613861386135,8.811209196385235
6.633663366336634,8.940095165112865
6.653465346534653,9.061691432993557
6.673267326732673,9.175817577760077
6.693069306930694,9.282307034169413
6.712871287128713,9.381006640247675
6.732673267326732,9.471776256042618
6.752475247524753,9.554488443865777
6.772277227722772,9.629028200802807
6.792079207920792,9.695292735780814
6.811881188118813,9.753191284757037
6.8316831683168315,9.802644958678206
6.851485148514851,9.843586619787493
6.871287128712871,9.8759607826574
6.891089108910891,9.899723537026846
6.910891089108911,9.914842490139574
6.930693069306931,9.921296726836736
6.9504950495049505,9.91907678616625
6.97029702970297,9.90818465374739
6.99009900990099,9.888633769585518
7.00990099009901,9.860449051480046
7.02970297029703,9.823666934621032
7.0495049504950495,9.7783354284379
7.069306930693069,9.72451419226083
7.089108910891089,9.662274631893538
7.108910891089109,9.59170001979305
7.128712871287128,9.51288564222226
7.148514851485149,9.425938977506332
7.1683168316831685,9.330979910407502
7.188118811881187,9.228140988661757
7.207920792079208,9.11756772893027
7.227722772277228,8.999418980846517
7.247524752475247,8.873867359537902
7.267326732673268,8.741099759024774
7.287128712871287,8.601317961323298
7.306930693069306,8.454739358985671
7.326732673267327,8.30159781230626
7.346534653465347,8.142144666626526
7.366336633663366,7.976649960231469
7.3861386138613865,7.805403859412247
7.405940594059406,7.628718364564139
7.425742574257425,7.4469293399030185
7.445544554455446,7.260398929724858
7.465346534653466,7.069518436288477
7.485148514851485,6.8747117484810865
7.504950495049505,6.676439426376939
7.524752475247524,6.475203564252947
7.544554455445544,6.271553572649332
7.564356435643565,6.06609303675311
7.584158415841584,5.859487820225058
7.603960396039604,5.652475584480077
7.623762376237624,5.445876873213748
7.643564356435643,5.240607854391177
7.663366336633663,5.037694691957038
7.683168316831684,4.838289300404557
7.702970297029703,4.6436858662590526
7.7227722772277225,4.455336937785156
7.742574257425743,4.274867021089235
7.762376237623762,4.104080435524693
7.782178217821782,3.9449587162308855
7.801980198019803,3.799641333410402
7.821782178217822,3.6703824677773
7.841584158415841,3.559476986328563
7.861386138613862,3.4691518433199304
7.881188118811881,3.4014258826088475
7.900990099009901,3.3579511378930413
7.92079207920792,3.339859527505849
7.9405940594059405,3.3476452957750507
7.96039603960396,3.3811106025129396
7.980198019801979,3.439388031569259
8.0,3.5210342071924807
8.01980198019802,3.6241716847703134
8.03960396039604,3.74664867158398
8.05940594059406,3.886189126076593
8.07920792079208,4.040515446411785
8.099009900990099,4.20743684001382
8.118811881188119,4.3849047784297674
8.138613861386139,4.571041484873725
8.158415841584159,4.764148774863002
8.178217821782178,4.962704006708933
8.198019801980198,5.165348500218455
8.217821782178218,5.370872254944552
8.237623762376238,5.578197485875395
8.257425742574258,5.786362499618326
8.277227722772277,5.994506742163068
8.297029702970297,6.2018573992661805
8.316831683168317,6.407717655589984
8.336633663366337,6.611456562384084
8.356435643564357,6.812500383293785
8.376237623762377,7.010325254267707
8.396039603960396,7.204450986965803
8.415841584158416,7.394435853126554
8.435643564356436,7.579872202448787
8.455445544554456,7.760382784221967
8.475247524752476,7.935617660714524
8.495049504950495,8.1052516169196
8.514851485148515,8.268981986093335
8.534653465346535,8.426526823437444
8.554455445544555,8.577623371329663
8.574257425742575,8.722026768852556
8.594059405940595,8.859508966215875
8.613861386138613,8.989857811218558
8.633663366336634,9.112876280350974
8.653465346534654,9.228381831672369
8.673267326732672,9.336205860367505
8.693069306930694,9.436193241019781
8.712871287128714,9.52820194324889
8.732673267326732,9.612102709538847
8.752475247524753,9.687778785906392
8.772277227722773,9.755125697591842
8.792079207920791,9.814051063248652
8.811881188118813,9.864474442206424
8.831683168316832,9.906327210322152
8.85148514851485,9.93955246074531
8.871287128712872,9.964104926629647
8.891089108910892,9.979950923449929
8.91089108910891,9.987068309142549
8.930693069306932,9.985446460802411
8.950495049504951,9.975086267147876
8.97029702970297,9.956000136423835
8.990099009900991,9.928212019863524
9.00990099009901,9.891757451282862
9.029702970297029,9.846683603850108
9.04950495049505,9.79304936557073
9.06930693069307,9.73092543556596
9.089108910891088,9.66039444381952
9.10891089108911,9.581551097736476
9.12871287128713,9.494502359622388
9.148514851485148,9.39936766007285
9.16831683168317,9.296279153291175
9.188118811881187,9.18538202155868
9.207920792079207,9.066834837509203
9.227722772277229,8.940809994554774
9.247524752475247,8.807494217832708
9.267326732673267,8.667089170466896
9.287128712871288,8.519812172845072
9.306930693069306,8.365897056111647
9.326732673267326,8.205595175289236
9.346534653465348,8.039176612515197
9.366336633663366,7.86693160698719
9.386138613861386,7.689172255545786
9.405940594059407,7.506234536599238
9.425742574257425,7.3184807205343825
9.445544554455445,7.1263022420618265
9.465346534653467,6.930123124246014
9.485148514851485,6.730404060255802
9.504950495049505,6.527647276819234
9.524752475247526,6.322402322117679
9.544554455445544,6.11527293860497
9.564356435643564,5.906925194609234
9.584158415841586,5.69809705164163
9.603960396039604,5.489609527159212
9.623762376237623,5.282379559087918
9.643564356435645,5.077434563856319
9.663366336633663,4.875928467191206
9.683168316831683,4.679158625080129
9.702970297029704,4.48858247566503
9.722772277227723,4.30583190084473
9.742574257425742,4.132722080226618
9.762376237623764,3.9712501209200375
9.782178217821782,3.8235771569579318
9.801980198019802,3.6919864618073452
9.821782178217823,3.578810359404093
9.841584158415841,3.4863216402726107
9.861386138613861,3.4165918860451265
9.881188118811881,3.371329413131666
9.900990099009901,3.351720854811853
9.92079207920792,3.3583075756651173
9.94059405940594,3.390925746113267
9.96039603960396,3.4487253214426223
9.98019801980198,3.5302629697620325
10.0,3.633645997587742
10.01980198019802,3.7566959085491365
10.03960396039604,3.897102939649704
10.05940594059406,4.0525527933985535
10.07920792079208,4.220818110605289
10.099009900990099,4.399815960353955
10.118811881188119,4.58763743130776
10.138613861386139,4.782556887509132
10.158415841584159,4.983027888679574
10.178217821782178,5.187671328389167
10.198019801980198,5.395259757606343
10.217821782178218,5.604700496755399
10.237623762376238,5.8150191071341615
10.257425742574258,6.025344075845788
10.277227722772277,6.234893103383533
10.297029702970297,6.442961099796991
10.316831683168317,6.64890983492929
10.336633663366337,6.8521591063955425
10.356435643564357,7.052179255103734
10.376237623762377,7.2484848519673735
10.396039603960396,7.440629388219136
10.415841584158416,7.62820081760306
10.435643564356436,7.810817817135466
10.455445544554454,7.988126651551203
10.475247524752476,8.159798543694249
10.495049504950495,8.32552746840612
10.514851485148514,8.485028300755527
10.534653465346535,8.63803526080592
10.554455445544555,8.784300606705912
10.574257425742573,8.92359353592457
10.594059405940595,9.055699261157935
10.613861386138614,9.180418233009036
10.633663366336632,9.297565486175428
10.653465346534654,9.406970089723625
10.673267326732674,9.508474685225238
10.693069306930692,9.601935099188738
10.712871287128714,9.687220018438344
10.732673267326733,9.764210718946503
10.752475247524751,9.832800840184227
10.772277227722773,9.892896198367758
10.792079207920793,9.94441463309486
10.81188118811881,9.987285882817666
10.831683168316832,10.021451485419766
10.851485148514852,10.046864700882262
10.87128712871287,10.063490453654298
10.891089108910892,10.071305292911713
10.910891089108912,10.070297369403775
