Time (s),Filtered Signal
0.0,-0.010720945287185523
0.03337004405286344,0.6885537421285682
0.06674008810572687,1.2831939421573646
0.10011013215859031,1.6827411204458016
0.13348017621145375,1.8264439494130846
0.16685022026431717,1.6997712777799616
0.20022026431718062,1.3444805868816623
0.23359030837004408,0.8539440075383845
0.2669603524229075,0.3500734910645507
0.3003303964757709,-0.052921985142003
0.33370044052863435,-0.28458493553886527
0.3670704845814978,-0.3385987630623988
0.40044052863436125,-0.26805565445530216
0.43381057268722467,-0.15758810533615317
0.46718061674008815,-0.0852732342268079
0.5005506607929515,-0.09179865349198434
0.533920704845815,-0.17022220718052122
0.5672907488986785,-0.279040672799989
0.6006607929515418,-0.3698063421526383
0.6340308370044053,-0.41406448695749054
0.6674008810572687,-0.4159747220010851
0.7007709251101322,-0.40536792840454405
0.7341409691629956,-0.41648766574866575
0.767511013215859,-0.4647838450577148
0.8008810572687225,-0.5344522468315546
0.834251101321586,-0.5831932086207126
0.8676211453744493,-0.5614496050429539
0.9009911894273128,-0.43607926707524697
0.9343612334801763,-0.2067078038440668
0.9677312775330397,0.09255154852227981
1.001101321585903,0.4055397477512168
1.0344713656387665,0.6735118079097238
1.06784140969163,0.8523501487680692
1.1012114537444935,0.9212020897387645
1.134581497797357,0.8817958288269925
1.1679515418502202,0.7523544721513895
1.2013215859030837,0.5612510724931009
1.2346916299559472,0.34318422165504064
1.2680616740088106,0.13680123601529234
1.3014317180616741,-0.01969618510813496
1.3348017621145374,-0.09742404602082173
1.3681718061674009,-0.08861915432443943
1.4015418502202643,-0.015483288012651702
1.4349118942731278,0.0711389277356519
1.4682819383259913,0.10693258692599777
1.5016519823788548,0.039666642481710764
1.535022026431718,-0.1452536369212013
1.5683920704845815,-0.4119251815024183
1.601762114537445,-0.6820140812888809
1.6351321585903085,-0.8624549708864337
1.668502202643172,-0.8817260928909676
1.7018722466960352,-0.7189814439854982
1.7352422907488987,-0.41337748108814537
1.7686123348017622,-0.05003191157748466
1.8019823788546256,0.270674444520841
1.8353524229074891,0.4673599310674691
1.8687224669603526,0.5023355881996413
1.9020925110132159,0.3888932409149238
1.9354625550660793,0.18080194804256045
1.9688325991189428,-0.05004362725177515
2.002202643171806,-0.23863359353258545
2.0355726872246698,-0.34560379309519784
2.068942731277533,-0.3640440583673734
2.1023127753303967,-0.31354816596003565
2.13568281938326,-0.2256076447228837
2.1690528634361232,-0.12753397320129178
2.202422907488987,-0.032050725739854055
2.23579295154185,0.06347959856643663
2.269162995594714,0.1690669537143655
2.302533039647577,0.29040918803172894
2.3359030837004404,0.4201236770757923
2.369273127753304,0.5366982593998817
2.4026431718061674,0.6117563571095164
2.436013215859031,0.6218241228119491
2.4693832599118943,0.5585316150470959
2.5027533039647576,0.4322665472759403
2.5361233480176213,0.267994763912161
2.5694933920704845,0.09600836593439331
2.6028634361233483,-0.05757976916078637
2.6362334801762115,-0.17662342107986084
2.6696035242290748,-0.25581968710398445
2.7029735682819385,-0.2981915410222141
2.7363436123348017,-0.31174159663619644
2.7697136563876654,-0.3069920906434289
2.8030837004405287,-0.29540769955083385
2.8364537444933924,-0.28755248496401636
2.8698237885462556,-0.29012671531929674
2.903193832599119,-0.3025143562227161
2.9365638766519826,-0.3149551021687827
2.969933920704846,-0.31059722027118214
3.0033039647577096,-0.2719742317436079
3.036674008810573,-0.18969102117328968
3.070044052863436,-0.0690539311854845
3.1034140969162998,0.06939105821037778
3.136784140969163,0.1966699123322445
3.1701541850220267,0.2868597223886067
3.20352422907489,0.32774581172585
3.2368942731277532,0.3252729366619543
3.270264317180617,0.2995149239511326
3.30363436123348,0.2742745048978544
3.337004405286344,0.2656105435223164
3.370374449339207,0.274856711329544
3.4037444933920704,0.2890686015357212
3.437114537444934,0.28793677083652547
3.4704845814977974,0.25320166266270205
3.503854625550661,0.17599194866026116
3.5372246696035243,0.05934221301485398
3.5705947136563876,-0.08389008820959849
3.6039647577092513,-0.2352905010486881
3.6373348017621145,-0.3747597597681346
3.6707048458149782,-0.4830636185024207
3.7040748898678415,-0.5440063200595308
3.737444933920705,-0.5475969212912024
3.7708149779735685,-0.49416478393099983
3.8041850220264317,-0.3973660022480955
3.8375550660792954,-0.28322159318817847
3.8709251101321587,-0.18366666257224884
3.9042951541850224,-0.12593114292855617
3.9376651982378856,-0.12174023646384703
3.971035242290749,-0.16122174476107276
4.004405286343612,-0.21490878028127428
4.037775330396476,-0.24390477522231763
4.0711453744493395,-0.2145918070714888
4.104515418502203,-0.11192576085668192
4.137885462555066,0.05439912137164869
4.171255506607929,0.25370841845412867
4.2046255506607935,0.44642551338526176
4.237995594713657,0.5990709880445727
4.27136563876652,0.6954835020274288
4.304735682819383,0.7394483324889968
4.3381057268722465,0.7480832642787831
4.371475770925111,0.7397253978447664
4.404845814977974,0.722560724991115
4.438215859030837,0.6896857275314527
4.4715859030837,0.6230164518128624
4.504955947136564,0.5040723244272687
4.538325991189428,0.3262636442980192
4.571696035242291,0.1025149123792218
4.605066079295154,-0.13577212897617208
4.638436123348018,-0.34831676586574306
4.671806167400881,-0.49997326653141305
4.705176211453745,-0.572985352671988
4.738546255506608,-0.5722671344467425
4.7719162995594715,-0.5218740727655864
4.805286343612335,-0.45480074161342415
4.838656387665198,-0.400811809185309
4.872026431718062,-0.37714175547373485
4.905396475770925,-0.38495607683176114
4.938766519823789,-0.4117741142905182
4.972136563876652,-0.4379698428552099
5.005506607929515,-0.44464173948113883
5.038876651982379,-0.4203711414584392
5.072246696035243,-0.3650680592839899
5.105616740088106,-0.2898595945600063
5.138986784140969,-0.21288754996440157
5.172356828193832,-0.1521290778176372
5.2057268722466965,-0.1177031515875183
5.23909691629956,-0.10683813914423967
5.272466960352423,-0.10402045052845042
5.305837004405286,-0.08678583972999745
5.3392070484581495,-0.035050491443400965
5.372577092511014,0.05985480605159341
5.405947136563877,0.1902787785090467
5.43931718061674,0.3336208381861368
5.4726872246696034,0.45962479403829104
5.506057268722468,0.540961464804066
5.539427312775331,0.5631895133607527
5.572797356828194,0.5303139449848052
5.606167400881057,0.46370846148337364
5.639537444933921,0.39463398635186103
5.672907488986785,0.35300145811749994
5.706277533039648,0.35637213798703504
5.739647577092511,0.40297906867731176
5.7730176211453745,0.4710756629706396
5.806387665198238,0.5249047055814515
5.839757709251102,0.5256800518980929
5.873127753303965,0.44451035780277137
5.9064977973568284,0.27335749809400334
5.939867841409692,0.030217017168237055
5.973237885462555,-0.24391141795701085
6.006607929515419,-0.49604739220708643
6.039977973568282,-0.6769026748341519
6.073348017621146,-0.7556866454829869
6.106718061674009,-0.7286062144986235
6.140088105726872,-0.6181477587882047
6.173458149779736,-0.4639868247411929
6.2068281938325995,-0.3094714396722961
6.240198237885463,-0.18871598702417758
6.273568281938326,-0.11833077773022854
6.306938325991189,-0.09561298249755532
6.3403083700440535,-0.10275565931235113
6.373678414096917,-0.11499212343075675
6.40704845814978,-0.10978646625440697
6.440418502202643,-0.07418049637945905
6.4737885462555065,-0.008155692611763377
6.507158590308371,0.07676076877695011
6.540528634361234,0.16276408695792846
6.573898678414097,0.2326623765510116
6.60726872246696,0.27562600453073066
6.640638766519824,0.28963942016555744
6.674008810572688,0.2799868807799666
6.707378854625551,0.25483503994014406
6.740748898678414,0.22022967978776783
6.774118942731278,0.1770862483584529
6.807488986784141,0.12185575547597273
6.840859030837005,0.050726612393529186
6.874229074889868,-0.034825414545644334
6.9075991189427315,-0.12455060392985937
6.940969162995595,-0.20086770234160817
6.974339207048458,-0.24565499729233203
7.007709251101322,-0.24954878503743602
7.041079295154185,-0.21872884193906098
7.074449339207049,-0.1746635434573863
7.107819383259912,-0.14561940645439225
7.141189427312775,-0.15332683489302615
7.174559471365639,-0.20145621965439278
7.207929515418503,-0.2723772440853064
7.241299559471366,-0.33472055112258964
7.274669603524229,-0.3583987800990904
7.308039647577092,-0.32918748598879327
7.3414096916299565,-0.25456018271069303
7.37477973568282,-0.15697194020359784
7.408149779735683,-0.05810763775789146
7.441519823788546,0.036369257535822486
7.47488986784141,0.14127826374963254
7.508259911894274,0.28108366914229715
7.541629955947137,0.46881940908440767
7.575,0.6875588583160046
7.608370044052863,0.8877620350679789
7.641740088105728,1.0057885711159529
7.675110132158591,0.9961660467071815
7.708480176211454,0.8602816996715359
7.741850220264317,0.6535805838673852
7.775220264317181,0.46355773941924583
7.808590308370045,0.36681255909226346
7.841960352422908,0.3862967472693117
7.875330396475771,0.47198274390696093
7.9087004405286345,0.5176644106547107
7.942070484581498,0.40863618777716393
7.975440528634362,0.07889402537231056
8.008810572687224,-0.44936297493746963
8.042180616740088,-1.0637132760894386
8.075550660792953,-1.5996555458299304
8.108920704845815,-1.903094189901792
8.142290748898679,-1.8901658133909423
8.175660792951541,-1.5785945234204677
8.209030837004406,-1.0775992386513307
8.24240088105727,-0.5418708808014187
8.275770925110132,-0.11079188925614245
8.309140969162996,0.1403003831902327
8.342511013215859,0.2168908751177725
8.375881057268723,0.18604376423603494
8.409251101321587,0.13394911921846195
8.44262114537445,0.12264248512723343
8.475991189427313,0.1662429866784862
8.509361233480176,0.23526746042406577
8.54273127753304,0.2827872699929442
8.576101321585904,0.2761316222258732
8.609471365638766,0.2170720656278993
8.64284140969163,0.14128188332373298
8.676211453744493,0.09937681188341377
8.709581497797357,0.13079967644023419
8.742951541850221,0.24409913985728957
8.776321585903084,0.4125553027007768
8.809691629955948,0.5858282614100871
8.84306167400881,0.710842023849911
8.876431718061674,0.7518402215895554
8.909801762114538,0.7013072939808721
8.9431718061674,0.57861773174045
8.976541850220265,0.4189680421303663
9.009911894273127,0.2587573021371982
9.043281938325991,0.12390988412193572
9.076651982378856,0.025124096412914923
9.110022026431718,-0.039754002198085184
9.143392070484582,-0.07925312807202646
9.176762114537445,-0.10199298327342098
9.210132158590309,-0.11379816491784502
9.243502202643173,-0.11870552750077086
9.276872246696035,-0.12170383063071488
9.3102422907489,-0.13013303471891882
9.343612334801762,-0.15210358297843948
9.376982378854626,-0.19302207495069776
9.41035242290749,-0.25321857516012275
9.443722466960352,-0.329091936000274
9.477092511013216,-0.41727421848289253
9.510462555066079,-0.5181786674592971
9.543832599118943,-0.6346062135040095
9.577202643171807,-0.7640134545438718
9.61057268722467,-0.8881178531321579
9.643942731277534,-0.9673450938029567
9.677312775330396,-0.9470993721553453
9.71068281938326,-0.7773208289557016
9.744052863436124,-0.43883658413548776
9.777422907488987,0.035906260444708904
9.81079295154185,0.5601296478647705
9.844162995594713,1.0135608156577158
9.877533039647577,1.2814192375829896
9.910903083700441,1.296565701441027
9.944273127753304,1.0667137246274618
9.977643171806168,0.6740497065729512
10.01101321585903,0.246334187670371
10.044383259911895,-0.08896669528910818
10.077753303964759,-0.24867352675710933
10.111123348017621,-0.21840652354494353
10.144493392070485,-0.04903149380342523
10.177863436123348,0.17114418733127523
10.211233480176212,0.35461780688935624
10.244603524229076,0.44642522646310234
10.277973568281938,0.4371012477181614
10.311343612334802,0.3543610553937824
10.344713656387665,0.24081460045725614
10.378083700440529,0.1302883122428223
10.411453744493393,0.034061764978393236
10.444823788546255,-0.05807423321587248
10.47819383259912,-0.16486781386018068
10.511563876651982,-0.29707377034483834
10.544933920704846,-0.44640160186812444
10.57830396475771,-0.5854345945866893
10.611674008810573,-0.6783058904155753
10.645044052863437,-0.6968458236449787
10.678414096916299,-0.634558971559314
10.711784140969163,-0.51186834442809
10.745154185022027,-0.36989706838820147
10.77852422907489,-0.2549804733084509
10.811894273127754,-0.20011631499635762
10.845264317180618,-0.21105117505177554
10.87863436123348,-0.2630265885558856
10.912004405286345,-0.3099754987079503
10.945374449339207,-0.3028296093295215
10.978744493392071,-0.20967338162980223
11.012114537444935,-0.02947347979162497
11.045484581497798,0.20640647855458696
11.078854625550662,0.4456542842144926
11.112224669603524,0.6346993769417781
11.145594713656388,0.7384453764305002
11.178964757709252,0.751923643719532
11.212334801762115,0.6993328885375658
11.245704845814979,0.6213886598963964
11.279074889867841,0.5568028642036111
11.312444933920705,0.5259490829627842
11.34581497797357,0.5235059861264818
11.379185022026432,0.5228052684591913
11.412555066079296,0.48954449221992863
11.445925110132158,0.39856046650488064
11.479295154185023,0.2461188339161085
11.512665198237887,0.05224175626028512
11.546035242290749,-0.1478020715811189
11.579405286343613,-0.31859215873155594
11.612775330396476,-0.43881921244761035
11.64614537444934,-0.5078120341750831
11.679515418502204,-0.5414717809584577
11.712885462555066,-0.5602701095372385
11.74625550660793,-0.5760391982485142
11.779625550660793,-0.5847844902372515
11.812995594713657,-0.5694774733788408
11.846365638766521,-0.5114783021654379
11.879735682819383,-0.40460024327003064
11.913105726872248,-0.26415154586565387
11.94647577092511,-0.12540976237993373
11.979845814977974,-0.03096252742952441
12.013215859030838,-0.011921868040078509
12.0465859030837,-0.07156432579275233
12.079955947136565,-0.17963831900719163
12.113325991189427,-0.2812660823351883
12.146696035242291,-0.31779204520858656
12.180066079295155,-0.25107182057016786
12.213436123348018,-0.08046279375665603
12.246806167400882,0.155434267222873
12.280176211453744,0.3934298702962944
12.313546255506608,0.5703156098911567
12.346916299559473,0.6463011873520677
12.380286343612335,0.617202356871997
12.413656387665199,0.51115049504062
12.447026431718061,0.3731435627813709
12.480396475770926,0.24590897646472837
12.51376651982379,0.15588459455691453
12.547136563876652,0.10909768530809127
12.580506607929516,0.0960609136903855
12.613876651982379,0.10072744831314646
12.647246696035243,0.10796728987037145
12.680616740088107,0.10665720230136964
12.71398678414097,0.08919391726962578
12.747356828193833,0.050480685467201934
12.780726872246696,-0.011153917130672503
12.81409691629956,-0.09134267207571703
12.847466960352424,-0.17813921628373386
12.880837004405286,-0.25449782907718027
12.91420704845815,-0.30509757328704196
12.947577092511013,-0.3241557550437795
12.980947136563877,-0.3189716542706797
13.014317180616741,-0.30568260815409215
13.047687224669604,-0.2984636663723741
13.081057268722468,-0.29818600353203534
13.11442731277533,-0.2879883094922318
13.147797356828194,-0.239902319604677
13.181167400881058,-0.13028285791069377
13.21453744493392,0.0438855787745865
13.247907488986785,0.25715185433008086
13.281277533039647,0.46162187676200694
13.314647577092511,0.6049401821692014
13.348017621145376,0.6517537652219209
13.381387665198238,0.5980928821310196
13.414757709251102,0.47173216107637783
13.448127753303964,0.3188655042200594
13.481497797356829,0.1841990440435337
13.514867841409693,0.09416350782802016
13.548237885462555,0.05031681692460252
13.58160792951542,0.03413537132090648
13.614977973568282,0.018859161153228412
13.648348017621146,-0.01822819768528698
13.68171806167401,-0.08814056468855289
13.715088105726872,-0.18856441832867205
13.748458149779736,-0.30662194781093205
13.781828193832599,-0.4235461334641102
13.815198237885463,-0.5198193341173528
13.848568281938327,-0.5804533162900191
13.88193832599119,-0.5998859639809383
13.915308370044054,-0.5846927866761001
13.948678414096916,-0.5516808488962323
13.98204845814978,-0.5204770790825745
14.015418502202644,-0.5031166424829392
14.048788546255507,-0.4960773084370975
14.08215859030837,-0.4800880099852123
14.115528634361233,-0.42913955863997494
14.148898678414097,-0.3245023286586326
14.182268722466961,-0.16586562733126786
14.215638766519824,0.027287867605759134
14.249008810572688,0.22545033409400422
14.28237885462555,0.40456696614137916
14.315748898678414,0.5579406928287379
14.349118942731279,0.6969680191149084
14.382488986784141,0.8395651239149342
14.415859030837005,0.9926744071669777
14.449229074889868,1.13940499647105
14.482599118942732,1.2395212264792699
14.515969162995596,1.24487536216517
14.549339207048458,1.1227892376544635
14.582709251101322,0.8752005995502997
14.616079295154185,0.5428217270891997
14.649449339207049,0.19118701249893272
14.682819383259913,-0.11479735277335679
14.716189427312775,-0.33492291515065303
14.74955947136564,-0.46444566728679865
14.782929515418502,-0.5272926066748621
14.816299559471366,-0.5572184610454365
14.84966960352423,-0.5784609326598541
14.883039647577093,-0.5963957122198965
14.916409691629957,-0.6017144019589179
14.94977973568282,-0.5834159122275127
14.983149779735683,-0.5413952697786452
15.016519823788547,-0.4907860801584112
15.04988986784141,-0.4558413934886999
15.083259911894274,-0.4572103666926447
15.116629955947138,-0.4996507170016672
15.15,-0.566455368047937
15.183370044052865,-0.6233599166052854
15.216740088105727,-0.6305266173120706
15.250110132158591,-0.5580119464411238
15.283480176211455,-0.3986961848178074
15.316850220264318,-0.17325041150097523
15.350220264317182,0.07563689817648886
15.383590308370044,0.2983561759925802
15.416960352422908,0.4570658451024781
15.450330396475772,0.5399040652914103
15.483700440528635,0.5639160958424377
15.517070484581499,0.5647091536462825
15.550440528634361,0.5771682701498552
15.583810572687225,0.6162564897842282
15.61718061674009,0.6674308883848458
15.650550660792952,0.6919991046876272
15.683920704845816,0.645681685520157
15.717290748898678,0.5021041237436076
15.750660792951543,0.27012316362986516
15.784030837004407,-0.0037524745930150073
15.817400881057269,-0.2500524550490987
15.850770925110133,-0.40258500691458926
15.884140969162996,-0.42518145759925835
15.91751101321586,-0.3272153130727019
15.950881057268724,-0.16071510947327566
15.984251101321586,0.00020222344223011897
16.01762114537445,0.08904265179692528
16.050991189427315,0.07311419083432388
16.084361233480177,-0.03497412879161938
16.11773127753304,-0.18506162023862194
16.151101321585905,-0.31241714551595257
16.184471365638768,-0.36535689496491797
16.21784140969163,-0.3253255997131831
16.251211453744492,-0.21123949449757662
16.284581497797358,-0.06735039794710226
16.31795154185022,0.05872081366554778
16.351321585903083,0.13714622782603886
16.38469162995595,0.16663923765521835
16.41806167400881,0.170514399332605
16.451431718061674,0.180852814085278
16.48480176211454,0.21911635826682616
16.518171806167402,0.2830659676346874
16.551541850220264,0.3466249107308122
16.584911894273127,0.3728606790969231
16.618281938325993,0.3335763718994359
16.651651982378855,0.2253773855487325
16.685022026431717,0.07348236999145458
16.718392070484583,-0.07942320839171253
16.751762114537446,-0.19414228804010691
16.785132158590308,-0.254935548968123
16.818502202643174,-0.2775128110012446
16.851872246696036,-0.29988025210883834
16.8852422907489,-0.359973630385158
16.91861233480176,-0.47152447892117727
16.951982378854627,-0.6112508430914241
16.98535242290749,-0.725052243554912
17.01872246696035,-0.751159704760405
17.052092511013218,-0.64932473895545
17.08546255506608,-0.4218434799858926
17.118832599118942,-0.11616042719797046
17.152202643171808,0.19223653987802197
17.18557268722467,0.428650835146627
17.218942731277533,0.5467516065363254
17.2523127753304,0.5431979719159358
17.28568281938326,0.45405471866998903
17.319052863436124,0.33592275351443757
