Frequency (Hz),Amplitude
0.0,8.614892152646094
0.01978021978021978,8.626823375264673
0.03956043956043956,8.662471735830229
0.05934065934065934,8.721407422169506
0.07912087912087912,8.802933825156375
0.0989010989010989,8.906115093904914
0.11868131868131868,9.029810963742914
0.13846153846153844,9.172715877444217
0.15824175824175823,9.33339944409727
0.17802197802197803,9.510345655139556
0.1978021978021978,9.701988874132661
0.21758241758241756,9.906745296812156
0.23736263736263735,10.123039225128226
0.2571428571428572,10.349324037752146
0.2769230769230769,10.584098135749962
0.2967032967032967,10.825916394784151
0.31648351648351647,11.07339778410572
0.3362637362637363,11.325229846928352
0.35604395604395606,11.58017070668482
0.3758241758241758,11.837049195354732
0.3956043956043956,12.094763613720973
0.4153846153846154,12.352279543118147
0.4351648351648351,12.608627042762391
0.45494505494505494,12.862897490848503
0.4747252747252747,13.114240263199967
0.4945054945054945,13.36185939050322
0.5142857142857143,13.605010293165513
0.5340659340659341,13.842996660232073
0.5538461538461538,14.075167514056165
0.5736263736263736,14.30091448405845
0.5934065934065934,14.51966929961292
0.6131868131868132,14.730901502723984
0.6329670329670329,14.93411637477808
0.6527472527472528,15.128853067513493
0.6725274725274726,15.314682925862323
0.6923076923076923,15.491207989023316
0.7120879120879121,15.658059655674062
0.7318681318681318,15.814897499366714
0.7516483516483516,15.961408220677317
0.7714285714285715,16.097304723455398
0.7912087912087912,16.2223253034455
0.810989010989011,16.336232938554115
0.8307692307692308,16.438814671065078
0.8505494505494506,16.529881073131286
0.8703296703296702,16.609265787869383
0.8901098901098901,16.67682513934548
0.9098901098901099,16.73243780565827
0.9296703296703297,16.77600455019956
0.9494505494505494,16.807448007003437
0.9692307692307692,16.826712516888445
0.989010989010989,16.833764011856697
1.0087912087912088,16.828589945947485
1.0285714285714287,16.811199271457156
1.0483516483516484,16.781622460138916
1.0681318681318681,16.739911569694613
1.087912087912088,16.686140356571617
1.1076923076923075,16.62040443679097
1.1274725274725275,16.54282149726443
1.1472527472527472,16.45353156081495
1.1670329670329669,16.352697308905633
1.1868131868131868,16.24050446690947
1.2065934065934065,16.117162257623185
1.2263736263736265,15.982903929642992
1.2461538461538462,15.837987368179652
1.2659340659340659,15.682695796887838
1.2857142857142858,15.517338580311103
1.3054945054945055,15.34225213757819
1.3252747252747252,15.15780097899856
1.3450549450549452,14.964378878147917
1.3648351648351649,14.762410192839003
1.3846153846153846,14.552351348942638
1.4043956043956045,14.334692501221786
1.4241758241758242,14.109959384981277
1.443956043956044,13.878715371165711
1.4637362637362636,13.641563735219803
1.4835164835164834,13.39915014611746
1.5032967032967033,13.152165375892771
1.523076923076923,12.901348221036649
1.542857142857143,12.647488614343
1.5626373626373626,12.391430888087463
1.5824175824175823,12.134077125490242
1.6021978021978023,11.87639050578516
1.621978021978022,11.619398507353418
1.6417582417582417,11.364195781867249
1.6615384615384616,11.111946449251247
1.6813186813186813,10.86388548848159
1.7010989010989013,10.62131881446907
1.720879120879121,10.385621540859121
1.7406593406593405,10.158233840770588
1.7604395604395604,9.940653745677219
1.7802197802197801,9.734426186301818
1.7999999999999998,9.54112760416258
1.8197802197802198,9.362345578266694
1.8395604395604395,9.199653148194118
1.8593406593406594,9.054577894081065
1.879120879120879,8.928566358022929
1.8989010989010988,8.822945030602611
1.9186813186813187,8.738879809975689
1.9384615384615385,8.677336457438074
1.9582417582417584,8.639044984542746
1.978021978021978,8.624470979413944
1.9978021978021978,8.633796527417596
2.0175824175824175,8.666912602223196
2.0373626373626372,8.723423698128268
2.0571428571428574,8.80266423008928
2.076923076923077,8.903725069568686
2.096703296703297,9.0254877134286
2.1164835164835165,9.166663123841776
2.1362637362637362,9.325832252178808
2.1560439560439564,9.501485600072307
2.175824175824176,9.692059750482336
2.195604395604396,9.89596948028964
2.215384615384615,10.111634723653307
2.2351648351648348,10.337502211084484
2.254945054945055,10.572062024052203
2.2747252747252746,10.813859574601516
2.2945054945054943,11.061503661971523
2.314285714285714,11.313671302225837
2.3340659340659338,11.569110002902836
2.353846153846154,11.826638089559225
2.3736263736263736,12.08514360582181
2.3934065934065933,12.343582217969018
2.413186813186813,12.600974468504779
2.4329670329670328,12.8564026458322
2.452747252747253,13.109007471197408
2.4725274725274726,13.357984749860192
2.4923076923076923,13.602582090162315
2.512087912087912,13.84209576046408
2.5318681318681318,14.075867728279306
2.5516483516483515,14.303282906865045
2.5714285714285716,14.52376662066474
2.5912087912087913,14.736782291202662
2.610989010989011,14.941829338325391
2.6307692307692307,15.138441287307973
2.6505494505494505,15.326184069681469
2.6703296703296706,15.504654504219882
2.6901098901098903,15.673478943990295
2.70989010989011,15.832312075447737
2.7296703296703297,15.980835856046502
2.7494505494505495,16.11875857759363
2.769230769230769,16.24581404348443
2.7890109890109893,16.361760848956937
2.808791208791209,16.46638175453303
2.8285714285714287,16.559483143842094
2.8483516483516484,16.64089455802777
2.8681318681318677,16.7104682999065
2.887912087912088,16.768079101971782
2.9076923076923076,16.813623853218772
2.9274725274725273,16.84702138060181
2.947252747252747,16.868212281736437
2.9670329670329667,16.877158806222695
2.986813186813187,16.873844783704946
3.0065934065934066,16.858275597501144
3.0263736263736263,16.83047820334029
3.046153846153846,16.790501193447117
3.0659340659340657,16.738414906916415
3.085714285714286,16.674311588033394
3.1054945054945056,16.598305594928686
3.1252747252747253,16.510533661714142
3.145054945054945,16.411155218035557
3.1648351648351647,16.30035277080636
3.184615384615385,16.17833235375693
3.2043956043956046,16.045324051350182
3.2241758241758243,15.901582604575156
3.243956043956044,15.74738810713189
3.2637362637362637,15.583046801553856
3.2835164835164834,15.408891985858856
3.3032967032967036,15.225285042347977
3.3230769230769233,15.032616601138576
3.342857142857143,14.831307851856712
3.3626373626373627,14.62181201753326
3.3824175824175824,14.404616005013414
3.4021978021978025,14.180242245923921
3.4219780219780223,13.949250741198023
3.441758241758242,13.712241320010609
3.4615384615384617,13.469856120292198
3.481318681318681,13.222782292210049
3.501098901098901,12.971754917412554
3.520879120879121,12.717560124530467
3.5406593406593405,12.461038364321118
3.5604395604395602,12.203087784631203
3.58021978021978,11.944667614573266
3.5999999999999996,11.686801427407532
3.61978021978022,11.430580101130063
3.6395604395604395,11.17716423361776
3.659340659340659,10.927785695176878
3.679120879120879,10.683747916884064
3.6989010989010986,10.446424422166752
3.718681318681319,10.217255019380673
3.7384615384615385,9.997738997498216
3.758241758241758,9.789424624297977
3.7780219780219784,9.593894261799655
3.7978021978021976,9.412744517058476
3.8175824175824173,9.247561068359467
3.8373626373626375,9.099888170829082
3.8571428571428568,8.971193356943381
3.876923076923077,8.862828481141221
3.896703296703296,8.775988947779249
3.916483516483517,8.711673599691332
3.936263736263736,8.670648192900133
3.956043956043956,8.653415504142975
3.9758241758241755,8.660194816306165
3.9956043956043956,8.690912789130728
4.015384615384615,8.745206638045842
4.035164835164835,8.822439293076664
4.054945054945055,8.921725018825544
4.0747252747252745,9.041963055122656
4.094505494505494,9.181876322681731
4.114285714285715,9.34005216393538
4.134065934065934,9.514982395716753
4.153846153846154,9.705100514827016
4.173626373626373,9.908814577648
4.193406593406594,10.124534945881077
4.213186813186813,10.350696665481097
4.232967032967033,10.58577668109765
4.252747252747253,10.828306376115524
4.2725274725274724,11.076880085044062
4.292307692307692,11.330160278826378
4.312087912087913,11.586880105521692
4.331868131868132,11.845843906484802
4.351648351648352,12.105926243537551
4.371428571428571,12.366069881288084
4.391208791208792,12.625283080701351
4.410989010989011,12.882636480869792
4.43076923076923,13.137259778174625
4.450549450549451,13.38833835613441
4.4703296703296695,13.635109974490579
4.49010989010989,13.876861591160761
4.50989010989011,14.11292636406677
4.52967032967033,14.342680859995788
4.549450549450549,14.56554248319976
4.569230769230769,14.780967126187711
4.589010989010989,14.988447038130486
4.608791208791209,15.187508901678633
4.628571428571428,15.377712106161214
4.648351648351649,15.558647203596845
4.6681318681318675,15.729934533334747
4.687912087912088,15.891223001171452
4.707692307692308,16.042188999249124
4.7274725274725276,16.18253545378126
4.747252747252747,16.311990988560563
4.767032967032967,16.430309193203424
4.786813186813187,16.537267986122618
4.806593406593407,16.63266906325734
4.826373626373626,16.716337424604855
4.846153846153847,16.788120971577722
4.8659340659340655,16.84789016914628
4.885714285714286,16.895537767618123
4.905494505494506,16.930978579753926
4.9252747252747255,16.954149309727203
4.945054945054945,16.965008431209483
4.964835164835165,16.96353611260783
4.984615384615385,16.94973418820643
5.004395604395604,16.923626174675483
5.024175824175824,16.885257333115696
5.043956043956045,16.834694777515143
5.0637362637362635,16.77202763121263
5.083516483516483,16.69736723369768
5.103296703296703,16.610847400838004
5.123076923076923,16.512624742418634
5.142857142857143,16.402879041708204
5.162637362637362,16.281813702642353
5.182417582417583,16.149656271135505
5.2021978021978015,16.006659037999373
5.221978021978022,15.853099731957165
5.241758241758242,15.689282312286876
5.2615384615384615,15.515537871688437
5.281318681318681,15.332225661019567
5.301098901098901,15.139734248542487
5.320879120879121,14.93848282720364
5.340659340659341,14.728922684142269
5.36043956043956,14.511538846963246
5.380219780219781,14.286851921141032
5.3999999999999995,14.05542013200634
5.41978021978022,13.817841582786288
5.43956043956044,13.574756736701696
5.4593406593406595,13.326851125621053
5.479120879120879,13.07485827952706
5.498901098901099,12.819562859182124
5.518681318681319,12.56180395779913
5.538461538461538,12.3024785149392
5.558241758241758,12.04254475579595
5.578021978021979,11.783025529907572
5.5978021978021975,11.525011373641659
5.617582417582418,11.269663059348543
5.637362637362637,11.018213320512766
5.6571428571428575,10.771967357693786
5.676923076923077,10.532301638146972
5.696703296703297,10.300660410032267
5.716483516483517,10.078549272308392
5.736263736263735,9.86752509213396
5.756043956043956,9.66918156766632
5.775824175824176,9.485129825598484
5.795604395604395,9.316973650995758
5.815384615384615,9.166279297417837
5.835164835164835,9.03454032654419
5.854945054945055,8.92313855750828
5.874725274725275,8.833302905242105
5.894505494505494,8.76606854902255
5.914285714285715,8.722239359210882
5.934065934065933,8.702356679779673
5.953846153846154,8.70667731188072
5.973626373626374,8.735162844091935
5.993406593406593,8.787481406685968
6.013186813186813,8.863021664934381
6.032967032967033,8.960917638289493
6.052747252747253,9.080081956834299
6.072527472527473,9.21924459321877
6.092307692307692,9.376993984863363
6.112087912087913,9.55181773541136
6.131868131868131,9.742140636100075
6.151648351648352,9.946358432323592
6.171428571428572,10.162866447798063
6.191208791208791,10.390082775530697
6.210989010989011,10.626466202259895
6.230769230769231,10.87052934005384
6.2505494505494505,11.12084761005788
6.270329670329671,11.376064787020237
6.29010989010989,11.634895800703973
6.309890109890111,11.896127430312415
6.329670329670329,12.158617443538896
6.349450549450549,12.42129263926544
6.36923076923077,12.683146162941155
6.3890109890109885,12.94323438234273
6.408791208791209,13.200673541539688
6.428571428571428,13.454636353083647
6.4483516483516485,13.704348642062923
6.468131868131868,13.949086119404793
6.487912087912088,14.18817133411755
6.507692307692308,14.420970833486688
6.527472527472527,14.646892545157613
6.547252747252747,14.86538338431855
6.567032967032967,15.07592708182221
6.5868131868131865,15.278042224223421
6.606593406593407,15.471280493709932
6.626373626373626,15.655225094254625
6.6461538461538465,15.829489349633146
6.665934065934065,15.993715458936611
6.685714285714286,16.147573395648912
6.705494505494506,16.290759937090634
6.725274725274725,16.422997811944416
6.745054945054945,16.544034954585047
6.764835164835165,16.653643855987998
6.7846153846153845,16.751621002042576
6.804395604395605,16.83778639112731
6.824175824175824,16.911983123800088
6.8439560439560445,16.974077058407524
6.863736263736263,17.02395652732424
6.883516483516484,17.06153210939391
6.903296703296704,17.086736454964996
6.923076923076923,17.099524160699193
6.942857142857143,17.099871692086435
6.962637362637362,17.087777352334797
6.9824175824175825,17.06326129702339
7.002197802197802,17.026365594619435
7.021978021978022,16.977154333676342
7.041758241758242,16.9157137782538
7.061538461538461,16.84215257384315
7.081318681318681,16.75660200684914
7.101098901098901,16.659216321478127
7.1208791208791204,16.55017309872224
7.140659340659341,16.429673703010977
7.16043956043956,16.29794380303231
7.1802197802197805,16.155233974203895
7.199999999999999,16.001820391299546
7.21978021978022,15.838005620797853
7.23956043956044,15.66411952360341
7.259340659340659,15.480520279870206
7.279120879120879,15.287595548690382
7.298901098901099,15.085763776339716
7.318681318681318,14.875475667505484
7.338461538461539,14.65721583434204
7.358241758241758,14.43150463813161
7.3780219780219785,14.198900237542222
7.397802197802197,13.960000855658937
7.417582417582418,13.71544727470389
7.437362637362638,13.465925562115231
7.457142857142857,13.212170023728923
7.476923076923077,12.95496636832283
7.496703296703297,12.695155051657665
7.516483516483516,12.433634746088716
7.536263736263736,12.171365852336994
7.556043956043957,11.909373931485026
7.575824175824176,11.64875288611453
7.595604395604395,11.390667658443615
7.615384615384615,11.1363561398161
7.635164835164835,10.887129900839746
7.654945054945055,10.64437325813926
7.674725274725275,10.409540098943335
7.694505494505494,10.18414780036121
7.7142857142857135,9.969767524164482
7.734065934065935,9.768010164785085
7.753846153846154,9.580507308347672
7.7736263736263735,9.408886756267487
7.793406593406592,9.25474250572134
7.813186813186814,9.119599572897272
7.832967032967034,9.00487467628035
7.852747252747252,8.911834508628298
7.872527472527472,8.841554014849965
7.892307692307693,8.79487762004436
7.912087912087912,8.772386570118233
7.931868131868132,8.774375342347247
7.951648351648351,8.800839417842324
7.971428571428572,8.851475650421905
7.991208791208791,8.925695186664697
8.010989010989011,9.022647620999114
8.03076923076923,9.141254036090594
8.05054945054945,9.280245945673073
8.07032967032967,9.438206984441011
8.09010989010989,9.613614433599691
8.10989010989011,9.804878212973197
8.129670329670331,10.010375663412388
8.149450549450549,10.228481150133772
8.169230769230769,10.457590139071808
8.189010989010988,10.696137879994318
8.20879120879121,10.94261315750148
8.22857142857143,11.195567757363765
8.248351648351647,11.453622368979543
8.268131868131867,11.715469637356893
8.287912087912087,11.979875019790619
8.307692307692308,12.245676017368426
8.327472527472528,12.511780257016055
8.347252747252746,12.77716280734642
8.367032967032966,13.040863027660789
8.386813186813187,13.301981177126718
8.406593406593407,13.559674951203545
8.426373626373627,13.813156064203964
8.446153846153845,14.061686959162756
8.465934065934066,14.304577697347266
8.485714285714286,14.541183058190018
8.505494505494505,14.770899864685088
8.525274725274725,14.993164538091714
8.545054945054945,15.207450878070446
8.564835164835165,15.413268059278142
8.584615384615384,15.610158832287809
8.604395604395604,15.797697914948827
8.624175824175826,15.975490559557981
8.643956043956043,16.143171281166456
8.663736263736263,16.300402732777094
8.683516483516483,16.44687471392212
8.703296703296704,16.58230330003593
8.723076923076924,16.706430081063658
8.742857142857142,16.81902149881696
8.762637362637362,16.91986827366236
8.782417582417583,17.00878491218095
8.802197802197803,17.085609288453874
8.821978021978023,17.150202292600753
8.84175824175824,17.20244754112229
8.86153846153846,17.242251144477855
8.881318681318682,17.269541528165398
8.901098901098901,17.28426930437099
8.920879120879121,17.286407192024715
8.940659340659339,17.27594998384653
8.96043956043956,17.252914559696865
8.98021978021978,17.217339946270894
9.0,17.169287423900922
9.01978021978022,17.108840681965543
9.03956043956044,17.036106025156688
9.05934065934066,16.951212633632363
9.079120879120879,16.85431288089378
9.098901098901099,16.74558271407491
9.11868131868132,16.62522210222765
9.138461538461538,16.49345555913046
9.158241758241758,16.35053274814345
9.178021978021977,16.196729177677064
9.197802197802199,16.032346996927206
9.217582417582419,15.857715902642358
9.237362637362637,15.673194168803002
9.257142857142856,15.479169812171758
9.276923076923078,15.276061907655752
9.296703296703297,15.064322068226087
9.316483516483517,14.844436104643615
9.336263736263735,14.616925880278789
9.356043956043957,14.382351375659052
9.375824175824176,14.14131297572239
9.395604395604396,13.894453989692533
9.415384615384616,13.642463408483676
9.435164835164835,13.386078896899878
9.454945054945055,13.12609000674064
9.474725274725275,12.863341581174014
9.494505494505495,12.598737299087205
9.514285714285714,12.333243279056141
9.534065934065934,12.067891624433239
9.553846153846154,11.803783742172069
9.573626373626373,11.54209320698338
9.593406593406593,11.28406786854024
9.613186813186815,11.031030813372425
9.632967032967032,10.784379697774447
9.652747252747252,10.545583869986569
9.672527472527472,10.31617861051083
9.692307692307693,10.09775575634178
9.712087912087913,9.891949962687317
9.731868131868131,9.70041992514207
9.75164835164835,9.524824069832462
9.771428571428572,9.366790548399063
9.791208791208792,9.227881863737784
9.810989010989012,9.109555087911776
9.83076923076923,9.013119361354288
9.850549450549451,8.939693081267999
9.87032967032967,8.890163756668958
9.89010989010989,8.865153774395518
9.90989010989011,8.864995160182604
9.92967032967033,8.889715782677298
9.94945054945055,8.93903839469049
9.96923076923077,9.012392601186628
9.989010989010989,9.108938522915288
10.008791208791209,9.227599827954476
10.028571428571428,9.367103108297774
10.048351648351648,9.52602035781348
10.068131868131868,9.702811524812445
10.08791208791209,9.895864649893335
10.107692307692307,10.103531805664558
10.127472527472527,10.324159785918871
10.147252747252747,10.556115141265733
10.167032967032966,10.797803666224079
10.186813186813188,11.047684791532882
10.206593406593406,11.304281536981604
10.226373626373626,11.566186762677232
10.246153846153845,11.832066453722152
10.265934065934067,12.100660715961403
10.285714285714286,12.370783074087221
10.305494505494504,12.641318566404504
10.325274725274724,12.911221035068266
10.345054945054946,13.179509923628009
10.364835164835165,13.445266818596329
10.384615384615385,13.707631909401025
10.404395604395603,13.965800490919637
10.424175824175824,14.219019593505395
10.443956043956044,14.466584795361511
10.463736263736264,14.707837249651412
10.483516483516484,14.942160942320845
10.503296703296703,15.16898018492721
10.523076923076923,15.387757338716701
10.542857142857143,15.59799076086457
10.562637362637362,15.799212960487631
10.582417582417584,15.990988950200862
10.602197802197802,16.172914778198916
10.621978021978022,16.344616225781813
10.641758241758241,16.50574765567514
10.661538461538463,16.65599099724681
10.681318681318682,16.795054855668788
10.7010989010989,16.922673733125887
