Frequency (Hz),Amplitude
0.0,14.490364273010652
0.019823788546255508,14.489240300914316
0.039647577092511016,14.485872341869827
0.059471365638766524,14.48027225898165
0.07929515418502203,14.47245979528565
0.09911894273127755,14.46246253039449
0.11894273127753305,14.450315819509283
0.13876651982378857,14.436062714508225
0.15859030837004406,14.419753866746989
0.17841409691629956,14.401447411130759
0.1982378854625551,14.38120883095197
0.2180616740088106,14.359110802924333
0.2378854625550661,14.3352330217917
0.25770925110132165,14.309662003844531
0.27753303964757714,14.282490868645276
0.29735682819383263,14.253819098241554
0.31718061674008813,14.22375227314189
0.3370044052863437,14.192401784339248
0.3568281938325991,14.159884520697936
0.37665198237885467,14.126322531070937
0.3964757709251102,14.091842660589965
0.41629955947136565,14.056576160670948
0.4361233480176212,14.0206582724065
0.4559471365638767,13.98422778317503
0.4757709251101322,13.947426556485057
0.49559471365638774,13.910399035295873
0.5154185022026433,13.873291719308854
0.5352422907488987,13.836252617011654
0.5550660792951543,13.799430673575074
0.5748898678414097,13.762975176051219
0.5947136563876653,13.727035137695374
0.6145374449339208,13.691758663630806
0.6343612334801763,13.657292300489198
0.6541850220264318,13.623780373082312
0.6740088105726874,13.591364311585497
0.6938325991189428,13.560181973131408
0.7136563876651982,13.53036696211167
0.7334801762114539,13.502047953855465
0.7533039647577093,13.475348026684676
0.7731277533039648,13.450384007622983
0.7929515418502204,13.427265837250722
0.8127753303964759,13.406095959336769
0.8325991189427313,13.38696874093311
0.8524229074889869,13.369969928579511
0.8722466960352424,13.355176146128832
0.8920704845814978,13.342654439463033
0.9118942731277534,13.332461873028906
0.931718061674009,13.324645182676997
0.9515418502202644,13.319240488751152
0.9713656387665199,13.316273072749896
0.9911894273127755,13.315757220183544
1.0110132158590308,13.317696131491621
1.0308370044052866,13.322081902084163
1.0506607929515421,13.328895571744198
1.0704845814977975,13.338107242796896
1.090308370044053,13.349676265632949
1.1101321585903086,13.363551489389419
1.1299559471365639,13.379671574855744
1.1497797356828194,13.397965366006249
1.1696035242290752,13.41835231597013
1.1894273127753305,13.440742962754248
1.209251101321586,13.465039449631357
1.2290748898678416,13.491136084810952
1.248898678414097,13.51891993481237
1.2687224669603525,13.548271445867922
1.288546255506608,13.579065087685636
1.3083700440528636,13.611170013993542
1.3281938325991192,13.644450734460628
1.3480176211453747,13.678767792832359
1.36784140969163,13.713978446420617
1.3876651982378856,13.749937342437626
1.4074889867841411,13.786497187047008
1.4273127753303965,13.823509403414429
1.4471365638766522,13.860824775461662
1.4669603524229078,13.898294074451968
1.4867841409691631,13.935768665955429
1.5066079295154187,13.973101095148301
1.5264317180616742,14.01014564878797
1.5462555066079295,14.04675889256841
1.5660792951541853,14.08280018289597
1.5859030837004409,14.118132152430158
1.6057268722466962,14.152621169006524
1.6255506607929517,14.186137767798975
1.6453744493392073,14.21855705678557
1.6651982378854626,14.249759095758444
1.6850220264317182,14.279629249261932
1.7048458149779737,14.30805851396084
1.7246696035242293,14.334943821028721
1.7444933920704848,14.360188314211083
1.7643171806167404,14.38370160426057
1.7841409691629957,14.40540000046239
1.8039647577092512,14.425206719972204
1.8237885462555068,14.44305207567632
1.8436123348017623,14.458873643257705
1.863436123348018,14.472616408113
1.8832599118942732,14.484232892717886
1.9030837004405288,14.493683264979657
1.9229074889867843,14.500935428052891
1.9427312775330399,14.50596509202286
1.9625550660792954,14.508755827786436
1.982378854625551,14.509299103382292
2.002202643171806,14.507594302939204
2.0220264317180616,14.503648728330582
2.041850220264317,14.497477583536728
2.061674008810573,14.489103941634475
2.0814977973568287,14.478558694249312
2.1013215859030843,14.465880483224177
2.1211453744493394,14.451115614179594
2.140969162995595,14.434317951564804
2.1607929515418505,14.41554879472843
2.180616740088106,14.394876734472106
2.2004405286343616,14.37237748949211
2.220264317180617,14.348133722065977
2.2400881057268722,14.322234832298816
2.2599118942731278,14.294776730219665
2.2797356828193833,14.265861585001824
2.299559471365639,14.235597550584023
2.319383259911895,14.20409846698853
2.3392070484581504,14.171483536672083
2.3590308370044055,14.13787697530723
2.378854625550661,14.103407636477971
2.3986784140969166,14.068208609887375
2.418502202643172,14.03241679281539
2.4383259911894277,13.99617243473803
2.4581497797356833,13.959618655222606
2.4779735682819384,13.92290093544954
2.497797356828194,13.886166583980536
2.5176211453744495,13.849564177694427
2.537444933920705,13.81324297914274
2.5572687224669606,13.777352331938147
2.577092511013216,13.742041036173392
2.5969162995594717,13.707456706272177
2.6167400881057272,13.673745114093304
2.6365638766519828,13.64104952053182
2.6563876651982383,13.60950999928576
2.676211453744494,13.579262756865768
2.6960352422907494,13.550439453313817
2.715859030837005,13.523166528450885
2.73568281938326,13.49756453878205
2.7555066079295156,13.473747510437995
2.775330396475771,13.451822313714121
2.7951541850220267,13.431888064871279
2.8149779735682823,13.414035560876112
2.834801762114538,13.398346752678133
2.854625550660793,13.384894262438134
2.874449339207049,13.373740949838176
2.8942731277533045,13.364939532216033
2.91409691629956,13.358532262781653
2.9339207048458156,13.354550670596732
2.953744493392071,13.353015365340696
2.9735682819383262,13.353935909160482
2.993392070484582,13.35731075712393
3.0132158590308373,13.363127266982142
3.033039647577093,13.371361778117711
3.0528634361233484,13.381979758728056
3.072687224669604,13.394936019489121
3.092511013215859,13.41017499118129
3.1123348017621146,13.427631063052143
3.1321585903083706,13.447228978058252
3.151982378854626,13.468884280577585
3.1718061674008817,13.492503811729401
3.1916299559471373,13.51798624708191
3.2114537444933924,13.545222671275656
3.231277533039648,13.57409718393856
3.2511013215859035,13.60448753121829
3.270925110132159,13.636265757298432
3.2907488986784146,13.669298870393272
3.31057268722467,13.703449517919228
3.3303964757709252,13.738576665810022
3.350220264317181,13.774536277265641
3.3700440528634363,13.811181986589101
3.389867841409692,13.848365764161073
3.4096916299559474,13.885938569015568
3.4295154185022034,13.923750985903373
3.4493392070484585,13.961653844152577
3.469162995594714,13.999498816048284
3.4889867841409696,14.037138992852718
3.508810572687225,14.074429436962282
3.5286343612334807,14.111227709050189
3.5484581497797363,14.147394369363639
3.5682819383259914,14.182793452636142
3.588105726872247,14.217292916333388
3.6079295154185025,14.250765062176395
3.627753303964758,14.283086931079364
3.6475770925110136,14.314140671801807
3.667400881057269,14.343813883746483
3.6872246696035247,14.371999934439357
3.7070484581497802,14.398598252306185
3.726872246696036,14.423514595414876
3.7466960352422913,14.446661296886118
3.7665198237885464,14.467957487688095
3.7863436123348024,14.487329297528557
3.8061674008810575,14.504710034538334
3.8259911894273135,14.52004034440986
3.8458149779735686,14.53326834961047
3.8656387665198246,14.544349769239199
3.8854625550660797,14.553248020034692
3.905286343612335,14.559934298975168
3.925110132158591,14.564387647839212
3.9449339207048464,14.566595000019449
3.964757709251102,14.566551209801252
3.9845814977973575,14.56425906423723
4.004405286343612,14.55972927766363
4.024229074889869,14.552980468822572
4.044052863436123,14.544039120468694
4.06387665198238,14.53293952125786
4.083700440528634,14.519723689634361
4.103524229074891,14.504441279356108
4.123348017621146,14.487149466224011
4.143171806167401,14.46791281551368
4.162995594713657,14.446803129545678
4.182819383259912,14.423899274776538
4.2026431718061685,14.39928698774843
4.222466960352423,14.373058659200678
4.242290748898679,14.345313095626326
4.262114537444934,14.316155257548841
4.28193832599119,14.28569597380572
4.301762114537445,14.254051631153894
4.321585903083701,14.221343838561628
4.3414096916299565,14.187699065625779
4.361233480176212,14.153248254651553
4.381057268722468,14.118126406057998
4.400881057268723,14.08247213692906
4.420704845814979,14.046427212715987
4.440528634361234,14.010136052316083
4.46035242290749,13.973745207003471
4.4801762114537445,13.937402813972428
4.500000000000001,13.9012580255678
4.5198237885462555,13.865460415622783
4.539647577092512,13.830159364694746
4.559471365638767,13.795503426384691
4.579295154185023,13.761639677335594
4.599118942731278,13.728713053926777
4.618942731277533,13.696865679104421
4.63876651982379,13.666236183205948
4.658590308370044,13.636959023035578
4.678414096916301,13.609163803821115
4.6982378854625555,13.582974609015043
4.718061674008811,13.558509343185296
4.737885462555067,13.535879093460357
4.757709251101322,13.515187515139955
4.777533039647578,13.496530247144294
4.797356828193833,13.479994362946853
4.817180616740089,13.465657862508486
4.837004405286344,13.453589210501727
4.856828193832599,13.443846925784381
4.876651982378855,13.436479226649412
4.896475770925111,13.43152373585189
4.9162995594713665,13.429007248801538
4.936123348017622,13.428945567620605
4.955947136563877,13.431343403018355
4.975770925110133,13.43619434513944
4.995594713656388,13.443480903723346
5.015418502202644,13.453174617084098
5.035242290748899,13.46523622860285
5.055066079295155,13.479615928640605
5.07488986784141,13.496253659040454
5.094713656387666,13.515079476714956
5.114537444933921,13.53601397221892
5.134361233480177,13.558968738700154
5.154185022026432,13.583846886209598
5.174008810572688,13.610543596042609
5.193832599118943,13.638946709574823
5.213656387665199,13.668937345949287
5.2334801762114544,13.70039054296146
5.25330396475771,13.733175915567596
5.2731277533039655,13.767158326603127
5.292951541850221,13.802198564529698
5.312775330396477,13.838154023320627
5.332599118942731,13.874879379936615
5.352422907488988,13.912227265218759
5.372246696035242,13.95004892443021
5.392070484581499,13.988194864093739
5.4118942731277535,14.026515482195283
5.43171806167401,14.064861679240192
5.451541850220265,14.103085448056014
5.47136563876652,14.141040440622271
5.491189427312777,14.178582510573296
5.511013215859031,14.215570230356773
5.530837004405288,14.251865382338744
5.550660792951542,14.287333423421606
5.570484581497798,14.321843922984918
5.5903083700440535,14.355270974170748
5.610132158590309,14.38749357871386
5.6299559471365646,14.41839600566709
5.64977973568282,14.447868124491363
5.669603524229076,14.47580571307355
5.689427312775331,14.502110741303145
5.709251101321586,14.526691630884265
5.729074889867842,14.549463492084186
5.748898678414098,14.570348338126252
5.768722466960353,14.58927527792527
5.788546255506609,14.606180687839505
5.808370044052864,14.621008363077575
5.82819383259912,14.63370964935149
5.848017621145375,14.644243555311888
5.867841409691631,14.652576846238347
5.887665198237886,14.658684119388477
5.907488986784142,14.662547861336085
5.927312775330397,14.664158487549972
5.9471365638766525,14.663514364385573
5.966960352422908,14.660621813577913
5.986784140969164,14.655495099242465
6.00660792951542,14.648156397305595
6.026431718061675,14.638635747204445
6.04625550660793,14.626970985614905
6.066079295154186,14.613207661887138
6.085903083700441,14.597398934793732
6.105726872246697,14.57960545012477
6.125550660792952,14.559895198599305
6.145374449339208,14.538343353505317
6.1651982378854635,14.515032087430685
6.185022026431718,14.490050367409307
6.204845814977975,14.46349372777788
6.224669603524229,14.435464020027043
6.244493392070486,14.406069138930619
6.264317180616741,14.375422724257552
6.284140969162996,14.34364383741071
6.303964757709252,14.310856612397568
6.323788546255507,14.277189880625084
6.3436123348017635,14.24277676912221
6.363436123348018,14.207754271935789
6.3832599118942746,14.172262794615289
6.403083700440529,14.136445671904818
6.422907488986785,14.10044865899521
6.44273127753304,14.06441939695589
6.462555066079296,14.02850685326475
6.482378854625551,13.992860738683833
6.502202643171807,13.957630902085025
6.5220264317180625,13.922966705212382
6.541850220264318,13.889016379767899
6.561674008810574,13.855926369623079
6.581497797356829,13.823840661379869
6.601321585903085,13.79290010692344
6.62114537444934,13.763241742017449
6.640969162995596,13.734998105378187
6.6607929515418505,13.708296563015745
6.680616740088107,13.683258642939265
6.700440528634362,13.65999938557319
6.720264317180618,13.638626715416194
6.740088105726873,13.619240839579298
6.759911894273129,13.601933678858758
6.779735682819384,13.586788336923433
6.799559471365639,13.573878613021266
6.819383259911895,13.563268563333287
6.83920704845815,13.555012115725356
6.859030837004407,13.549152742173229
6.8788546255506615,13.545723192570044
6.898678414096917,13.544745292979142
6.918502202643173,13.546229810679506
6.938325991189428,13.550176387583889
6.958149779735684,13.55657354280444
6.977973568281939,13.565398744320024
6.997797356828195,13.576618548878113
7.01762114537445,13.590188808464545
7.037444933920705,13.606054940912689
7.0572687224669615,13.624152261517763
7.077092511013216,13.644406371885609
7.096916299559473,13.66673360169201
7.116740088105728,13.691041498566259
7.136563876651983,13.717229360949066
7.156387665198239,13.745188808511926
7.176211453744494,13.774804384563463
7.19603524229075,13.80595418480512
7.215859030837005,13.838510506828769
7.235682819383261,13.872340514863652
7.255506607929516,13.907306914472912
7.275330396475772,13.943268632156489
7.295154185022027,13.98008149513043
7.314977973568283,14.01759890690719
7.334801762114538,14.05567251468908
7.354625550660794,14.094152864993202
7.374449339207049,14.132890044344515
7.394273127753305,14.171734302291485
7.4140969162995605,14.210536654409289
7.433920704845816,14.249149463351854
7.453744493392072,14.28742699639018
7.473568281938327,14.325225958225257
7.493392070484583,14.362405998187121
7.513215859030838,14.39883019122341
7.533039647577093,14.43436549234312
7.552863436123348,14.468883164407666
7.572687224669605,14.50225917936033
7.59251101321586,14.534374593148991
7.612334801762115,14.565115894734065
7.6321585903083715,14.594375329682048
7.651982378854627,14.622051198925423
7.671806167400882,14.648048133329908
7.691629955947137,14.672277344745334
7.711453744493394,14.694656854233564
7.731277533039649,14.715111698166902
7.751101321585904,14.733574112874532
7.7709251101321595,14.749983698485398
7.790748898678416,14.764287562576136
7.81057268722467,14.776440444181796
7.830396475770926,14.786404818668988
7.850220264317182,14.794150983905391
7.870044052863436,14.799657128089384
7.889867841409693,14.802909379527625
7.909691629955948,14.803901838569793
7.929515418502204,14.802636591829497
7.9493392070484585,14.799123708736685
7.969162995594715,14.793381220385399
7.9889867841409705,14.785435080556796
8.008810572687224,14.775319108716566
8.02863436123348,14.763074914706547
8.048458149779737,14.748751804773725
8.068281938325994,14.73240666850785
8.088105726872246,14.714103846191918
8.107929515418503,14.693914976009195
8.12775330396476,14.671918820497918
8.147577092511014,14.648201071601388
8.167400881057269,14.622854133629028
8.187224669603525,14.595976883424298
8.207048458149782,14.567674407030431
8.226872246696036,14.538057712157354
8.246696035242293,14.5072434157831
8.266519823788547,14.475353406275472
8.286343612334802,14.442514479494447
8.306167400881058,14.408857948436147
8.325991189427315,14.374519226106877
8.345814977973568,14.339637381472688
8.365638766519824,14.30435466851706
8.38546255506608,14.268816028658575
8.405286343612337,14.233168567031319
8.42511013215859,14.1975610034137
8.444933920704846,14.162143098905075
8.464757709251103,14.127065059792287
8.484581497797357,14.0924769204165
8.504405286343614,14.058527907241018
8.524229074889869,14.025365786726768
8.544052863436125,13.993136200038936
8.56387665198238,13.961981988025588
8.583700440528636,13.932042510320487
8.60352422907489,13.903452962816148
8.623348017621145,13.876343698119136
8.643171806167402,13.850839553927154
8.662995594713658,13.827059194543311
8.682819383259913,13.805114470958214
8.702643171806168,13.785109805072308
8.722466960352424,13.767141603690872
8.74229074889868,13.75129770789434
8.762114537444935,13.737656883259483
8.78193832599119,13.726288356181735
8.801762114537446,13.717251401221949
8.821585903083701,13.710594983975012
8.841409691629957,13.706357463440037
8.861233480176212,13.704566357267286
8.881057268722468,13.705238172579609
8.900881057268723,13.708378304328365
8.92070484581498,13.713981002361521
8.940528634361234,13.722029407572949
8.960352422907489,13.73249565668495
8.980176211453745,13.745341054410046
9.000000000000002,13.760516310961025
9.019823788546258,13.77796184214723
9.039647577092511,13.797608128627493
9.059471365638768,13.81937613029645
9.079295154185024,13.84317775127457
9.099118942731279,13.868916350559926
9.118942731277533,13.896487293085086
9.13876651982379,13.925778535709734
9.158590308370046,13.95667124256489
9.1784140969163,13.989040424145221
9.198237885462555,14.022755594615653
9.218061674008812,14.057681441948459
9.237885462555067,14.093678505727864
9.257709251101323,14.13060385774014
9.27753303964758,14.168311780797
9.297356828193834,14.206654441606954
9.317180616740089,14.245482553902875
9.337004405286345,14.284646028442685
9.356828193832602,14.323994606914559
9.376651982378855,14.36337847719029
9.396475770925111,14.40264886777104
9.416299559471367,14.441658619654437
9.436123348017622,14.480262734213857
9.455947136563877,14.518318896017016
9.475770925110133,14.55568796981827
9.49559471365639,14.592234471235018
9.515418502202644,14.627827010864161
9.5352422907489,14.66233871180715
9.555066079295155,14.695647600754052
9.57488986784141,14.72763697292888
9.594713656387666,14.758195731321615
9.614537444933923,14.787218700727854
9.634361233480178,14.814606917189506
9.654185022026432,14.840267893477021
9.674008810572689,14.86411586128284
9.693832599118945,14.886071990804558
9.713656387665198,14.906064588389658
9.733480176211454,14.92402927289219
9.75330396475771,14.939909131359045
9.773127753303967,14.953654854617483
9.792951541850222,14.965224853284157
9.812775330396477,14.974585354652856
9.832599118942733,14.98171048085243
9.852422907488988,14.98658230859335
9.872246696035244,14.98919091074507
9.892070484581499,14.989534379907472
9.911894273127754,14.987618834059084
9.93171806167401,14.983458404281771
9.951541850220266,14.9770752044808
9.971365638766521,14.968499282936866
9.991189427312776,14.957768555447911
10.011013215859032,14.944928719741327
10.030837004405289,14.930033150763865
10.050660792951543,14.913142776388604
10.070484581497798,14.89432593301549
10.090308370044054,14.873658200486958
10.11013215859031,14.851222215694063
10.129955947136565,14.827107464212054
10.14977973568282,14.801410049280625
10.169603524229077,14.774232437434062
10.189427312775331,14.745683180091742
10.209251101321588,14.715876610444099
10.229074889867842,14.68493251501163
10.248898678414099,14.652975779321645
10.268722466960353,14.6201360072369
10.28854625550661,14.586547113587423
10.308370044052865,14.552346889900733
10.32819383259912,14.517676543201386
10.348017621145376,14.482680208054639
10.367841409691632,14.447504432266852
10.387665198237887,14.412297636923359
10.407488986784141,14.377209551743386
10.427312775330398,14.342390627060922
10.447136563876654,14.307991424094604
10.466960352422909,14.274161985548712
10.486784140969164,14.241051188983533
10.50660792951542,14.208806085801317
10.526431718061675,14.177571229109008
10.546255506607931,14.147487994127232
10.566079295154186,14.118693895213662
10.585903083700442,14.091321903942308
10.605726872246697,14.065499773020608
10.625550660792953,14.041349371120834
10.645374449339208,14.018986033940779
