Frequency (Hz),Amplitude
0.0,1.8185550144041382
0.019801980198019802,1.817662157378736
0.039603960396039604,1.8149845635487931
0.0594059405940594,1.810525164497054
0.07920792079207921,1.804288845692431
0.09900990099009901,1.7962824457990114
0.1188118811881188,1.786514755835691
0.13861386138613863,1.7749965183185579
0.15841584158415842,1.7617404265634942
0.1782178217821782,1.7467611243780865
0.19801980198019803,1.730075206431497
0.21782178217821782,1.7117012196616015
0.2376237623762376,1.6916596661629637
0.25742574257425743,1.669973008101353
0.27722772277227725,1.6466656753249171
0.297029702970297,1.6217640764964343
0.31683168316831684,1.5952966147622154
0.33663366336633666,1.5672937092133377
0.3564356435643564,1.5377878236978164
0.37623762376237624,1.50681350492802
0.39603960396039606,1.4744074323210248
0.4158415841584158,1.4406084826472414
0.43564356435643564,1.405457813390149
0.45544554455445546,1.368998969805303
0.4752475247524752,1.3312780220976133
0.495049504950495,1.2923437410411842
0.5148514851485149,1.2522478229212872
0.5346534653465347,1.2110451781371838
0.5544554455445545,1.168794302527793
0.5742574257425742,1.1255577569932138
0.594059405940594,1.0814027900456884
0.613861386138614,1.0364021506562153
0.6336633663366337,0.990635156833047
0.6534653465346534,0.94418911126425
0.6732673267326733,0.8971611928164908
0.6930693069306931,0.8496610073316916
0.7128712871287128,0.8018140614368493
0.7326732673267327,0.7537665414535233
0.7524752475247525,0.7056919538154894
0.7722772277227723,0.6578004374046759
0.7920792079207921,0.6103519179420451
0.8118811881188118,0.5636747513686567
0.8316831683168316,0.5181920377596996
0.8514851485148516,0.4744580922691561
0.8712871287128713,0.43320672714905495
0.891089108910891,0.3954086898484608
0.9108910891089109,0.3623230010188265
0.9306930693069307,0.33549994581253184
0.9504950495049505,0.31665681872152734
0.9702970297029703,0.3073479044663331
0.99009900990099,0.3084776144768352
1.00990099009901,0.31993287452929337
1.0297029702970297,0.34063278076837017
1.0495049504950495,0.36895173017252286
1.0693069306930694,0.4031887655310409
1.0891089108910892,0.4418512889766584
1.108910891089109,0.4837445643281112
1.1287128712871286,0.5279531494618303
1.1485148514851484,0.573785953501367
1.1683168316831685,0.6207201065955892
1.188118811881188,0.6683552113556728
1.2079207920792079,0.716379235462731
1.227722772277228,0.7645440378389642
1.2475247524752475,0.8126480588198748
1.2673267326732673,0.8605241035605762
1.2871287128712872,0.908030682286768
1.3069306930693068,0.955045823845943
1.3267326732673268,1.001462614249917
1.3465346534653466,1.0471859466902835
1.3663366336633662,1.0921301301146296
1.3861386138613863,1.1362171124177929
1.405940594059406,1.1793751482364256
1.4257425742574257,1.2215377917334014
1.4455445544554455,1.2626431293635039
1.4653465346534653,1.3026331915809304
1.4851485148514851,1.3414534992087532
1.504950495049505,1.3790527120252871
1.5247524752475248,1.4153823555608174
1.5445544554455446,1.4503966081750674
1.5643564356435644,1.4840521349031364
1.5841584158415842,1.5163079577985448
1.6039603960396038,1.5471253549011081
1.6237623762376237,1.5764677817488268
1.6435643564356437,1.6043008107014296
1.6633663366336633,1.630592084366928
1.683168316831683,1.6553112802051113
1.7029702970297032,1.6784300839853028
1.7227722772277227,1.6999221702436698
1.7425742574257426,1.7197631882516022
1.7623762376237624,1.7379307522949028
1.782178217821782,1.7544044352920343
1.801980198019802,1.7691657649625694
1.8217821782178218,1.7821982219038397
1.8415841584158414,1.793487239053583
1.8613861386138615,1.803020202114105
1.881188118811881,1.8107864505947702
1.900990099009901,1.8167772791977266
1.920792079207921,1.8209859393296948
1.9405940594059405,1.8234076405728892
1.9603960396039604,1.8240395519925943
1.98019801980198,1.8228808031992259
2.0,1.819932485119948
2.01980198019802,1.8151976504713632
2.0396039603960396,1.808681313960178
2.0594059405940595,1.8003904522756355
2.0792079207920793,1.7903340039761932
2.099009900990099,1.7785228694152615
2.118811881188119,1.7649699108979964
2.1386138613861387,1.7496899533153691
2.1584158415841586,1.7326997855643436
2.1782178217821784,1.7140181631379185
2.1980198019801978,1.6936658123578179
2.217821782178218,1.6716654368312238
2.237623762376238,1.6480417268458236
2.257425742574257,1.6228213725813903
2.2772277227722775,1.5960330822210358
2.297029702970297,1.567707606301699
2.3168316831683167,1.5378777699685793
2.336633663366337,1.5065785152113822
2.3564356435643563,1.473846955690997
2.376237623762376,1.4397224474503558
2.3960396039603964,1.4042466796951094
2.4158415841584158,1.3674637909991472
2.4356435643564356,1.3294205178353968
2.455445544554456,1.290166384391255
2.4752475247524752,1.249753945393517
2.495049504950495,1.20823909741584
2.514851485148515,1.1656814792660712
2.5346534653465347,1.1221449891224162
2.5544554455445545,1.0776984559399005
2.5742574257425743,1.0324165165067092
2.594059405940594,0.9863807692142551
2.6138613861386135,0.9396813038284954
2.633663366336634,0.8924187473818407
2.6534653465346536,0.8447070258429743
2.673267326732673,0.7966771285435862
2.6930693069306932,0.7484822907136656
2.712871287128713,0.7003051974742188
2.7326732673267324,0.6523680838382219
2.7524752475247527,0.6049469823197283
2.7722772277227725,0.5583918508927523
2.792079207920792,0.5131548010972781
2.811881188118812,0.46982875054479495
2.8316831683168315,0.42919740858572836
2.8514851485148514,0.3922918151791945
2.8712871287128716,0.36043352586305516
2.891089108910891,0.3352151020181355
2.910891089108911,0.3183359912101432
2.9306930693069306,0.3112336756894541
2.9504950495049505,0.3146055459835839
2.9702970297029703,0.32812143885947737
2.99009900990099,0.35056535028625074
3.00990099009901,0.3802840381234955
3.0297029702970297,0.4156191328514762
3.0495049504950495,0.4551439947159033
3.0693069306930694,0.4977257569899045
3.089108910891089,0.542497535755705
3.108910891089109,0.5888033785881494
3.128712871287129,0.6361449063551958
3.148514851485148,0.6841385293656947
3.1683168316831685,0.7324837030040502
3.1881188118811883,0.7809401484628217
3.2079207920792077,0.8293117050294907
3.227722772277228,0.877434896558019
3.2475247524752473,0.925170797308159
3.267326732673267,0.9723991994750284
3.2871287128712874,1.0190143919076193
3.3069306930693068,1.0649220746508046
3.3267326732673266,1.1100370814326668
3.346534653465347,1.154281682604197
3.366336633663366,1.197584309395472
3.386138613861386,1.2398785871230689
3.4059405940594063,1.2811025972161052
3.4257425742574257,1.3211983103346754
3.4455445544554455,1.3601111485753845
3.4653465346534653,1.3977896458953363
3.485148514851485,1.4341851838532045
3.504950495049505,1.4692517855181222
3.5247524752475248,1.502945954591722
3.5445544554455446,1.5352265498730147
3.564356435643564,1.566054687485431
3.5841584158415842,1.5953936649982499
3.603960396039604,1.6232089028678105
3.6237623762376234,1.6494678996064591
3.6435643564356437,1.6741401978411725
3.6633663366336635,1.6971973590051994
3.683168316831683,1.718612944858136
3.702970297029703,1.7383625043849245
3.722772277227723,1.7564235649029305
3.7425742574257423,1.7727756264289185
3.762376237623762,1.7874001585353998
3.7821782178217824,1.8002805990692774
3.801980198019802,1.8114023542226445
3.8217821782178216,1.8207527995415282
3.841584158415842,1.8283212815382492
3.8613861386138613,1.834099119640087
3.881188118811881,1.838079608264596
3.9009900990099013,1.8402580188617823
3.9207920792079207,1.8406316018078495
3.9405940594059405,1.8391995880759113
3.96039603960396,1.835963190647141
3.98019801980198,1.8309256056628729
4.0,1.8240920133549845
4.01980198019802,1.8154695788302826
4.03960396039604,1.80506745282541
4.0594059405940595,1.7928967725934903
4.079207920792079,1.7789706631340731
4.099009900990099,1.7633042390358913
4.118811881188119,1.7459146072695517
4.138613861386139,1.7268208713477011
4.158415841584159,1.7060441373668147
4.178217821782178,1.683607522562396
4.198019801980198,1.6595361671535918
4.217821782178218,1.633857250431789
4.237623762376238,1.6066000122706006
4.257425742574258,1.577795781514591
4.2772277227722775,1.5474780130586319
4.297029702970297,1.5156823358815688
4.316831683168317,1.482446614877848
4.336633663366336,1.447811030080921
4.356435643564357,1.4118181778489811
4.376237623762377,1.3745131998655205
4.3960396039603955,1.3359439475023758
4.415841584158416,1.2961611913529174
4.435643564356436,1.2552188887808038
4.455445544554455,1.2131745264482012
4.475247524752476,1.1700895604208912
4.4950495049504955,1.1260299842236778
4.514851485148514,1.081067066052832
4.534653465346535,1.0352783115870405
4.554455445544555,0.988748730461669
4.574257425742574,0.9415725154372053
4.594059405940594,0.893855288000464
4.613861386138614,0.8457171291188453
4.633663366336633,0.7972967087115023
4.653465346534653,0.7487569657984083
4.673267326732674,0.7002929916319129
4.693069306930693,0.6521430517407382
4.712871287128713,0.6046040642947356
4.732673267326733,0.5580533067416551
4.752475247524752,0.5129784935896995
4.772277227722772,0.4700181330802723
4.792079207920793,0.43001182982204833
4.811881188118812,0.3940528474320353
4.8316831683168315,0.36351773377546126
4.851485148514852,0.34001789908999996
4.871287128712871,0.3251947972841255
4.891089108910891,0.32032736803457473
4.910891089108912,0.32589108610642703
4.930693069306931,0.3413642141085147
4.9504950495049505,0.36544188127561744
4.97029702970297,0.3964810787851946
4.99009900990099,0.43288412866312936
5.00990099009901,0.47329302009291113
5.02970297029703,0.5166317056982143
5.0495049504950495,0.5620743300435832
5.069306930693069,0.6089925771875057
5.089108910891089,0.6569059889512598
5.108910891089109,0.7054423219234188
5.128712871287129,0.7543080694936571
5.148514851485149,0.8032672065081431
5.1683168316831685,0.8521260348118824
5.188118811881188,0.9007223892926951
5.207920792079208,0.9489179146198771
5.227722772277227,0.9965924975353618
5.247524752475248,1.0436402171189092
5.267326732673268,1.089966371223321
5.2871287128712865,1.1354852724491127
5.306930693069307,1.1801185996652717
5.326732673267327,1.223794154571103
5.346534653465346,1.2664449164948464
5.366336633663367,1.3080083189094234
5.3861386138613865,1.3484256923058109
5.405940594059405,1.3876418329817768
5.425742574257426,1.4256046679176084
5.445544554455446,1.4622649935338674
5.465346534653465,1.4975762716517338
5.485148514851486,1.531494470018999
5.504950495049505,1.5639779377477
5.524752475247524,1.594987308229783
5.544554455445545,1.6244854237638362
5.564356435643565,1.652437277386337
5.584158415841584,1.6788099683625088
5.603960396039604,1.7035726685299228
5.623762376237624,1.7266965972594503
5.643564356435643,1.7481550032436601
5.663366336633663,1.7679231516719185
5.683168316831684,1.7859783156281368
5.702970297029703,1.8022997707669153
5.7227722772277225,1.8168687925003992
5.742574257425743,1.8296686550711871
5.762376237623762,1.8406846320027703
5.782178217821782,1.8499039975154465
5.801980198019803,1.8573160285754098
5.821782178217822,1.8629120073126808
5.841584158415841,1.8666852236013507
5.861386138613861,1.8686309776468495
5.881188118811881,1.8687465824701395
5.900990099009901,1.8670313662210565
5.920792079207921,1.8634866742921876
5.9405940594059405,1.858115871243848
5.96039603960396,1.8509243425895658
5.98019801980198,1.8419194965323786
6.0,1.8311107657861099
6.01980198019802,1.8185096096641409
6.03960396039604,1.8041295166730085
6.0594059405940595,1.7879860079115073
6.079207920792079,1.7700966416499337
6.099009900990099,1.7504810195529952
6.118811881188119,1.7291607951160253
6.138613861386139,1.7061596850145355
6.158415841584159,1.6815034842262777
6.178217821782178,1.655220085983369
6.198019801980198,1.6273395078587094
6.217821782178218,1.597893925601965
6.237623762376237,1.5669177167341128
6.257425742574258,1.5344475164116147
6.2772277227722775,1.5005222887164127
6.297029702970296,1.4651834173622933
6.316831683168317,1.4284748208952218
6.336633663366337,1.3904430988920158
6.356435643564356,1.3511377175489347
6.376237623762377,1.3106112455676489
6.396039603960396,1.2689196546269235
6.415841584158415,1.226122703311074
6.435643564356436,1.182284429630423
6.455445544554456,1.137473785908395
6.475247524752475,1.0917654618298946
6.495049504950495,1.045240958319336
6.514851485148515,0.9979899988060025
6.534653465346534,0.9501123985291483
6.554455445544554,0.901720561528255
6.574257425742575,0.8529428457134997
6.594059405940594,0.8039281387338487
6.6138613861386135,0.754852134719346
6.633663366336634,0.7059260111292536
6.653465346534653,0.6574084918590112
6.673267326732673,0.6096226475017505
6.693069306930694,0.5629791658711848
6.712871287128713,0.5180079887931478
6.732673267326732,0.47539947155965145
6.752475247524753,0.4360529243132048
6.772277227722772,0.4011212713847729
6.792079207920792,0.3720214207349328
6.811881188118813,0.35035257456025654
6.8316831683168315,0.33765584513784763
6.851485148514851,0.33501929115475937
6.871287128712871,0.34269896351454787
6.891089108910891,0.3600188288373169
6.910891089108911,0.3856304531965714
6.930693069306931,0.4179311397717988
6.9504950495049505,0.4553949642711275
6.97029702970297,0.4967314296433616
6.99009900990099,0.5409149712663531
7.00990099009901,0.5871531956407325
7.02970297029703,0.634838330819274
7.0495049504950495,0.6835017502430513
7.069306930693069,0.7327775097930195
7.089108910891089,0.7823750083380147
7.108910891089109,0.8320590934086635
7.128712871287128,0.881635749348344
7.148514851485149,0.930941817521158
7.1683168316831685,0.9798375840853172
7.188118811881187,1.0282013990617502
7.207920792079208,1.0759257377098645
7.227722772277228,1.122914292081466
7.247524752475247,1.1690798042068875
7.267326732673268,1.214342437951353
7.287128712871287,1.2586285457809159
7.306930693069306,1.3018697277641569
7.326732673267327,1.3440021088214058
7.346534653465347,1.3849657804101292
7.366336633663366,1.4247043671455875
7.3861386138613865,1.463164689094316
7.405940594059406,1.5002964978684372
7.425742574257425,1.536052270030624
7.445544554455446,1.5703870452733137
7.465346534653466,1.603258299764577
7.485148514851485,1.634625847241403
7.504950495049505,1.6644517620787933
7.524752475247524,1.6927003198134412
7.544554455445544,1.7193379515573002
7.564356435643565,1.7443332094724195
7.584158415841584,1.767656741050457
7.603960396039604,1.7892812703860754
7.623762376237624,1.8091815849854127
7.643564356435643,1.827334526928615
7.663366336633663,1.8437189874280362
7.683168316831684,1.8583159040021564
7.702970297029703,1.8711082596303246
7.7227722772277225,1.8820810833719896
7.742574257425743,1.891221452032112
7.762376237623762,1.8985184925364427
7.782178217821782,1.9039633847502124
7.801980198019803,1.907549364533314
7.821782178217822,1.9092717268786203
7.841584158415841,1.9091278290272344
7.861386138613862,1.9071170934988464
7.881188118811881,1.9032410110175015
7.900990099009901,1.897503143354489
7.92079207920792,1.8899091261526213
7.9405940594059405,1.880466671840132
7.96039603960396,1.8691855727911824
7.980198019801979,1.8560777049428339
8.0,1.8411570321394823
8.01980198019802,1.8244396115462689
8.03960396039604,1.8059436005558218
8.05940594059406,1.7856892657119898
8.07920792079208,1.7636989942940553
8.099009900990099,1.7399973093508896
8.118811881188119,1.7146108891546084
8.138613861386139,1.687568592266095
8.158415841584159,1.6589014896838472
8.178217821782178,1.6286429058980065
8.198019801980198,1.596828471116526
8.217821782178218,1.5634961874967575
8.237623762376238,1.5286865129448013
8.257425742574258,1.4924424669864607
8.277227722772277,1.4548097644408744
8.297029702970297,1.4158369842376641
8.316831683168317,1.375575782846352
8.336633663366337,1.334081164620997
8.356435643564357,1.2914118251684048
8.376237623762377,1.2476305889980028
8.396039603960396,1.2028049697390768
8.415841584158416,1.157007890880806
8.435643564356436,1.1103186184049378
8.455445544554456,1.0628239754426465
8.475247524752476,1.014619935522259
8.495049504950495,0.9658137284699808
8.514851485148515,0.9165266464699511
8.534653465346535,0.8668978141332057
8.554455445544555,0.8170892952082733
8.574257425742575,0.7672930619578986
8.594059405940595,0.7177405641659228
8.613861386138613,0.6687159094991464
8.633663366336634,0.6205739829125808
8.653465346534654,0.5737650801331767
8.673267326732672,0.5288674735575889
8.693069306930694,0.4866279182614532
8.712871287128714,0.44800560959516966
8.732673267326732,0.4142044504777651
8.752475247524753,0.3866592286181994
8.772277227722773,0.3669201368970977
8.792079207920791,0.35638851294049745
8.811881188118813,0.355943327346383
8.831683168316832,0.3656401708495606
8.85148514851485,0.38469235679961244
8.871287128712872,0.4117484457594202
8.891089108910892,0.44526826342908377
8.91089108910891,0.4838033167382491
8.930693069306932,0.5261272497869867
8.950495049504951,0.5712582480147171
8.97029702970297,0.6184301584217208
8.990099009900991,0.6670491616259272
9.00990099009901,0.7166528055980796
9.029702970297029,0.7668767075386922
9.04950495049505,0.8174292344322113
9.06930693069307,0.868072833063086
9.089108910891088,0.9186104359022682
9.10891089108911,0.9688755905381744
9.12871287128713,1.018725273483743
9.148514851485148,1.0680346283366995
9.16831683168317,1.1166930847608423
9.188118811881187,1.164601472952622
9.207920792079207,1.2116698607162795
9.227722772277229,1.2578159192802514
9.247524752475247,1.302963679315749
9.267326732673267,1.347042577431278
9.287128712871288,1.3899867207700602
9.306930693069306,1.4317343167390997
9.326732673267326,1.472227228761659
9.346534653465348,1.5114106289308022
9.366336633663366,1.549232725693038
9.386138613861386,1.5856445500014387
9.405940594059407,1.620599787298091
9.425742574257425,1.654054645603522
9.445544554455445,1.6859677521801737
9.465346534653467,1.7163000728917785
9.485148514851485,1.7450148496410922
9.504950495049505,1.772077552235574
9.524752475247526,1.7974558417780457
9.544554455445544,1.82111954326096
9.564356435643564,1.8430406254983245
9.584158415841586,1.8631931868893352
9.603960396039604,1.8815534457929783
9.623762376237623,1.8980997345217183
9.643564356435645,1.9128124961467219
9.663366336633663,1.925674283456986
9.683168316831683,1.9366697595377866
9.702970297029704,1.9457856995359784
9.722772277227723,1.9530109932653374
9.742574257425742,1.9583366483784077
9.762376237623764,1.9617557938943577
9.782178217821782,1.9632636839288118
9.801980198019802,1.9628577015225699
9.821782178217823,1.960537362513293
9.841584158415841,1.956304319440411
9.861386138613861,1.9501623655189588
9.881188118811881,1.9421174387643674
9.900990099009901,1.932177626399996
9.92079207920792,1.9203531697331164
9.94059405940594,1.9066564697451176
9.96039603960396,1.891102093710421
9.98019801980198,1.8737067832392853
10.0,1.8544894642333551
10.01980198019802,1.8334712593567666
10.03960396039604,1.8106755037623488
10.05940594059406,1.7861277649795575
10.07920792079208,1.7598558680770275
10.099009900990099,1.731889927468152
10.118811881188119,1.70226238704755
10.138613861386139,1.6710080707484245
10.158415841584159,1.6381642461200612
10.178217821782178,1.6037707041740767
10.198019801980198,1.567869859581825
10.217821782178218,1.5305068763826413
10.237623762376238,1.4917298257643183
10.257425742574258,1.4515898843145323
10.277227722772277,1.4101415835658258
10.297029702970297,1.3674431248802708
10.316831683168317,1.323556778037519
10.336633663366337,1.278549387717045
10.356435643564357,1.2324930199910429
10.376237623762377,1.1854657918049567
10.396039603960396,1.137552941414544
10.415841584158416,1.0888482185850652
10.435643564356436,1.0394557024909614
10.455445544554454,0.9894921961677959
10.475247524752476,0.9390904039448336
10.495049504950495,0.888403179151592
10.514851485148514,0.8376092419836101
10.534653465346535,0.7869209209945988
10.554455445544555,0.736594672334503
10.574257425742573,0.6869453696754635
10.594059405940595,0.638365580438285
10.613861386138614,0.5913510790880783
10.633663366336632,0.5465332554294149
10.653465346534654,0.504716873795274
10.673267326732674,0.46691599869871503
