Time (s),Filtered Signal
0.0,0.033656450126731526
0.033370165745856356,0.21634785909441256
0.06674033149171271,0.3784819352000852
0.10011049723756907,0.504459452843948
0.13348066298342542,0.5843014598692289
0.16685082872928178,0.6121787075712304
0.20022099447513814,0.5840896620896313
0.2335911602209945,0.4975495685358906
0.26696132596685085,0.3544525192998262
0.30033149171270723,0.16546993021348153
0.33370165745856356,-0.04739354642732641
0.3670718232044199,-0.25288614418594374
0.4004419889502763,-0.4175776954726732
0.43381215469613266,-0.5155210282815886
0.467182320441989,-0.5366656841523932
0.5005524861878453,-0.4906107526901965
0.5339226519337017,-0.40413467023639754
0.5672928176795581,-0.31322030444696813
0.6006629834254145,-0.2520964919882033
0.6340331491712707,-0.24267348471139707
0.6674033149171271,-0.2876027884022232
0.7007734806629835,-0.3691835583203537
0.7341436464088398,-0.45468097618800557
0.7675138121546962,-0.5066533548187422
0.8008839779005525,-0.4951411340432101
0.8342541436464089,-0.4076933959215753
0.8676243093922653,-0.25366664239845627
0.9009944751381216,-0.061056255881520596
0.934364640883978,0.13319609474349145
0.9677348066298344,0.29587627723157683
1.0011049723756906,0.4081848804830588
1.0344751381215471,0.47003858057013176
1.0678453038674034,0.4962202238677161
1.1012154696132597,0.50635504500187
1.1345856353591162,0.5137893108481165
1.1679558011049724,0.5191665130817064
1.201325966850829,0.5121513079989751
1.2346961325966852,0.48031942965519436
1.2680662983425415,0.42003184717514047
1.301436464088398,0.3425978535654315
1.3348066298342542,0.2713318161015055
1.3681767955801105,0.23019739626947225
1.401546961325967,0.22984368972156433
1.4349171270718233,0.25897131565953857
1.4682872928176796,0.28665921305106057
1.501657458563536,0.27556078901774755
1.5350276243093923,0.19979440522280784
1.5683977900552488,0.05833664279193944
1.601767955801105,-0.12335028871393085
1.6351381215469614,-0.3046849628360277
1.6685082872928179,-0.4485839388731883
1.7018784530386741,-0.5375459396544018
1.7352486187845306,-0.5786732980482135
1.768618784530387,-0.5951088951793116
1.8019889502762432,-0.608889914574707
1.8353591160220997,-0.6250787891722278
1.868729281767956,-0.6264404572467287
1.9020994475138122,-0.5821075449991967
1.9354696132596687,-0.4657931346543398
1.968839779005525,-0.2736043062811483
2.0022099447513813,-0.031535065678205444
2.0355801104972375,0.21173301732884806
2.0689502762430942,0.4032379010080945
2.1023204419889505,0.5061853503080088
2.135690607734807,0.5127717352010732
2.169060773480663,0.44422357337231166
2.2024309392265193,0.33945996923481175
2.235801104972376,0.23871892061159208
2.2691712707182323,0.1695733309785792
2.3025414364640886,0.14021804711205066
2.335911602209945,0.14080326020988568
2.369281767955801,0.15031412204600028
2.402651933701658,0.14536828785474473
2.436022099447514,0.1080763626860236
2.4693922651933704,0.03152497457203636
2.5027624309392267,-0.07769601029733426
2.536132596685083,-0.20047127083871075
2.5695027624309392,-0.31028151092928846
2.602872928176796,-0.3823133849076877
2.636243093922652,-0.40440774294801884
2.6696132596685085,-0.38539916204041996
2.7029834254143648,-0.35555533907392745
2.736353591160221,-0.3559158424376415
2.7697237569060777,-0.41833230625433904
2.803093922651934,-0.5438845463607415
2.8364640883977903,-0.6907526004502389
2.8698342541436466,-0.7807173413221988
2.903204419889503,-0.7258447398960155
2.936574585635359,-0.466547268969794
2.969944751381216,-0.004450492082172798
3.003314917127072,0.5867145134743191
3.0366850828729284,1.1801980077290055
3.0700552486187846,1.639214307882107
3.103425414364641,1.8656143106298329
3.1367955801104976,1.8327000808893632
3.170165745856354,1.5881920392514517
3.20353591160221,1.2277787779191958
3.2369060773480665,0.8531923627299884
3.2702762430939227,0.5345151451001782
3.3036464088397794,0.29227160457794016
3.3370165745856357,0.10394423205538315
3.370386740331492,-0.07203435544698414
3.4037569060773483,-0.2685173658438131
3.4371270718232045,-0.49137131717133076
3.4704972375690613,-0.7176267302334395
3.5038674033149175,-0.9085170132298627
3.537237569060774,-1.0294031982023222
3.57060773480663,-1.0666883992377836
3.6039779005524863,-1.0345377045657738
3.6373480662983426,-0.9694378472065867
3.6707182320441993,-0.9156178664792405
3.7040883977900556,-0.9072690606714451
3.737458563535912,-0.9539940815991796
3.770828729281768,-1.0345808840443549
3.8041988950276244,-1.101710627099652
3.837569060773481,-1.0969478191016244
3.8709392265193374,-0.971753636918302
3.9043093922651937,-0.7072996302493728
3.93767955801105,-0.325059676804384
3.9710497237569062,0.11725344331286608
4.0044198895027625,0.5440993997431834
4.037790055248619,0.8879240716238822
4.071160220994475,1.1113689154213218
4.104530386740332,1.2160572797736156
4.1379005524861885,1.2344827931644318
4.171270718232044,1.2098254632398284
4.204640883977901,1.1742591921633334
4.238011049723757,1.1364025444002877
4.271381215469614,1.083165273867546
4.30475138121547,0.9935137134676313
4.338121546961326,0.8557856500558855
4.371491712707183,0.6789638209749904
4.404861878453039,0.4919506286122526
4.438232044198895,0.3311796758256704
4.471602209944752,0.22268833589589734
4.504972375690608,0.1674996044504986
4.538342541436465,0.13781791078751396
4.5717127071823205,0.08683133637317061
4.605082872928177,-0.031190851958164432
4.638453038674034,-0.2387736719272313
4.67182320441989,-0.5209490469145341
4.7051933701657465,-0.8259241420988054
4.738563535911602,-1.0816079654277468
4.771933701657459,-1.2218209056111353
4.805303867403316,-1.211377230094472
4.8386740331491715,-1.059414971185912
4.872044198895028,-0.8154391082869361
4.905414364640884,-0.5501404919215005
4.938784530386741,-0.32948248612013786
4.972154696132597,-0.19284007145748075
5.005524861878453,-0.14338238193220107
5.03889502762431,-0.15305824430864737
5.072265193370166,-0.17841014032429467
5.105635359116023,-0.1796521922672547
5.1390055248618784,-0.1352357722960336
5.172375690607735,-0.04704804084519117
5.205745856353592,0.06420025281758161
5.239116022099448,0.16993347889452223
5.272486187845304,0.24564351265339796
5.30585635359116,0.2789862246550997
5.339226519337017,0.27166757020931764
5.372596685082874,0.23575481838041532
5.4059668508287295,0.1872316096961624
5.439337016574586,0.140063107881303
5.472707182320442,0.10277120098266002
5.506077348066299,0.07754626014694091
5.5394475138121555,0.06069002498720679
5.572817679558011,0.043571351028823584
5.606187845303868,0.014777487001346486
5.639558011049724,-0.034937767318438055
5.672928176795581,-0.10453222512070902
5.706298342541437,-0.17425396830291442
5.739668508287293,-0.20286496715004715
5.77303867403315,-0.1363694029298362
5.806408839779006,0.07060326397047839
5.839779005524862,0.4273398407039716
5.873149171270718,0.8865487026458992
5.906519337016575,1.3444044506775468
5.939889502762432,1.667280987794298
5.9732596685082875,1.7383997869547054
6.006629834254144,1.5056472381748698
6.04,1.0080470507462762
6.073370165745857,0.36642103343790927
6.1067403314917135,-0.25945597679492466
6.140110497237569,-0.7282766575870743
6.173480662983426,-0.9633330505623919
6.206850828729282,-0.9682844550887977
6.240220994475139,-0.8097642931495923
6.273591160220995,-0.580113762512617
6.306961325966851,-0.360592828368528
6.340331491712708,-0.20078251240663603
6.373701657458564,-0.11797204090392939
6.40707182320442,-0.10911591266796856
6.440441988950277,-0.16375123927009358
6.473812154696133,-0.2700863564588594
6.50718232044199,-0.41412460459180006
6.5405524861878455,-0.5772242283034071
6.573922651933702,-0.737421885501725
6.607292817679559,-0.8752259329467165
6.640662983425415,-0.9797156775167961
6.674033149171271,-1.0496786127051851
6.707403314917127,-1.0879544730497837
6.740773480662984,-1.092389687381986
6.774143646408841,-1.0498741936096374
6.8075138121546965,-0.938564907072945
6.840883977900553,-0.7384531680088863
6.874254143646409,-0.44508532937489126
6.907624309392266,-0.07879806999868347
6.9409944751381225,0.31630228333612964
6.974364640883978,0.6843223288806355
7.007734806629835,0.9757500931560622
7.041104972375691,1.1639266368788423
7.074475138121548,1.2526014608914302
7.107845303867403,1.2712997653431606
7.14121546961326,1.2605653785949704
7.174585635359117,1.2535265171255958
7.207955801104973,1.261811793817914
7.241325966850829,1.2719162161211652
7.274696132596685,1.2534234228897145
7.308066298342542,1.1750496399005221
7.341436464088399,1.02082536878016
7.3748066298342545,0.7987411534189022
7.408176795580111,0.5379740281292695
7.441546961325967,0.2764962053560661
7.474917127071824,0.04548063577131845
7.5082872928176805,-0.14190672084190187
7.541657458563536,-0.29240104708657216
7.575027624309393,-0.4251197406426546
7.608397790055249,-0.5589305872922673
7.641767955801106,-0.7009751546403702
7.675138121546962,-0.8415953987675331
7.708508287292818,-0.9577123469975095
7.741878453038675,-1.0228727469512797
7.775248618784531,-1.0193149145915428
7.808618784530387,-0.9466357935731033
7.841988950276244,-0.8232407398965416
7.8753591160221,-0.6800039171208216
7.908729281767957,-0.5489992873341729
7.9420994475138125,-0.45222492018260657
7.975469613259669,-0.395027778148539
8.008839779005525,-0.3666155483453328
8.042209944751383,-0.34677802948372133
8.075580110497238,-0.31531099605099355
8.108950276243094,-0.2598518764449591
8.14232044198895,-0.17912981473163525
8.175690607734808,-0.08115426755468731
8.209060773480664,0.021796997770104704
8.24243093922652,0.11851906795638747
8.275801104972377,0.20224228218608456
8.309171270718233,0.2711962453200638
8.342541436464089,0.3269851081414049
8.375911602209946,0.3720982577913795
8.409281767955802,0.40782723130237486
8.442651933701658,0.4333735340700549
8.476022099447514,0.44634948568652694
8.509392265193371,0.44434569942516094
8.542762430939227,0.4268148097523862
8.576132596685083,0.3963031032814787
8.60950276243094,0.35821182856760736
8.642872928176796,0.3188680532781235
8.676243093922652,0.28257526849916526
8.709613259668508,0.24908707180812964
8.742983425414366,0.21311035116312205
8.776353591160222,0.1667137350995181
8.809723756906077,0.10406994542367037
8.843093922651935,0.02646295596830614
8.87646408839779,-0.05518435016577691
8.909834254143647,-0.12226763643375285
8.943204419889504,-0.15492018489467854
8.97657458563536,-0.14047330169278963
9.009944751381216,-0.08008690416949293
9.043314917127072,0.009871339389682602
9.07668508287293,0.10282391411897539
9.110055248618785,0.1714738181253428
9.143425414364641,0.19775530035335037
9.176795580110499,0.1790121473927923
9.210165745856354,0.12791486170478605
9.24353591160221,0.06635165012089092
9.276906077348068,0.01595426840962694
9.310276243093924,-0.010877125503680057
9.34364640883978,-0.015896878706269185
9.377016574585635,-0.01391347544248541
9.410386740331493,-0.025998505342151524
9.443756906077349,-0.06964046722412613
9.477127071823205,-0.14995323221740153
9.510497237569062,-0.2559559703065701
9.543867403314918,-0.36402944748528715
9.577237569060774,-0.447514211144232
9.610607734806631,-0.4884075984231768
9.643977900552487,-0.4857452072455084
9.677348066298343,-0.45636032483744154
9.710718232044199,-0.4269909814942565
9.744088397790057,-0.42078045817668686
9.777458563535912,-0.4442371450899019
9.810828729281768,-0.48112525566215947
9.844198895027626,-0.4970399886824158
9.877569060773482,-0.45354643440610387
9.910939226519337,-0.32595057334610633
9.944309392265193,-0.11651709010604014
9.97767955801105,0.1433314842145373
10.011049723756907,0.4032227541458314
10.044419889502763,0.6119192489197645
10.07779005524862,0.7350948170816236
10.111160220994476,0.7651357283269887
10.144530386740332,0.7195676340491722
10.17790055248619,0.6302637719311026
10.211270718232045,0.529456777624506
10.244640883977901,0.4390012866580268
10.278011049723757,0.3666148443038783
10.311381215469615,0.3088595067446899
10.34475138121547,0.25763131492620983
10.378121546961326,0.20618311921901547
10.411491712707184,0.15206465555583704
10.44486187845304,0.09662417378515231
10.478232044198895,0.04251912531019469
10.511602209944753,-0.008734171240960672
10.544972375690609,-0.05771898074542784
10.578342541436465,-0.10626406671695718
10.61171270718232,-0.15547816737427922
10.645082872928178,-0.20389524299119086
10.678453038674034,-0.24689890166379644
10.71182320441989,-0.2780560056096238
10.745193370165747,-0.29211235761679627
10.778563535911603,-0.28843761503418647
10.811933701657459,-0.2730814681532235
10.845303867403315,-0.25780486133003044
10.878674033149172,-0.25567338428494996
10.912044198895028,-0.2746381316292484
10.945414364640884,-0.3120337675747603
10.978784530386742,-0.3531029121472926
11.012154696132598,-0.3751214030229435
11.045524861878453,-0.35601921956491916
11.078895027624311,-0.28389697180238355
11.112265193370167,-0.16294318785837283
11.145635359116023,-0.012655427224694902
11.179005524861878,0.13956435877281984
11.212375690607736,0.2690146454536665
11.245745856353592,0.36236341656330323
11.279116022099448,0.42021070141170846
11.312486187845305,0.4525815334637204
11.345856353591161,0.4701247330591355
11.379226519337017,0.47602829144522707
11.412596685082875,0.4631911133965668
11.44596685082873,0.418295274199481
11.479337016574586,0.33067183481549495
11.512707182320442,0.20121656204408192
11.5460773480663,0.04641718236774933
11.579447513812156,-0.10514765672616895
11.612817679558011,-0.22284529767106367
11.646187845303869,-0.28632675907101734
11.679558011049725,-0.29454515352506977
11.71292817679558,-0.26693969719415395
11.746298342541436,-0.2354817118603615
11.779668508287294,-0.23035393378930707
11.81303867403315,-0.2652649122738824
11.846408839779006,-0.32921890865038567
11.879779005524863,-0.3892567774041171
11.91314917127072,-0.4039303103835375
11.946519337016575,-0.3420969370436978
11.979889502762433,-0.198598565697588
12.013259668508288,0.0006823802636884661
12.046629834254144,0.20715264874536746
12.08,0.3676902002367006
12.113370165745858,0.44455098024120976
12.146740331491714,0.4283464507946407
12.18011049723757,0.33906970917194085
12.213480662983427,0.2158143634438261
12.246850828729283,0.10058359245696462
12.280220994475139,0.023338823468830726
12.313591160220996,-0.006120852745138782
12.346961325966852,0.0025393301402472186
12.380331491712708,0.02793899216253479
12.413701657458564,0.04763138523860933
12.447071823204421,0.04711081899316264
12.480441988950277,0.023997870594772725
12.513812154696133,-0.013444188641128061
12.54718232044199,-0.05195275086227358
12.580552486187846,-0.08004582099985796
12.613922651933702,-0.09277683096083454
12.64729281767956,-0.09254020466682679
12.680662983425416,-0.08603692756963201
12.714033149171271,-0.07938943575533311
12.747403314917127,-0.07422036232399269
12.780773480662985,-0.0668657851687327
12.81414364640884,-0.0511032559028217
12.847513812154697,-0.022786592440134913
12.880883977900554,0.01631710569249719
12.91425414364641,0.0577853912203346
12.947624309392266,0.08951105861138509
12.980994475138122,0.10099298897256442
13.01436464088398,0.08831431365345935
13.047734806629835,0.05633998686744666
13.081104972375691,0.017080300772988888
13.114475138121549,-0.014977332607164391
13.147845303867404,-0.028431520849374232
13.18121546961326,-0.019059961638019745
13.214585635359118,0.009084463652405108
13.247955801104974,0.04572520412357331
13.28132596685083,0.07845402830355816
13.314696132596685,0.09708387137753387
13.348066298342543,0.09655447862487189
13.381436464088399,0.07740185687345139
13.414806629834255,0.043899422571309334
13.448176795580112,0.0010422661446988256
13.481546961325968,-0.047913695308150435
13.514917127071824,-0.10198307203931586
13.548287292817681,-0.16081637891737735
13.581657458563537,-0.22199991273947042
13.615027624309393,-0.2791098377766137
13.648397790055249,-0.32196773579762206
13.681767955801106,-0.3393078802508629
13.715138121546962,-0.3227348295094757
13.748508287292818,-0.27018689496910164
13.781878453038676,-0.18739620595909784
13.815248618784532,-0.08675514119041297
13.848618784530387,0.015982958023757526
13.881988950276245,0.10603913586869593
13.9153591160221,0.17358839217725908
13.948729281767957,0.2161011070006796
13.982099447513813,0.23818577779570504
14.01546961325967,0.24882375897746656
14.048839779005526,0.2569010151840017
14.082209944751382,0.2668614905279969
14.11558011049724,0.27654878380640385
14.148950276243095,0.27848176267987973
14.182320441988951,0.26416215471721116
14.215690607734807,0.2293777733801772
14.249060773480664,0.1777802329183427
14.28243093922652,0.12072020063409059
14.315801104972376,0.07310380292727849
14.349171270718234,0.04701869405942417
14.38254143646409,0.046093052944104575
14.415911602209945,0.06337487001181252
14.449281767955803,0.08395835109405904
14.482651933701659,0.09129793844089602
14.516022099447515,0.074226510389441
14.54939226519337,0.031191168895094476
14.582762430939228,-0.030415977439699364
14.616132596685084,-0.09929344326659223
14.64950276243094,-0.1665838025447692
14.682872928176797,-0.22968831616039614
14.716243093922653,-0.29121837427063585
14.749613259668509,-0.3538144433593295
14.782983425414367,-0.4142814413819576
14.816353591160222,-0.46114057442298295
14.849723756906078,-0.4778126170134957
14.883093922651934,-0.45032086140663036
14.916464088397792,-0.3755873834416024
14.949834254143648,-0.2657152249335774
14.983204419889503,-0.14548013502694068
15.016574585635361,-0.04359872614771538
15.049944751381217,0.018558538261368926
15.083314917127073,0.035822745988211065
15.116685082872928,0.021694822318645095
15.150055248618786,0.003257126695240646
15.183425414364642,0.010554240297593102
15.216795580110498,0.06468720624101938
15.250165745856355,0.16927916921143762
15.283535911602211,0.308546821893092
15.316906077348067,0.45259654119527065
15.350276243093925,0.5677818437784402
15.38364640883978,0.6280716931737175
15.417016574585636,0.6231284725953555
15.450386740331492,0.5602793124473835
15.48375690607735,0.4601245906226923
15.517127071823205,0.3480022187214253
15.550497237569061,0.24483991002494102
15.583867403314919,0.1606629623071007
15.617237569060775,0.09259345683388258
15.65060773480663,0.027457338604886628
15.683977900552488,-0.052160558849037184
15.717348066298344,-0.16022159841182282
15.7507182320442,-0.29998105341672227
15.784088397790056,-0.4593979007181029
15.817458563535913,-0.6112745717659928
15.85082872928177,-0.7192892199866162
15.884198895027625,-0.74914371229599
15.917569060773483,-0.6815277354114169
15.950939226519338,-0.5217589420440404
15.984309392265194,-0.3012426143967577
16.01767955801105,-0.06884956491745352
16.051049723756908,0.12512904473251993
16.084419889502765,0.24597191373767013
16.11779005524862,0.2851645881602613
16.151160220994477,0.26023718997806083
16.18453038674033,0.2044441283147141
16.21790055248619,0.151551458520171
16.251270718232046,0.12280965119090136
16.2846408839779,0.12147566576045689
16.318011049723758,0.13617175123944775
16.351381215469615,0.15017063125683913
16.38475138121547,0.15142135346940053
16.418121546961327,0.13859588714547932
16.451491712707185,0.12097973338493598
16.48486187845304,0.11308365617951423
16.518232044198896,0.1269369936375145
16.551602209944754,0.16548142704314542
16.584972375690608,0.21957290249413466
16.618342541436466,0.2695318607990017
16.651712707182323,0.29061504657563864
16.685082872928177,0.2606028737435407
16.718453038674035,0.16709845406069515
16.751823204419892,0.012236678867712309
16.785193370165747,-0.18667845594702592
16.818563535911604,-0.4007618611837282
16.851933701657458,-0.5961444591005174
16.885303867403316,-0.7414942356405793
16.918674033149173,-0.814326398763059
16.952044198895027,-0.804649015749259
16.985414364640885,-0.7154953680996927
17.018784530386743,-0.5607777714636488
17.052154696132597,-0.36142178368289746
17.085524861878454,-0.14091066481182565
17.118895027624312,0.07870593890256128
17.152265193370166,0.27954995937557736
17.185635359116024,0.44905908259746624
17.21900552486188,0.5797557236804811
17.252375690607735,0.6683090264474233
17.285745856353593,0.714637472573761
