Time (s),Filtered Signal
0.0,-0.009422309509918719
0.03337028824833703,-0.22983776236373082
0.06674057649667406,-0.3323623255037777
0.10011086474501109,-0.24552898946739116
0.13348115299334812,0.029487299167668513
0.16685144124168516,0.42145552965403243
0.20022172949002218,0.8184642119803615
0.2335920177383592,1.109988196211158
0.26696230598669624,1.2231677168894335
0.3003325942350333,1.1395559335207304
0.3337028824833703,0.8895268049008734
0.3670731707317073,0.5323595209317298
0.40044345898004435,0.1348067080116473
0.4338137472283814,-0.2422042349798047
0.4671840354767184,-0.5471221896815818
0.5005543237250555,-0.7370929019033452
0.5339246119733925,-0.7802155600409022
0.5672949002217295,-0.6635851756508735
0.6006651884700666,-0.4033276773739675
0.6340354767184035,-0.04891063085821847
0.6674057649667406,0.32426212064291465
0.7007760532150776,0.6336777734994917
0.7341463414634146,0.8130006070406552
0.7675166297117517,0.8300931275841813
0.8008869179600887,0.6927547267282897
0.8342572062084257,0.4413629475021627
0.8676274944567628,0.13341605495626965
0.9009977827050998,-0.17272937849451883
0.9343680709534368,-0.4294134135632392
0.9677383592017739,-0.6049615742153063
1.001108647450111,-0.6845379200250572
1.0344789356984478,-0.6694448334308071
1.067849223946785,-0.5764760772076419
1.101219512195122,-0.4367152445039101
1.134589800443459,-0.29173312032333437
1.167960088691796,-0.1855306375475772
1.2013303769401331,-0.15271716186259304
1.23470066518847,-0.20618865388085064
1.268070953436807,-0.3293794234942875
1.3014412416851442,-0.47771414504851206
1.3348115299334813,-0.5909018187701537
1.3681818181818182,-0.6131940915004706
1.4015521064301553,-0.5146243491663396
1.4349223946784924,-0.3045992258809311
1.4682926829268292,-0.031215586787397463
1.5016629711751663,0.23501057413315596
1.5350332594235034,0.427614940966153
1.5684035476718403,0.510285575076841
1.6017738359201774,0.4910755381704278
1.6351441241685145,0.4176092247485448
1.6685144124168514,0.3544888749039639
1.7018847006651885,0.3526568131993313
1.7352549889135256,0.424914336625616
1.7686252771618625,0.5394900741986426
1.8019955654101996,0.6351678858998949
1.8353658536585367,0.6509761007554097
1.8687361419068735,0.5561279843651663
1.9021064301552106,0.3656663074856543
1.9354767184035477,0.13435246400806677
1.9688470066518848,-0.06786562047866979
2.002217294900222,-0.18654058186655964
2.035587583148559,-0.20475926451647103
2.0689578713968957,-0.1466659626577672
2.102328159645233,-0.062226939820139465
2.13569844789357,-0.0020766221540524043
2.1690687361419068,0.004781421656574469
2.202439024390244,-0.03958306686016517
2.235809312638581,-0.10814140536542781
2.269179600886918,-0.16569030523216052
2.302549889135255,-0.1872141861707974
2.335920177383592,-0.16923720230222156
2.369290465631929,-0.1297447153696071
2.4026607538802662,-0.09777340005014534
2.436031042128603,-0.09825027249761864
2.46940133037694,-0.13941364514720947
2.5027716186252773,-0.20860425436089094
2.536141906873614,-0.2781026526152152
2.569512195121951,-0.3178688231083946
2.6028824833702884,-0.30881492172433767
2.6362527716186253,-0.25026084881181015
2.6696230598669626,-0.15850163263198772
2.7029933481152995,-0.058167219281651986
2.7363636363636363,0.02839632039971476
2.7697339246119737,0.08814614317135575
2.8031042128603105,0.11808840069397727
2.8364745011086474,0.12125186181114399
2.8698447893569847,0.1020786425300061
2.9032150776053216,0.06493182377834514
2.9365853658536585,0.016293513973550607
2.969955654101996,-0.032164937330795645
3.0033259423503327,-0.06360810882898961
3.0366962305986696,-0.06114782098925932
3.070066518847007,-0.016262228087704344
3.1034368070953438,0.06420660366905305
3.1368070953436806,0.1572328440202446
3.170177383592018,0.23063528812451667
3.203547671840355,0.2552776713019962
3.2369179600886917,0.21682752892100018
3.270288248337029,0.12168167246352475
3.303658536585366,-0.005232697173791653
3.337028824833703,-0.12912862586484913
3.37039911308204,-0.21639874714817703
3.403769401330377,-0.24399695617182193
3.437139689578714,-0.20493508428746435
3.470509977827051,-0.10947556980886194
3.503880266075388,0.017641990753388438
3.537250554323725,0.14353159223635714
3.5706208425720622,0.23615487946620994
3.603991130820399,0.2737576090031856
3.637361419068736,0.2512828218364036
3.6707317073170733,0.18064997781466624
3.70410199556541,0.08434708166026347
3.737472283813747,-0.01463517525843396
3.7708425720620844,-0.10123089393606452
3.8042128603104213,-0.1706276915504253
3.8375831485587586,-0.22374245972132284
3.8709534368070955,-0.25938724108630434
3.9043237250554323,-0.26876015283080973
3.9376940133037697,-0.2364237244142553
3.9710643015521065,-0.14788765002999338
4.004434589800444,0.00012898272581953417
4.037804878048781,0.19234618314767485
4.071175166297118,0.3946510878649904
4.1045454545454545,0.5616953507272753
4.137915742793791,0.649764639859043
4.171286031042128,0.6304051461014487
4.204656319290466,0.5002162302891112
4.238026607538803,0.2835265634428369
4.27139689578714,0.02675150625320722
4.304767184035477,-0.21431185311428605
4.3381374722838135,-0.3905493330401681
4.371507760532151,-0.4736102620943348
4.404878048780488,-0.46290051860741926
4.438248337028825,-0.38299515028261016
4.471618625277162,-0.27299931894160884
4.504988913525499,-0.17266597662039895
4.538359201773836,-0.11076083910336453
4.571729490022173,-0.0991327199566652
4.60509977827051,-0.13281982218189115
4.638470066518847,-0.1942580560982987
4.671840354767184,-0.25914052498107376
4.705210643015521,-0.3022555626334686
4.738580931263858,-0.30266551185258744
4.771951219512196,-0.24810355844771012
4.8053215077605325,-0.13830114750090364
4.838691796008869,0.013519224233915886
4.872062084257206,0.18194696812824965
4.905432372505543,0.3339388542631936
4.93880266075388,0.43598484703919316
4.972172949002218,0.4621661818374727
5.005543237250555,0.4009883290096892
5.0389135254988915,0.2592927493972729
5.072283813747228,0.06235818630259633
5.105654101995565,-0.15002241172101863
5.139024390243902,-0.33122282242194684
5.17239467849224,-0.43829085128154716
5.205764966740577,-0.4432456248845366
5.239135254988914,-0.34197784825506555
5.2725055432372505,-0.1573012536865795
5.305875831485587,0.06593985949295093
5.339246119733925,0.27301942219852404
5.372616407982262,0.4150486300438313
5.405986696230599,0.46290334120686905
5.439356984478936,0.414555924867973
5.472727272727273,0.29355282999265003
5.5060975609756095,0.13972460305445472
5.539467849223947,-0.004067459704600059
5.572838137472284,-0.10426333830105013
5.606208425720621,-0.14396143005981907
5.639578713968958,-0.12354180836987044
5.672949002217295,-0.05559355462132489
5.706319290465632,0.042650931661071596
5.7396895787139695,0.15552964067534278
5.773059866962306,0.27111851719431684
5.806430155210643,0.3790758431278791
5.83980044345898,0.466401829203156
5.873170731707317,0.5146629291682712
5.906541019955654,0.5015807250348671
5.939911308203992,0.4075438676061244
5.9732815964523285,0.22478014848915176
6.006651884700665,-0.034891910951913095
6.040022172949002,-0.3377112774079159
6.073392461197339,-0.6330754578680073
6.106762749445676,-0.8652945422277606
6.140133037694014,-0.9885552203824792
6.173503325942351,-0.9801509316753709
6.2068736141906875,-0.8472517380095062
6.240243902439024,-0.6245386458910286
6.273614190687361,-0.36335081523302554
6.306984478935698,-0.11629248026164522
6.340354767184036,0.07704184276512248
6.373725055432373,0.19836091558190758
6.40709534368071,0.2510243595903913
6.4404656319290465,0.25390009012395676
6.473835920177383,0.2323462492512986
6.507206208425721,0.20996253436106696
6.540576496674058,0.2031750892235728
6.573946784922395,0.2189118197726606
6.607317073170732,0.2547332897266502
6.640687361419069,0.3008786854143361
6.674057649667406,0.343919269679202
6.707427937915743,0.3713206389281324
6.74079822616408,0.3753921372694604
6.774168514412417,0.3548300945939302
6.807538802660754,0.3130705810381086
6.840909090909091,0.2545685790231727
6.874279379157428,0.18158046539043704
6.9076496674057655,0.09382596872517988
6.941019955654102,-0.008533929770744766
6.974390243902439,-0.12062083561241387
7.007760532150776,-0.23054775630261917
7.041130820399113,-0.32148970581776165
7.07450110864745,-0.37786581791788343
7.107871396895788,-0.39265558884985147
7.1412416851441245,-0.3717774560311799
7.174611973392461,-0.3327196231845308
7.207982261640798,-0.29751728486241746
7.241352549889135,-0.2830799178890102
7.274722838137472,-0.29325521243875347
7.30809312638581,-0.31626829722272404
7.341463414634147,-0.32879243255316243
7.3748337028824835,-0.30507846392143134
7.40820399113082,-0.22753362172751299
7.441574279379157,-0.09464139305672983
7.474944567627494,0.07682060465483131
7.508314855875832,0.25621997246039285
7.541685144124169,0.40876466217204166
7.575055432372506,0.5071315183310878
7.6084257206208425,0.540809748046949
7.641796008869179,0.5194870907124014
7.675166297117517,0.46883181132697893
7.708536585365854,0.4199577131228455
7.741906873614191,0.39657488732112645
7.775277161862528,0.4050774426517898
7.808647450110865,0.4318565389118423
7.842017738359202,0.4491782811639334
7.875388026607539,0.42724247515726
7.908758314855876,0.34722848384657884
7.942128603104213,0.20959994116202238
7.97549889135255,0.03403204752774815
8.008869179600888,-0.14883611102941802
8.042239467849225,-0.3098088858470503
8.075609756097561,-0.43177935324543276
8.108980044345898,-0.5137266111350531
8.142350332594235,-0.5666899312047181
8.175720620842572,-0.6044824018650296
8.209090909090909,-0.6344282239329659
8.242461197339246,-0.6529843829959698
8.275831485587583,-0.6481132273861882
8.30920177383592,-0.6065271378175312
8.342572062084257,-0.5215590115866352
8.375942350332595,-0.39758221494157164
8.409312638580932,-0.24919827529822747
8.442682926829269,-0.09626652111391305
8.476053215077606,0.04236728497740724
8.509423503325943,0.15361807633276947
8.54279379157428,0.23198819705766033
8.576164079822616,0.2787929773188049
8.609534368070953,0.30008402197083434
8.64290465631929,0.3044633447163046
8.676274944567627,0.3011989601376786
8.709645232815964,0.2983765316387624
8.743015521064303,0.3008371629683681
8.77638580931264,0.3083328272840605
8.809756097560976,0.3150500427348716
8.843126385809313,0.3116289327028786
8.87649667405765,0.28971685533692915
8.909866962305987,0.24741124669387346
8.943237250554324,0.19270876028255685
8.97660753880266,0.1422701135730709
9.009977827050998,0.11470412117845696
9.043348115299334,0.12046457896820376
9.076718403547671,0.1529329528223067
9.110088691796008,0.18589211316625037
9.143458980044347,0.18063685432270846
9.176829268292684,0.10181204472589779
9.21019955654102,-0.06370328546991107
9.243569844789358,-0.2936070439167225
9.276940133037694,-0.5306478850383625
9.310310421286031,-0.6995226701306196
9.343680709534368,-0.7351492967341696
9.377050997782705,-0.6106921529300832
9.410421286031042,-0.352268539153543
9.443791574279379,-0.032436879219218166
9.477161862527716,0.25581182693644305
9.510532150776053,0.433652754305012
9.543902439024391,0.46478802981786954
9.577272727272728,0.3660112819520804
9.610643015521065,0.19685438128872468
9.644013303769402,0.03421945493451498
9.677383592017739,-0.05680191225045969
9.710753880266076,-0.04488402713468169
9.744124168514412,0.059467323508504616
9.77749445676275,0.2106366240552178
9.810864745011086,0.34558199441564524
9.844235033259423,0.40600041210713
9.87760532150776,0.3578457970694107
9.910975609756099,0.20215754949395384
9.944345898004435,-0.0261272725776872
9.977716186252772,-0.2707324081013143
10.01108647450111,-0.47324837115426516
10.044456762749446,-0.591794170556003
10.077827050997783,-0.6123776303318524
10.11119733924612,-0.549456264416401
10.144567627494457,-0.4367326299241373
10.177937915742794,-0.31287970672544413
10.21130820399113,-0.20816664763456458
10.244678492239467,-0.1366685012007888
10.278048780487804,-0.09588941813191837
10.311419068736143,-0.07260381027585437
10.34478935698448,-0.05160544170105374
10.378159645232817,-0.02336747399241881
10.411529933481154,0.012579319689445364
10.44490022172949,0.049732282856529794
10.478270509977827,0.08079825600996754
10.511640798226164,0.10452067122470726
10.545011086474501,0.12911488923868483
10.578381374722838,0.16970003454527763
10.611751662971175,0.24015036949142013
10.645121951219512,0.34308307511260955
10.67849223946785,0.46346597255518956
10.711862527716187,0.5702816299187236
10.745232815964524,0.626951281793139
10.778603104212861,0.6065743539838561
10.811973392461198,0.5050481585727765
10.845343680709535,0.3456285571255657
10.878713968957872,0.17235159499054017
10.912084257206208,0.03488915560410241
10.945454545454545,-0.028877312451670537
10.978824833702882,-0.005756213831032164
11.012195121951219,0.08868168986365167
11.045565410199556,0.21529975308872332
11.078935698447895,0.3230914955732578
11.112305986696231,0.3631953499841024
11.145676274944568,0.3013682537374188
11.179046563192905,0.12629006114962754
11.212416851441242,-0.14757587612825257
11.245787139689579,-0.48268459249996104
11.279157427937916,-0.8258274258109387
11.312527716186253,-1.1186707242990344
11.34589800443459,-1.3094220062232198
11.379268292682926,-1.3636050479490112
11.412638580931263,-1.2720680054178022
11.4460088691796,-1.0544578861579879
11.479379157427939,-0.7565934195954266
11.512749445676276,-0.44089612534301326
11.546119733924613,-0.1706623009616889
11.57949002217295,0.008657607512555015
11.612860310421286,0.08564035627801828
11.646230598669623,0.08989864142020354
11.67960088691796,0.08471180774554801
11.712971175166297,0.1445926011613596
11.746341463414634,0.32375931941776875
11.77971175166297,0.6275091851264778
11.813082039911308,1.0002357117621536
11.846452328159646,1.338867012901649
11.879822616407983,1.5297269132516487
11.91319290465632,1.4949276963875358
11.946563192904657,1.2278036844782805
11.979933481152994,0.8000482621743759
12.01330376940133,0.33560221886255226
12.046674057649668,-0.03785924200174269
12.080044345898004,-0.2380010546235358
12.113414634146341,-0.2554546597438084
12.146784922394678,-0.1488391715629856
12.180155210643015,-0.012008942440136044
12.213525498891352,0.0690790249759505
12.24689578713969,0.04958190550715593
12.280266075388028,-0.0639614228347447
12.313636363636364,-0.22686750224245122
12.347006651884701,-0.3828808300297151
12.380376940133038,-0.4898521069489821
12.413747228381375,-0.5335563742431597
12.447117516629712,-0.5262421483717495
12.480487804878049,-0.4939690072466383
12.513858093126386,-0.46084655174030204
12.547228381374723,-0.4379331274696568
12.58059866962306,-0.4209424275320288
12.613968957871396,-0.3962620658812831
12.647339246119735,-0.3511910370422619
12.680709534368072,-0.28295251338228594
12.714079822616409,-0.20210028569230573
12.747450110864746,-0.12873345680054785
12.780820399113082,-0.08325247209324113
12.81419068736142,-0.07588373221564083
12.847560975609756,-0.09987113905062911
12.880931263858093,-0.1318188850114846
12.91430155210643,-0.1397295010302853
12.947671840354767,-0.09595497856168439
12.981042128603104,0.010116180461051305
13.014412416851442,0.16521330805351472
13.04778270509978,0.3347603740532942
13.081152993348116,0.4746268224222309
13.114523281596453,0.5476566249172306
13.14789356984479,0.5380591606865686
13.181263858093127,0.4572860600823502
13.214634146341464,0.3386590854727779
13.2480044345898,0.22316270716065553
13.281374722838137,0.14293428161028562
13.314745011086474,0.10991868814495605
13.348115299334811,0.11436883166014969
13.381485587583148,0.1328580492163772
13.414855875831487,0.1409588165941798
13.448226164079824,0.12411651672353506
13.48159645232816,0.08211046053507784
13.514966740576497,0.026396516080984866
13.548337028824834,-0.026865939188003573
13.581707317073171,-0.06399839188120929
13.615077605321508,-0.07820165979237975
13.648447893569845,-0.0704530990320776
13.681818181818182,-0.048000724382094156
13.715188470066519,-0.021949859089520227
13.748558758314855,-0.00466166438796288
13.781929046563192,-0.006798295454089632
13.815299334811531,-0.03382887200985078
13.848669623059868,-0.08275951320533756
13.882039911308205,-0.14093504888875524
13.915410199556542,-0.18883756370391377
13.948780487804878,-0.2072865335106545
13.982150776053215,-0.18682003296427027
14.015521064301552,-0.1347747494174177
14.048891352549889,-0.07537410355097493
14.082261640798226,-0.04080638426946266
14.115631929046563,-0.05598274980703989
14.1490022172949,-0.12398463141394195
14.182372505543238,-0.22034200497321482
14.215742793791575,-0.3008172648742766
14.249113082039912,-0.320524004825725
14.282483370288249,-0.25557519859623384
14.315853658536586,-0.11607020217639948
14.349223946784923,0.05697908503879892
14.38259423503326,0.20990304946191465
14.415964523281596,0.30071231941419974
14.449334811529933,0.3170058175472642
14.48270509977827,0.278369605918973
14.516075388026607,0.2225770063940124
14.549445676274944,0.1835476122496161
14.582815964523283,0.17315850193622712
14.61618625277162,0.17647132663095066
14.649556541019956,0.16233489668412163
14.682926829268293,0.10298048730803672
14.71629711751663,-0.008289678881014959
14.749667405764967,-0.15067934222075174
14.783037694013304,-0.2837104128529052
14.81640798226164,-0.36474371068627404
14.849778270509978,-0.36709595071880635
14.883148558758315,-0.2900836990578178
14.916518847006651,-0.15708762275010496
14.949889135254988,-0.003944406096698716
14.983259423503327,0.1356723142187315
15.016629711751664,0.2407244699581683
15.05,0.30513790751767556
15.083370288248338,0.33275419319573085
15.116740576496674,0.32940482876152294
15.150110864745011,0.2974777666153822
15.183481152993348,0.23615937715000115
15.216851441241685,0.14665957558987655
15.250221729490022,0.038337436472333626
15.283592017738359,-0.06933484253063833
15.316962305986696,-0.15186828630341048
15.350332594235034,-0.19046310902440675
15.383702882483371,-0.18272634045266437
15.417073170731708,-0.14654703945122743
15.450443458980045,-0.11325786848629779
15.483813747228382,-0.11223185636151183
15.517184035476719,-0.15465984633479846
15.550554323725056,-0.2257225587287078
15.583924611973393,-0.290318342916445
15.61729490022173,-0.31004837562131665
15.650665188470066,-0.2627067890889643
15.684035476718403,-0.15394813838224308
15.71740576496674,-0.015003129086486707
15.750776053215079,0.11221392168820021
15.784146341463416,0.19471724049300773
15.817516629711752,0.22270123868082606
15.85088691796009,0.21144331691320045
15.884257206208426,0.1904390192372438
15.917627494456763,0.18592810325635803
15.9509977827051,0.20618979012718497
15.984368070953437,0.23727183788186332
16.017738359201775,0.25117167995329864
16.05110864745011,0.2219209041865372
16.08447893569845,0.1409487505812193
16.117849223946784,0.023561331867543
16.151219512195123,-0.09695790170447222
16.184589800443458,-0.18471418213766955
16.217960088691797,-0.21826017415360313
16.251330376940132,-0.20066584711473473
16.28470066518847,-0.15736114732812467
16.31807095343681,-0.12260473280170431
16.351441241685144,-0.12120718238359339
16.384811529933483,-0.15471793581049073
16.418181818181818,-0.19926274098119523
16.451552106430157,-0.21647576531674004
16.48492239467849,-0.17238016418215962
16.51829268292683,-0.05503400309580693
16.551662971175165,0.11764168451437078
16.585033259423504,0.3035608310845066
16.61840354767184,0.45282147097619596
16.651773835920178,0.5269044821164448
16.685144124168513,0.5120411350327012
16.71851441241685,0.42145399530480887
16.75188470066519,0.28683436779759164
16.785254988913525,0.14429542707946058
16.818625277161864,0.021717905298976548
16.8519955654102,-0.06758789231846149
16.885365853658538,-0.12404936222904081
16.918736141906873,-0.1565705473454322
16.95210643015521,-0.17680704750905982
16.985476718403547,-0.1955869749205187
17.018847006651885,-0.22156680500962625
17.05221729490022,-0.26047198698411006
17.08558758314856,-0.3134777291050265
17.118957871396898,-0.37506033964725183
17.152328159645233,-0.4323931409715634
17.18569844789357,-0.46843294173498334
17.219068736141907,-0.4688126152714114
17.252439024390245,-0.42971550189602237
