Frequency (Hz),Amplitude
0.0,4.664550548503199
0.01978021978021978,4.662680402354302
0.03956043956043956,4.657072811988727
0.05934065934065934,4.647736327083502
0.07912087912087912,4.634685215326326
0.0989010989010989,4.617939490154659
0.11868131868131868,4.597524950398846
0.13846153846153844,4.57347323265691
0.15824175824175823,4.545821877493418
0.17802197802197803,4.514614410840549
0.1978021978021978,4.479900442293808
0.21758241758241756,4.4417357823417
0.23736263736263735,4.400182580956338
0.2571428571428572,4.35530949040703
0.2769230769230769,4.307191855649449
0.2967032967032967,4.255911936196494
0.31648351648351647,4.201559164003452
0.3362637362637363,4.144230442605821
0.35604395604395606,4.084030493542532
0.3758241758241758,4.021072256984353
0.3956043956043956,3.9554773544700406
0.4153846153846154,3.887376622726014
0.4351648351648351,3.8169107286960533
0.45494505494505494,3.744230877105336
0.4747252747252747,3.6694996230751022
0.4945054945054945,3.592891803403255
0.5142857142857143,3.514595600992537
0.5340659340659341,3.434813757329607
0.5538461538461538,3.353764947580077
0.5736263736263736,3.2716853313058025
0.5934065934065934,3.1888302883764985
0.6131868131868132,3.1054763434241406
0.6329670329670329,3.021923271930748
0.6527472527472528,2.9384963651050513
0.6725274725274726,2.855548807000337
0.6923076923076923,2.7734640833390243
0.7120879120879121,2.6926582944570603
0.7318681318681318,2.6135821820285763
0.7516483516483516,2.536722599133896
0.7714285714285715,2.462603056594784
0.7912087912087912,2.3917828708320754
0.810989010989011,2.324854333070419
0.8307692307692308,2.2624372409109497
0.8505494505494506,2.205170118965775
0.8703296703296702,2.153697555478432
0.8901098901098901,2.108653350508052
0.9098901098901099,2.070639647027238
0.9296703296703297,2.0402028934756697
0.9494505494505494,2.0178082835872733
0.9692307692307692,2.003815064940318
0.989010989010989,1.9984555644726738
1.0087912087912088,2.001820720588252
1.0285714285714287,2.0138542287365926
1.0483516483516484,2.0343561931046574
1.0681318681318681,2.062995724246313
1.087912087912088,2.099330620331977
1.1076923076923075,2.1428314462107165
1.1274725274725275,2.1929071231399875
1.1472527472527472,2.248929495991252
1.1670329670329669,2.3102550451624455
1.1868131868131868,2.376242714067651
1.2065934065934065,2.4462675388238213
1.2263736263736265,2.5197302923855447
1.2461538461538462,2.596063670073773
1.2659340659340659,2.6747356784091263
1.2857142857142858,2.75525089682543
1.3054945054945055,2.837150214257063
1.3252747252747252,2.9200095407775315
1.3450549450549452,3.0034378858171906
1.3648351648351649,3.0870750945771857
1.3846153846153846,3.1705894501124927
1.4043956043956045,3.2536752818515673
1.4241758241758242,3.336050670823905
1.443956043956044,3.4174553050835734
1.4637362637362636,3.497648512951305
1.4835164835164834,3.5764074841506925
1.5032967032967033,3.653525677491269
1.523076923076923,3.7288114067084246
1.542857142857143,3.8020865920743065
1.5626373626373626,3.873185663462489
1.5824175824175823,3.9419545999706544
1.6021978021978023,4.008250091481241
1.621978021978022,4.071938808322767
1.6417582417582417,4.132896766252864
1.6615384615384616,4.191008775162209
1.6813186813186813,4.246167961100389
1.7010989010989013,4.29827535238838
1.720879120879121,4.347239521675087
1.7406593406593405,4.392976276799216
1.7604395604395604,4.435408394226759
1.7802197802197801,4.474465389649414
1.7999999999999998,4.510083321055071
1.8197802197802198,4.542204620225201
1.8395604395604395,4.570777949183703
1.8593406593406594,4.595758078626158
1.879120879120879,4.61710578580542
1.8989010989010988,4.634787769747514
1.9186813186813187,4.648776582027678
1.9384615384615385,4.6590505716573425
1.9582417582417584,4.665593842924987
1.978021978021978,4.668396225302904
1.9978021978021978,4.667453254783408
2.0175824175824175,4.662766166246692
2.0373626373626372,4.654341896693668
2.0571428571428574,4.642193099404642
2.076923076923077,4.626338169313698
2.096703296703297,4.6068012801235225
2.1164835164835165,4.583612433930584
2.1362637362637362,4.556807524391767
2.1560439560439564,4.526428414744733
2.175824175824176,4.492523032302385
2.195604395604396,4.455145481381934
2.215384615384615,4.414356177008542
2.2351648351648348,4.370222002158831
2.254945054945055,4.322816491789511
2.2747252747252746,4.272220047438232
2.2945054945054943,4.218520186796835
2.314285714285714,4.161811833350264
2.3340659340659338,4.102197651954509
2.353846153846154,4.039788437102267
2.3736263736263736,3.9747035615974706
2.3934065934065933,3.907071494428531
2.413186813186813,3.8370303977841953
2.4329670329670328,3.7647288143714284
2.452747252747253,3.690326457424967
2.4725274725274726,3.613995116968203
2.4923076923076923,3.5359196968681843
2.512087912087912,3.4562993978353864
2.5318681318681318,3.3753490614617587
2.5516483516483515,3.2933006892481207
2.5714285714285716,3.210405147738439
2.5912087912087913,3.126934065501423
2.610989010989011,3.0431819186113094
2.6307692307692307,2.9594682869166067
2.6505494505494505,2.876140241736796
2.6703296703296706,2.7935747942224944
2.6901098901098903,2.7121812896410256
2.70989010989011,2.6324035734855777
2.7296703296703297,2.5547216784455022
2.7494505494505495,2.4796526868331443
2.769230769230769,2.407750315069154
2.7890109890109893,2.339602656377587
2.808791208791209,2.2758274265734646
2.8285714285714287,2.2170640208423524
2.8483516483516484,2.1639617553373878
2.8681318681318677,2.117163892049045
2.887912087912088,2.077287475168414
2.9076923076923076,2.044899651270308
2.9274725274725273,2.0204919428829617
2.947252747252747,2.0044547418589698
2.9670329670329667,1.997054853018261
2.986813186813187,1.9984190043769654
3.0065934065934066,2.008525696482704
3.0263736263736263,2.0272066311775476
3.046153846153846,2.0541574975757952
3.0659340659340657,2.0889564909239775
3.085714285714286,2.1310879642455594
3.1054945054945056,2.1799682609479962
3.1252747252747253,2.2349710260037865
3.145054945054945,2.295449952736672
3.1648351648351647,2.3607577402439284
3.184615384615385,2.4302607997278916
3.2043956043956046,2.5033498310284843
3.2241758241758243,2.5794467563233856
3.243956043956044,2.6580086699353016
3.2637362637362637,2.738529493045861
3.2835164835164834,2.820539964695611
3.3032967032967036,2.9036065006342917
3.3230769230769233,2.987329340278616
3.342857142857143,3.0713402973839616
3.3626373626373627,3.155300340690666
3.3824175824175824,3.2388971593107496
3.4021978021978025,3.3218428131183644
3.4219780219780223,3.403871528477599
3.441758241758242,3.484737671416078
3.4615384615384617,3.564213911100919
3.481318681318681,3.642089573859351
3.501098901098901,3.718169180135577
3.520879120879121,3.792271152252971
3.5406593406593405,3.8642266785877797
3.5604395604395602,3.933878718988051
3.58021978021978,4.001081136442959
3.5999999999999996,4.06569794074673
3.61978021978022,4.127602630952571
3.6395604395604395,4.186677624606032
3.659340659340659,4.2428137629770735
3.679120879120879,4.295909882707882
3.6989010989010986,4.345872445421974
3.718681318681319,4.392615217879129
3.7384615384615385,4.436058996202609
3.758241758241758,4.476131368550405
3.7780219780219784,4.512766511354627
3.7978021978021976,4.545905014920894
3.8175824175824173,4.5754937347697044
3.8373626373626375,4.601485665623873
3.8571428571428568,4.623839835408514
3.876923076923077,4.642521217040633
3.896703296703296,4.657500656152108
3.916483516483517,4.668754813219737
3.936263736263736,4.676266118875337
3.956043956043956,4.68002274144358
3.9758241758241755,4.680018566011431
3.9956043956043956,4.67625318457467
4.015384615384615,4.668731897040324
4.035164835164835,4.657465723092249
4.054945054945055,4.642471425156219
4.0747252747252745,4.623771542934843
4.094505494505494,4.601394440225906
4.114285714285715,4.575374364995849
4.134065934065934,4.545751523958092
4.153846153846154,4.512572173208756
4.173626373626373,4.475888726807185
4.193406593406594,4.435759885561601
4.213186813186813,4.392250788698198
4.232967032967033,4.345433191563964
4.252747252747253,4.295385673046794
4.2725274725274724,4.242193877001221
4.292307692307692,4.185950792652454
4.312087912087913,4.12675707972558
4.331868131868132,4.064721444917156
4.351648351648352,3.9999610772999126
4.371428571428571,3.932602151327868
4.391208791208792,3.8627804072827967
4.410989010989011,3.7906418202551273
4.43076923076923,3.7163433700457893
4.450549450549451,3.6400539256440307
4.4703296703296695,3.561955259072219
4.49010989010989,3.4822432042217875
4.50989010989011,3.401128976575877
4.52967032967033,3.3188406690396577
4.549450549450549,3.2356249369202033
4.569230769230769,3.151748880621307
4.589010989010989,3.0675021267420295
4.608791208791209,2.9831990954991334
4.628571428571428,2.89918142278
4.648351648351649,2.8158204762228416
4.6681318681318675,2.7335198636334916
4.687912087912088,2.652717775726728
4.707692307692308,2.573888931002801
4.7274725274725276,2.4975457975098005
4.747252747252747,2.424238656809739
4.767032967032967,2.354553958581283
4.786813186813187,2.289110308914756
4.806593406593407,2.2285513740135245
4.826373626373626,2.1735350111838674
4.846153846153847,2.1247181188517366
4.8659340659340655,2.0827370816626662
4.885714285714286,2.0481843003356817
4.905494505494506,2.0215820985004376
4.9252747252747255,2.003356155340591
4.945054945054945,1.9938112953946852
4.964835164835165,1.9931127089424912
4.984615384615385,2.0012752799468
5.004395604395604,2.0181626486869244
5.024175824175824,2.043496153349886
5.043956043956045,2.076872272631788
5.0637362637362635,2.1177860398061656
5.083516483516483,2.1656573775907093
5.103296703296703,2.219857439420179
5.123076923076923,2.2797326639799413
5.142857142857143,2.344625093242559
5.162637362637362,2.4138883290453395
5.182417582417583,2.4868991562785667
5.2021978021978015,2.56306528616501
5.221978021978022,2.6418298865671734
5.241758241758242,2.7226736193468546
5.2615384615384615,2.80511485640784
5.281318681318681,2.8887086460851634
5.301098901098901,2.9730448852202973
5.320879120879121,3.057746040756523
5.340659340659341,3.142464668461098
5.36043956043956,3.2268808988707183
5.380219780219781,3.3107000012179744
5.3999999999999995,3.393650092499564
5.41978021978022,3.475480027964417
5.43956043956044,3.5559574881964573
5.4593406593406595,3.634867264110474
5.479120879120879,3.7120097325294625
5.498901098901099,3.7871995099997564
5.518681318681319,3.860264269960006
5.538461538461538,3.9310437074697075
5.558241758241758,3.9993886358256296
5.578021978021979,4.065160200139768
5.5978021978021975,4.12822919404037
5.617582417582418,4.18847546690547
5.637362637362637,4.245787410327391
5.6571428571428575,4.30006151376523
5.676923076923077,4.35120198052784
5.696703296703297,4.399120396321805
5.716483516483517,4.443735443587917
5.736263736263735,4.484972655736656
5.756043956043956,4.522764206181751
5.775824175824176,4.557048727769673
5.795604395604395,4.587771158819896
5.815384615384615,4.614882612535252
5.835164835164835,4.63834026702324
5.854945054945055,4.65810727359553
5.874725274725275,4.6741526813931
5.894505494505494,4.686451376724928
5.914285714285715,4.694984035816454
5.934065934065933,4.699737089945873
5.953846153846154,4.700702702207714
5.973626373626374,4.697878755389204
5.993406593406593,4.691268850680706
6.013186813186813,4.680882317171962
6.032967032967033,4.66673423231553
6.052747252747253,4.648845453772294
6.072527472527473,4.627242663296063
6.092307692307692,4.601958423570534
6.112087912087913,4.5730312491862035
6.131868131868131,4.540505693244911
6.151648351648352,4.504432451409228
6.171428571428572,4.464868485582368
6.191208791208791,4.421877169816533
6.210989010989011,4.375528461513959
6.230769230769231,4.325899101512676
6.2505494505494505,4.273072847248878
6.270329670329671,4.217140743868801
6.29010989010989,4.158201438936546
6.309890109890111,4.0963615472582955
6.329670329670329,4.0317360733270515
6.349450549450549,3.9644488999894247
6.36923076923077,3.8946333531445627
6.3890109890109885,3.822432853594759
6.408791208791209,3.7480016685475914
6.428571428571428,3.6715057766689365
6.4483516483516485,3.5931238619124395
6.468131868131868,3.5130484524576313
6.487912087912088,3.4314872217455377
6.507692307692308,3.348664468462964
6.527472527472527,3.264822790882209
6.547252747252747,3.1802249674781464
6.567032967032967,3.0951560491791588
6.5868131868131865,3.009925657535875
6.606593406593407,2.9248704656030453
6.626373626373626,2.8403568119750804
6.6461538461538465,2.756783360210317
6.665934065934065,2.674583662483179
6.685714285714286,2.594228414507959
6.705494505494506,2.516227096515642
6.725274725274725,2.4411285831997223
6.745054945054945,2.369520180674837
6.764835164835165,2.302024426744778
6.7846153846153845,2.239292902010651
6.804395604395605,2.181996289957604
6.824175824175824,2.1308100551211226
6.8439560439560445,2.0863954438893964
6.863736263736263,2.0493760947546353
6.883516483516484,2.0203113569526003
6.903296703296704,1.999668344640719
6.923076923076923,1.987795574976449
6.942857142857143,1.9849014621335137
6.962637362637362,1.9910407127207008
6.9824175824175825,2.006110709804201
7.002197802197802,2.029858457750704
7.021978021978022,2.061896985883741
7.041758241758242,2.1017287399357434
7.061538461538461,2.1487727635722207
7.081318681318681,2.2023924763301506
7.101098901098901,2.2619214385682618
7.1208791208791204,2.326685379102132
7.140659340659341,2.396019670053735
7.16043956043956,2.46928217728616
7.1802197802197805,2.5458619146226193
7.199999999999999,2.6251841926730735
7.21978021978022,2.7067130314318764
7.23956043956044,2.7899515648898574
7.259340659340659,2.8744410625572177
7.279120879120879,2.95975906786776
7.298901098901099,3.045517031868339
7.318681318681318,3.1313577149506098
7.338461538461539,3.2169525440225413
7.358241758241758,3.301999047111839
7.3780219780219785,3.3862184393665737
7.397802197802197,3.469353400447331
7.417582417582418,3.5511660601445034
7.437362637362638,3.6314361938883835
7.457142857142857,3.709959620385675
7.476923076923077,3.786546788173534
7.496703296703297,3.86102153514205
7.516483516483516,3.9332200041101673
7.536263736263736,4.002989697692415
7.556043956043957,4.070188656515926
7.575824175824176,4.134684746033809
7.595604395604395,4.196355038534707
7.615384615384615,4.25508527834048
7.635164835164835,4.310769419538865
7.654945054945055,4.363309226870315
7.674725274725275,4.412613931556557
7.694505494505494,4.458599934914049
7.7142857142857135,4.501190553539349
7.734065934065935,4.540315800690792
7.753846153846154,4.575912199230517
7.7736263736263735,4.6079226221424125
7.793406593406592,4.636296157215019
7.813186813186814,4.6609879929838245
7.832967032967034,4.68195932347381
7.852747252747252,4.699177269679595
7.872527472527472,4.71261481607445
7.892307692307693,4.722250760758519
7.912087912087912,4.728069678147171
7.931868131868132,4.730061893368342
7.951648351648351,4.7282234677889825
7.971428571428572,4.722556195330148
7.991208791208791,4.71306760946304
8.010989010989011,4.699771001009058
8.03076923076923,4.682685447100719
8.05054945054945,4.661835851901664
8.07032967032967,4.637252999938365
8.09010989010989,4.608973623168385
8.10989010989011,4.577040483206644
8.129670329670331,4.541502470457631
8.149450549450549,4.502414722265211
8.169230769230769,4.459838762600686
8.189010989010988,4.413842666271384
8.20879120879121,4.364501251157371
8.22857142857143,4.311896302581627
8.248351648351647,4.256116834601182
8.268131868131867,4.197259393784814
8.287912087912087,4.135428411928031
8.307692307692308,4.07073661515965
8.327472527472528,4.003305498024231
8.347252747252746,3.9332658723853213
8.367032967032966,3.8607585023813167
8.386813186813187,3.7859348381609523
8.406593406593407,3.708957862691098
8.426373626373627,3.6300030674915105
8.446153846153845,3.549259574589444
8.465934065934066,3.4669314231041737
8.485714285714286,3.3832390393638896
8.505494505494505,3.2984209088669014
8.525274725274725,3.212735466051209
8.545054945054945,3.1264632127610676
8.564835164835165,3.039909067132706
8.584615384615384,2.9534049295001554
8.604395604395604,2.86731242838255
8.624175824175826,2.782025774544837
8.643956043956043,2.697974600849004
8.663736263736263,2.6156265962445944
8.683516483516483,2.535489650523569
8.703296703296704,2.4581131113630157
8.723076923076924,2.384087620623669
8.742857142857142,2.3140428557127137
8.762637362637362,2.248642380750067
8.782417582417583,2.188574756280736
8.802197802197803,2.134540129379605
8.821978021978023,2.087231803143902
8.84175824175824,2.047312828840863
8.86153846153846,2.015388487152313
8.881318681318682,1.9919765403414247
8.901098901098901,1.9774781300173072
8.920879120879121,1.9721528469287641
8.940659340659339,1.9761014888338881
8.96043956043956,1.9892591816967415
8.98021978021978,2.0113999812073735
9.0,2.0421521955086184
9.01978021978022,2.081022011997411
9.03956043956044,2.127422012769727
9.05934065934066,2.180700997355144
9.079120879120879,2.240172076471399
9.098901098901099,2.305136952644717
9.11868131868132,2.374905333772289
9.138461538461538,2.448809295435459
9.158241758241758,2.526213006882104
9.178021978021977,2.6065185603822822
9.197802197802199,2.689168750662292
9.217582417582419,2.7736476151158533
9.237362637362637,2.859479433475232
9.257142857142856,2.94622674629753
9.276923076923078,3.0334878148741518
9.296703296703297,3.120893826120901
9.316483516483517,3.2081060499640413
9.336263736263735,3.294813083405846
9.356043956043957,3.380728261869457
9.375824175824176,3.465587280753247
9.395604395604396,3.5491460446289307
9.415384615384616,3.631178744973471
9.435164835164835,3.7114761571528527
9.454945054945055,3.789844141607272
9.474725274725275,3.8661023313758394
9.494505494505495,3.940082987206006
9.514285714285714,4.011630001796853
9.534065934065934,4.080598035730575
9.553846153846154,4.146851769024281
9.573626373626373,4.2102652537697205
9.593406593406593,4.270721354888213
9.613186813186815,4.328111267530223
9.632967032967032,4.3823341010506125
9.652747252747252,4.433296520768417
9.672527472527472,4.480912439869532
9.692307692307693,4.525102754832494
9.712087912087913,4.565795118660946
9.731868131868131,4.60292374700013
9.75164835164835,4.636429252911933
9.771428571428572,4.666258506693205
9.791208791208792,4.692364517658689
9.810989010989012,4.714706335281095
9.83076923076923,4.733248967497931
9.850549450549451,4.747963314365162
9.87032967032967,4.758826115570299
9.89010989010989,4.765819910618249
9.90989010989011,4.768933010779952
9.92967032967033,4.768159482150688
9.94945054945055,4.763499139409171
9.96923076923077,4.7549575501040735
9.989010989010989,4.742546049527094
10.008791208791209,4.726281766465714
10.028571428571428,4.7061876603698485
10.048351648351648,4.682292570719117
10.068131868131868,4.654631279647746
10.08791208791209,4.623244589177508
10.107692307692307,4.58817941473237
10.127472527472527,4.549488896968608
10.147252747252747,4.507232534359489
10.167032967032966,4.461476339432764
10.186813186813188,4.412293022082286
10.206593406593406,4.359762203973844
10.226373626373626,4.30397066875117
10.246153846153845,4.245012653535413
10.265934065934067,4.182990188113816
10.285714285714286,4.118013489245061
10.305494505494504,4.050201418683901
10.325274725274724,3.9796820148555616
10.345054945054946,3.906593109597628
10.364835164835165,3.8310830430267155
10.384615384615385,3.7533114913588403
10.404395604395603,3.673450424364821
10.424175824175824,3.591685210984292
10.443956043956044,3.508215893295834
10.463736263736264,3.423258650292587
10.483516483516484,3.337047473345173
10.503296703296703,3.249836074246578
10.523076923076923,3.161900043436647
10.542857142857143,3.073539269114603
10.562637362637362,2.985080615658231
10.582417582417584,2.896880839609791
10.602197802197802,2.809329690212789
10.621978021978022,2.7228530950357874
10.641758241758241,2.6379162649269277
10.661538461538463,2.555026461735683
10.681318681318682,2.4747350536206714
10.7010989010989,2.3976383369576837
10.72087912087912,2.3243764395117945
10.740659340659342,2.2556294590012715
10.760439560439561,2.1921098768959104
10.780219780219781,2.134550285936981
