Time (s),Filtered Signal
0.0,0.004020695901413394
0.03337000366703337,0.07221830918588339
0.06674000733406674,0.20037414088891717
0.1001100110011001,0.4141909273115222
0.13348001466813347,0.687559855930475
0.16685001833516683,0.9519783371977178
0.2002200220022002,1.1271485176090972
0.2335900256692336,1.1568511876110938
0.26696002933626695,1.0322337463206994
0.3003300330033003,0.7920922060542526
0.33370003667033366,0.5020793597099354
0.36707004033736707,0.22511861534485555
0.4004400440044004,-0.0016816790664597818
0.4338100476714338,-0.1735349263602772
0.4671800513384672,-0.3076461683391123
0.5005500550055005,-0.4244931337135111
0.5339200586725339,-0.5322792154182681
0.5672900623395672,-0.6226820119150824
0.6006600660066006,-0.6786872870512418
0.634030069673634,-0.6884487567180174
0.6674000733406673,-0.6562997087015621
0.7007700770077008,-0.6042477355434879
0.7341400806747341,-0.5628118073669773
0.7675100843417675,-0.5557907782171322
0.8008800880088008,-0.5866550153807909
0.8342500916758342,-0.633461784912255
0.8676200953428675,-0.6551720472438092
0.9009900990099009,-0.6070510388232876
0.9343601026769344,-0.4588528879142056
0.9677301063439677,-0.20835096817572776
1.001100110011001,0.1152491418509575
1.0344701136780343,0.45940588001279475
1.0678401173450678,0.7647874005277873
1.1012101210121013,0.9840578696743699
1.1345801246791345,1.09593367945431
1.167950128346168,1.1093663747106604
1.2013201320132012,1.0564365077813096
1.2346901356802347,0.9768450439199039
1.268060139347268,0.9002403743239233
1.3014301430143014,0.8337414638120398
1.3348001466813346,0.7602549399929026
1.368170150348368,0.6488334700718686
1.4015401540154016,0.4728533830276617
1.4349101576824348,0.22760838475529457
1.4682801613494683,-0.06161190761989461
1.5016501650165015,-0.34588664877523556
1.535020168683535,-0.5714208718979117
1.5683901723505682,-0.7021925233959625
1.6017601760176017,-0.7356046001571831
1.6351301796846351,-0.703379197896172
1.6685001833516684,-0.6569866814786566
1.7018701870187019,-0.6442739861387284
1.735240190685735,-0.6880340764426305
1.7686101943527686,-0.7762505288908087
1.8019801980198018,-0.868301830311909
1.8353502016868353,-0.9140668225118328
1.8687202053538687,-0.876928048131789
1.902090209020902,-0.7498451176333637
1.9354602126879354,-0.5569491149141577
1.9688302163549687,-0.34012389751404404
2.002200220022002,-0.1374861159361434
2.0355702236890356,0.03518057759422101
2.0689402273560686,0.1903678108449397
2.102310231023102,0.35886163800562515
2.1356802346901356,0.5687474742586358
2.169050238357169,0.82417767241446
2.2024202420242025,1.0951337929999618
2.2357902456912355,1.3241181699606628
2.269160249358269,1.4472977713314827
2.3025302530253025,1.4203850428463467
2.335900256692336,1.2371680362160307
2.369270260359369,0.932256869822516
2.4026402640264024,0.5673491970664433
2.436010267693436,0.20813216808033333
2.4693802713604693,-0.09713347295871767
2.502750275027503,-0.32812640581567065
2.536120278694536,-0.48921259776602405
2.5694902823615693,-0.5968158301949474
2.6028602860286028,-0.6659297019763398
2.636230289695636,-0.7032493235470768
2.6696002933626692,-0.7092635228869467
2.7029702970297027,-0.6858305776529467
2.736340300696736,-0.6427801738321176
2.7697103043637696,-0.5983877254794866
2.803080308030803,-0.5728580769446072
2.836450311697836,-0.5783347670741573
2.8698203153648696,-0.6109079832885088
2.903190319031903,-0.6489295608171852
2.9365603226989365,-0.6587978958689844
2.96993032636597,-0.6061361506827095
3.003300330033003,-0.4683424051646845
3.0366703337000365,-0.2441896821245202
3.07004033736707,0.042882011871336195
3.1034103410341034,0.34937422300597043
3.1367803447011364,0.6235149664867455
3.17015034836817,0.8209322288757566
3.2035203520352034,0.9188899924226711
3.236890355702237,0.9234054631707693
3.2702603593692703,0.8657009576134814
3.3036303630363033,0.7886786278530309
3.3370003667033368,0.7286726737575928
3.3703703703703702,0.7002856351245471
3.4037403740374037,0.6910834048140715
3.4371103777044367,0.6685519773743752
3.47048038137147,0.5960712362272834
3.5038503850385037,0.45054437644674694
3.537220388705537,0.23377175582782145
3.5705903923725706,-0.027136627519170307
3.6039603960396036,-0.28978287721505264
3.637330399706637,-0.5118391963223949
3.6707004033736705,-0.664918154480887
3.704070407040704,-0.741759872183792
3.7374404107077375,-0.7552064160039258
3.7708104143747705,-0.7309451885669577
3.804180418041804,-0.6977003092501021
3.8375504217088374,-0.6781944810104037
3.870920425375871,-0.6828010195858767
3.904290429042904,-0.706632249764828
3.9376604327099374,-0.7304294614453943
3.971030436376971,-0.7255957094286908
4.004400440044004,-0.6631458960180137
4.037770443711038,-0.5247864032005358
4.071140447378071,-0.31238895409700007
4.104510451045105,-0.05126749056398074
4.137880454712137,0.21576968611864078
4.171250458379171,0.4426733241368951
4.204620462046204,0.5973024662505071
4.237990465713238,0.6737484758781869
4.271360469380271,0.6937574180895578
4.304730473047305,0.6962115775299615
4.338100476714338,0.7193593285811601
4.3714704803813715,0.7837811581432768
4.404840484048405,0.8833509505583588
4.438210487715438,0.9874153266109447
4.471580491382471,1.052390080758034
4.5049504950495045,1.037395386321783
4.538320498716538,0.9177536181629562
4.571690502383571,0.6920087794660784
4.605060506050605,0.38134145153722754
4.638430509717638,0.023219027842572626
4.671800513384672,-0.33742564854316837
4.705170517051705,-0.6566122547587465
4.738540520718738,-0.898049181588635
4.771910524385771,-1.0383522178831834
4.805280528052805,-1.0711121212718073
4.838650531719838,-1.0091320195378544
4.872020535386872,-0.8830256287389893
4.905390539053905,-0.7346023826946947
4.938760542720939,-0.605543486656972
4.972130546387972,-0.5247134435149785
5.005500550055006,-0.4990901698368011
5.038870553722038,-0.5123526850060135
5.072240557389072,-0.5319325638976717
5.105610561056105,-0.5216198112526313
5.138980564723139,-0.4546656790628821
5.172350568390172,-0.32267159769975723
5.2057205720572055,-0.13775454044608423
5.239090575724239,0.07194763682667508
5.272460579391272,0.27154385691884747
5.305830583058306,0.4306065210255851
5.3392005867253385,0.5330438732646401
5.372570590392372,0.5822572695931638
5.405940594059405,0.5991006939155153
5.439310597726439,0.6125391641467441
5.472680601393472,0.646260234896182
5.506050605060506,0.7070933512205938
5.539420608727539,0.7810013288647505
5.572790612394573,0.8390302032725319
5.606160616061606,0.8504835053318253
5.63953061972864,0.7966785765360251
5.672900623395672,0.678394497579454
5.706270627062706,0.5137550265313748
5.739640630729739,0.3285942541116138
5.773010634396773,0.1451592923663557
5.806380638063806,-0.024769833326547842
5.83975064173084,-0.17944234408052123
5.873120645397873,-0.32096815964014086
5.9064906490649065,-0.44817629726190655
5.93986065273194,-0.5534258773365374
5.9732306563989725,-0.6255184243902504
6.006600660066006,-0.6568225264477111
6.0399706637330395,-0.6498276167747131
6.073340667400073,-0.6183990040613775
6.106710671067106,-0.5821186677334498
6.14008067473414,-0.5564711178354175
6.173450678401173,-0.5445526186767021
6.206820682068207,-0.5354831440651366
6.24019068573524,-0.510896851542592
6.273560689402273,-0.4560049530941992
6.306930693069306,-0.3687689896953611
6.34030069673634,-0.2615982928482
6.373670700403373,-0.15427838183935164
6.407040704070407,-0.06203203229812202
6.44041070773744,0.014372258954643623
6.473780711404474,0.09049350634833518
6.507150715071507,0.19043172192602814
6.540520718738541,0.33296954682273966
6.573890722405573,0.5185093547928575
6.607260726072607,0.7234063157516062
6.64063072973964,0.9048435175875083
6.6740007334066735,1.0146058809574234
6.707370737073707,1.0162224728845433
6.7407407407407405,0.8985570447250384
6.774110744407774,0.6804562718708228
6.807480748074807,0.40475015760509775
6.840850751741841,0.12416238637838733
6.8742207554088735,-0.11523373934124985
6.907590759075907,-0.28672950757037796
6.94096076274294,-0.38754794549153565
6.974330766409974,-0.4345520628874132
7.007700770077007,-0.4539335982650566
7.041070773744041,-0.4696561191107911
7.074440777411074,-0.4951006957206043
7.107810781078108,-0.5303033121976813
7.141180784745141,-0.5646370023307951
7.174550788412174,-0.5829524518207106
7.207920792079207,-0.572521484304595
7.241290795746241,-0.5283746223565443
7.274660799413274,-0.4553026073794707
7.308030803080308,-0.3657050328024251
7.341400806747341,-0.2737399038499356
7.3747708104143745,-0.1878332063450214
7.408140814081408,-0.10494427668940252
7.4415108177484415,-0.010031709004708324
7.474880821415475,0.11772920895183364
7.5082508250825075,0.29377332849730886
7.541620828749541,0.5169334031158264
7.5749908324165744,0.7640316680598065
7.608360836083608,0.9938970684479966
7.641730839750641,1.159930428807524
7.675100843417675,1.225931058402803
7.708470847084708,1.1781007989017949
7.741840850751742,1.0280563090701607
7.775210854418775,0.8062356047980913
7.808580858085808,0.5496646684330281
7.841950861752841,0.29013114819573327
7.875320865419875,0.047513984384764056
7.908690869086908,-0.17046676382782636
7.942060872753942,-0.36414637378218945
7.975430876420975,-0.5368166379378603
8.008800880088009,-0.6909848914076734
8.042170883755041,-0.8263706784749825
8.075540887422076,-0.9388280239894694
8.108910891089108,-1.0197510862079275
8.142280894756142,-1.0567296376250057
8.175650898423175,-1.0367617080407092
8.20902090209021,-0.9522591147763351
8.242390905757242,-0.8078721936268325
8.275760909424275,-0.6244128269709744
8.309130913091309,-0.4364266879605387
8.342500916758341,-0.28261356064501003
8.375870920425376,-0.1921066214704923
8.409240924092408,-0.17244325467658644
8.442610927759443,-0.2050544633678644
8.475980931426475,-0.2509302628622128
8.50935093509351,-0.26431397923350686
8.542720938760542,-0.20844681889074676
8.576090942427575,-0.06666225565997984
8.60946094609461,0.1551412430975113
8.642830949761642,0.4340897540847598
8.676200953428676,0.7396738396132504
8.709570957095709,1.0415123922721385
8.742940960762743,1.3122399720569353
8.776310964429776,1.5259202595683392
8.80968096809681,1.6555663424883673
8.843050971763843,1.6741128434470869
8.876420975430875,1.5609519456031289
8.90979097909791,1.3120742880294833
8.943160982764942,0.9483994220113976
8.976530986431976,0.5164303297192092
9.009900990099009,0.0786349432877809
9.043270993766043,-0.3037345424958017
9.076640997433076,-0.588446365329206
9.11001100110011,-0.7631305234157377
9.143381004767143,-0.8447729909897539
9.176751008434175,-0.8686279057142404
9.21012101210121,-0.8717431372471798
9.243491015768242,-0.8781292487843293
9.276861019435277,-0.891415414567968
9.31023102310231,-0.8974256479852493
9.343601026769344,-0.8749235581898697
9.376971030436376,-0.8093929924312773
9.41034103410341,-0.7034187457407951
9.443711037770443,-0.5785811028744692
9.477081041437476,-0.46739071259788206
9.51045104510451,-0.39832229310443135
9.543821048771543,-0.38054948127168686
9.577191052438577,-0.3958075093423866
9.61056105610561,-0.40220601429568903
9.643931059772644,-0.349628357198465
9.677301063439677,-0.2008327966753168
9.710671067106711,0.050782063375434554
9.744041070773743,0.3747946025140904
9.777411074440776,0.7119202636878011
9.81078107810781,0.9934097743825
9.844151081774843,1.1635425582778414
9.877521085441877,1.196180320539654
9.91089108910891,1.0995897436880737
9.944261092775944,0.9092111795944405
9.977631096442977,0.6729317123300119
10.011001100110011,0.43556955455315505
10.044371103777044,0.22819444711861053
10.077741107444076,0.06470066965333975
10.11111111111111,-0.05541700990773223
10.144481114778143,-0.14125049917447713
10.177851118445178,-0.20489384800887814
10.21122112211221,-0.25784597519718483
10.244591125779245,-0.3091974455194593
10.277961129446277,-0.36424241763269927
10.311331133113312,-0.42251724049140404
10.344701136780344,-0.4758520121485065
10.378071140447377,-0.5085804256990069
10.411441144114411,-0.5020684528776392
10.444811147781444,-0.4435149369455599
10.478181151448478,-0.3355143390994379
10.51155115511551,-0.20050641010498968
10.544921158782545,-0.07526136194125084
10.578291162449577,0.004602864597069475
10.611661166116612,0.023662076915511965
10.645031169783644,-0.0011138485795075719
10.678401173450677,-0.02370131090142921
10.711771177117711,0.010901310926070404
10.745141180784744,0.13826285063381283
10.778511184451778,0.35219523075328674
10.81188118811881,0.6012441541048574
10.845251191785845,0.807535208814953
10.878621195452878,0.8996529444797927
10.911991199119912,0.8434192514140977
10.945361202786945,0.6552986599039031
10.978731206453979,0.3923457666467838
11.012101210121012,0.12492651542663107
11.045471213788044,-0.09307391267075361
11.078841217455079,-0.2417759336285022
11.112211221122111,-0.3336848448051638
11.145581224789145,-0.39692735485148745
11.178951228456178,-0.4548420079725047
11.212321232123212,-0.5136197800179935
11.245691235790245,-0.5632847318654881
11.27906123945728,-0.5887970796500145
11.312431243124312,-0.5827167172435811
11.345801246791344,-0.5514182647145555
11.379171250458379,-0.5120840773059262
11.412541254125411,-0.48367630647466664
11.445911257792446,-0.4779752083152221
11.479281261459478,-0.4953100061385465
11.512651265126513,-0.525593746426264
11.546021268793545,-0.5519285216304892
11.57939127246058,-0.5536093736568888
11.612761276127612,-0.5076149311814792
11.646131279794645,-0.39041041372119134
11.67950128346168,-0.18270275530155583
11.712871287128712,0.12213508143620103
11.746241290795746,0.5086604024463164
11.779611294462779,0.9341950230493385
11.812981298129813,1.3328357663056
11.846351301796846,1.6301364025608651
11.87972130546388,1.7647824009852677
11.913091309130913,1.709252161848465
11.946461312797945,1.4804738684626058
11.97983131646498,1.134912277725242
12.013201320132012,0.7491601166539616
12.046571323799046,0.3938234099011311
12.079941327466079,0.11174213775158863
12.113311331133113,-0.09052512317260798
12.146681334800146,-0.23552389014638253
12.18005133846718,-0.3570762020856963
12.213421342134213,-0.48136312933332576
12.246791345801245,-0.615834319120814
12.28016134946828,-0.7497501275418348
12.313531353135312,-0.8636847621471795
12.346901356802347,-0.9411367662852765
12.38027136046938,-0.9755850276625074
12.413641364136414,-0.9702478827970031
12.447011367803446,-0.9326568794807395
12.48038137147048,-0.868896396155076
12.513751375137513,-0.7815836559226157
12.547121378804546,-0.6723105914524122
12.58049138247158,-0.54579932508361
12.613861386138613,-0.4117494695217228
12.647231389805647,-0.2820235078038215
12.68060139347268,-0.16425313706551042
12.713971397139714,-0.05589137741046048
12.747341400806746,0.05675623864513807
12.78071140447378,0.19239225751161912
12.814081408140813,0.36343791553248495
12.847451411807846,0.5650744827699788
12.88082141547488,0.7709804427323493
12.914191419141913,0.9395570948930138
12.947561422808947,1.0293404860669133
12.98093142647598,1.0170956447257473
13.014301430143014,0.909649741966649
13.047671433810047,0.7426637541998709
13.081041437477081,0.5657380447586143
13.114411441144114,0.42046673917808325
13.147781444811146,0.3222441117829325
13.18115144847818,0.25512897189965056
13.214521452145213,0.1824347783318014
13.247891455812248,0.06753350246307009
13.28126145947928,-0.10580018388491469
13.314631463146315,-0.32352806475310025
13.348001466813347,-0.5461375224681493
13.381371470480381,-0.7247043101992188
13.414741474147414,-0.8198217445317326
13.448111477814447,-0.8148328147005804
13.481481481481481,-0.7188763532102064
13.514851485148514,-0.5606963688202056
13.548221488815548,-0.3778699413199586
13.58159149248258,-0.20656605527199576
13.614961496149615,-0.074778494249919
13.648331499816647,0.0008530078717692365
13.681701503483682,0.0161462954990108
13.715071507150714,-0.02030540430079369
13.748441510817747,-0.08767733418957907
13.781811514484781,-0.15555454624092574
13.815181518151814,-0.1898293341789642
13.848551521818848,-0.1615727754216418
13.88192152548588,-0.056574195963321174
13.915291529152915,0.11813616154431804
13.948661532819948,0.33417180543915287
13.982031536486982,0.5492664515951988
14.015401540154015,0.7202224012707857
14.048771543821047,0.8164142203848824
14.082141547488082,0.8282533832122457
14.115511551155114,0.7671083053891724
14.148881554822148,0.6571586952819694
14.182251558489181,0.5234942344171516
14.215621562156215,0.38236792918123497
14.248991565823248,0.23802746826865626
14.282361569490282,0.0868435291391975
14.315731573157315,-0.07442206407432396
14.349101576824348,-0.24137917032772063
14.382471580491382,-0.40016422350851577
14.415841584158414,-0.5322214368436524
14.449211587825449,-0.6231443380475691
14.482581591492481,-0.6705237418374783
14.515951595159516,-0.6859643093263803
14.549321598826548,-0.6894094464242976
14.582691602493583,-0.6982096447174329
14.616061606160615,-0.7166639601007071
14.649431609827648,-0.7320714236954
14.682801613494682,-0.7201610169552344
14.716171617161715,-0.6576026811845483
14.749541620828749,-0.5349885225903924
14.782911624495782,-0.3629222212777986
14.816281628162816,-0.16750137557546685
14.849651631829849,0.022360364691504306
14.883021635496883,0.18837233651820992
14.916391639163916,0.3291722935964431
14.94976164283095,0.4560634564598864
14.983131646497982,0.5814026520262779
15.016501650165015,0.7074286667601272
15.04987165383205,0.8228393269347447
15.083241657499082,0.9092086238701176
15.116611661166116,0.9527696794785505
15.149981664833149,0.9534370386684733
15.183351668500183,0.9245969885710827
15.216721672167216,0.8831671203158804
15.25009167583425,0.8359784124868879
15.283461679501283,0.7715059191342706
15.316831683168315,0.6633336941272383
15.35020168683535,0.48484436071685144
15.383571690502382,0.2275076570127984
15.416941694169417,-0.08781641390832796
15.45031169783645,-0.4138936463951359
15.483681701503484,-0.6940027216941641
15.517051705170516,-0.884460789958247
15.55042170883755,-0.9713853971652346
15.583791712504583,-0.9735419177190083
15.617161716171616,-0.9307013718306858
15.65053171983865,-0.8842683420611082
15.683901723505683,-0.8599482039013097
15.717271727172717,-0.8597767416276255
15.75064173083975,-0.8651483290077354
15.784011734506784,-0.8472863632853993
15.817381738173816,-0.7795473868523207
15.85075174184085,-0.6471184495507101
15.884121745507883,-0.45213856377532097
15.917491749174916,-0.21401700123771092
15.95086175284195,0.03484930640273816
15.984231756508983,0.25768075305743343
16.017601760176017,0.4249810741366608
16.05097176384305,0.5259691711797995
16.084341767510082,0.5747636599410452
16.117711771177117,0.6068188871692107
16.15108177484415,0.6647057141860897
16.184451778511182,0.7777747541092639
16.217821782178216,0.9446112528453846
16.25119178584525,1.127550026719373
16.284561789512285,1.2638352083238418
16.317931793179316,1.2901105344564556
16.35130179684635,1.1697890252660035
16.384671800513384,0.9105032110209581
16.41804180418042,0.5629834092063084
16.45141180784745,0.20151658631498465
16.484781811514484,-0.10495015970041252
16.51815181518152,-0.3177177372860858
16.55152181884855,-0.43844712887361625
16.584891822515583,-0.5014189042246275
16.618261826182618,-0.5534959477769168
16.651631829849652,-0.6322987796001706
16.685001833516683,-0.7522440746313883
16.718371837183717,-0.9026473365112299
16.75174184085075,-1.0556371725618288
16.785111844517782,-1.1778036673315726
16.818481848184817,-1.2398476438242074
16.85185185185185,-1.2218286771356812
16.885221855518886,-1.1151458518195518
16.918591859185916,-0.923711705291333
16.95196186285295,-0.6653513789401085
16.985331866519985,-0.371799273716707
17.01870187018702,-0.08424026587774491
17.05207187385405,0.15719056673473175
17.085441877521085,0.32761386855981417
17.11881188118812,0.4290661808462657
17.15218188485515,0.492431558819993
17.185551888522184,0.5659675826452313
17.21892189218922,0.693399504182262
17.252291895856253,0.8908123139724389
17.285661899523284,1.1336557352188037
17.319031903190318,1.3613911946164852
17.352401906857352,1.499196429717951
17.385771910524387,1.4877662410759422
17.419141914191417,1.3079804313102912
