Frequency (Hz),Amplitude
0.0,2.3725083390155994
0.01978021978021978,2.3723345444861392
0.03956043956043956,2.3718138113233986
0.05934065934065934,2.3709480892219807
0.07912087912087912,2.3697406223921273
0.0989010989010989,2.368195941615687
0.11868131868131868,2.366319853078925
0.13846153846153844,2.3641194239375998
0.15824175824175823,2.361602964557779
0.17802197802197803,2.3587800073652057
0.1978021978021978,2.3556612822263205
0.21758241758241756,2.352258688275387
0.23736263736263735,2.3485852620955368
0.2571428571428572,2.344655142156388
0.2769230769230769,2.340483529408071
0.2967032967032967,2.336086643931021
0.31648351648351647,2.3314816775433216
0.3362637362637363,2.3266867422728845
0.35604395604395606,2.3217208146106425
0.3758241758241758,2.316603675473873
0.3956043956043956,2.3113558458255485
0.4153846153846154,2.3059985179172013
0.4351648351648351,2.3005534821486973
0.45494505494505494,2.295043049569589
0.4747252747252747,2.289489970082599
0.4945054945054945,2.2839173464511506
0.5142857142857143,2.2783485442590403
0.5340659340659341,2.272807098021272
0.5538461538461538,2.2673166137008525
0.5736263736263736,2.2619006679453055
0.5934065934065934,2.256582704419829
0.6131868131868132,2.2513859276783874
0.6329670329670329,2.24633319508058
0.6527472527472528,2.2414469073278167
0.6725274725274726,2.236748898257089
0.6923076923076923,2.2322603245916155
0.7120879120879121,2.2280015564043345
0.7318681318681318,2.2239920690996557
0.7516483516483516,2.2202503377603353
0.7714285714285715,2.2167937347370987
0.7912087912087912,2.213638431377668
0.810989010989011,2.2107993047976224
0.8307692307692308,2.2082898505864206
0.8505494505494506,2.2061221023177477
0.8703296703296702,2.2043065586929345
0.8901098901098901,2.2028521190902017
0.9098901098901099,2.201766028220796
0.9296703296703297,2.201053830506918
0.9494505494505494,2.2007193346971547
0.9692307692307692,2.2007645891245766
0.989010989010989,2.201189867893271
1.0087912087912088,2.201993668153078
1.0285714285714287,2.203172718492966
1.0483516483516484,2.2047219983533743
1.0681318681318681,2.2066347682300664
1.087912087912088,2.208902610319573
1.1076923076923075,2.2115154791417857
1.1274725274725275,2.2144617615707842
1.1472527472527472,2.217728345613367
1.1670329670329669,2.2213006971965608
1.1868131868131868,2.2251629441626792
1.2065934065934065,2.2292979666233306
1.2263736263736265,2.233687492792654
1.2461538461538462,2.238312199404464
1.2659340659340659,2.2431518158173924
1.2857142857142858,2.2481852309253285
1.3054945054945055,2.2533906020162724
1.3252747252747252,2.2587454647593836
1.3450549450549452,2.26422684354594
1.3648351648351649,2.269811361463369
1.3846153846153846,2.275475349240385
1.4043956043956045,2.281194952564313
1.4241758241758242,2.2869462372365885
1.443956043956044,2.2927052916983817
1.4637362637362636,2.29844832652332
1.4835164835164834,2.304151770537603
1.5032967032967033,2.3097923632882766
1.523076923076923,2.315347243637259
1.542857142857143,2.320794034311416
1.5626373626373626,2.3261109222868415
1.5824175824175823,2.3312767349287067
1.6021978021978023,2.3362710118459256
1.621978021978022,2.3410740724529444
1.6417582417582417,2.3456670792588192
1.6615384615384616,2.350032096927059
1.6813186813186813,2.3541521471682145
1.7010989010989013,2.3580112595416804
1.720879120879121,2.3615945182533493
1.7406593406593405,2.364888105042822
1.7604395604395604,2.3678793382569983
1.7802197802197801,2.37055670820764
1.7999999999999998,2.3729099089082326
1.8197802197802198,2.3749298662810787
1.8395604395604395,2.3766087629190715
1.8593406593406594,2.377940059478408
1.879120879120879,2.3789185127687578
1.8989010989010988,2.3795401905964955
1.9186813186813187,2.379802483404592
1.9384615384615385,2.3797041127399607
1.9582417582417584,2.379245136565513
1.978021978021978,2.378426951420412
1.9978021978021978,2.3772522914176033
2.0175824175824175,2.3757252240535514
2.0373626373626372,2.373851142790751
2.0571428571428574,2.3716367563594916
2.076923076923077,2.369090074711966
2.096703296703297,2.3662203915485605
2.1164835164835165,2.3630382633242917
2.1362637362637362,2.359555484632196
2.1560439560439564,2.355785059850938
2.175824175824176,2.3517411709358096
2.195604395604396,2.3474391412264204
2.215384615384615,2.3428953951406517
2.2351648351648348,2.3381274136234866
2.254945054945055,2.3331536852215584
2.2747252747252746,2.3279936526598504
2.2945054945054943,2.322667654806699
2.314285714285714,2.3171968639271614
2.3340659340659338,2.311603218143688
2.353846153846154,2.3059093490469507
2.3736263736263736,2.300138504429194
2.3934065934065933,2.2943144661477164
2.413186813186813,2.288461463167472
2.4329670329670328,2.282604079879
2.452747252747253,2.2767671598413086
2.4725274725274726,2.270975705158608
2.4923076923076923,2.2652547717640563
2.512087912087912,2.2596293609532894
2.5318681318681318,2.254124307583548
2.5516483516483515,2.2487641654303268
2.5714285714285716,2.243573090271116
2.5912087912087913,2.2385747213432374
2.610989010989011,2.233792061898647
2.6307692307692307,2.229247359650307
2.6505494505494505,2.2249619879709965
2.6703296703296706,2.220956328763175
2.6901098901098903,2.217249657966351
2.70989010989011,2.2138600347035213
2.7296703296703297,2.2108041950891844
2.7494505494505495,2.2080974517260503
2.769230769230769,2.2057535999047837
2.7890109890109893,2.203784831489815
2.808791208791209,2.2022016574238883
2.8285714285714287,2.201012839714988
2.8483516483516484,2.2002253336818707
2.8681318681318677,2.199844241130357
2.887912087912088,2.199872775013268
2.9076923076923076,2.200312235995293
2.9274725274725273,2.2011620012024955
2.947252747252747,2.202419525288464
2.9670329670329667,2.2040803537983096
2.986813186813187,2.206138148661482
3.0065934065934066,2.208584725498684
3.0263736263736263,2.211410102289775
3.046153846153846,2.2146025588221776
3.0659340659340657,2.218148706225247
3.085714285714286,2.2220335657978127
3.1054945054945056,2.226240656255075
3.1252747252747253,2.230752088458365
3.145054945054945,2.2355486666476407
3.1648351648351647,2.2406099951714618
3.184615384615385,2.245914589702176
3.2043956043956046,2.2514399919339807
3.2241758241758243,2.257162886786935
3.243956043956044,2.2630592211787
3.2637362637362637,2.2691043234764985
3.2835164835164834,2.275273022801367
3.3032967032967036,2.2815397674240985
3.3230769230769233,2.287878741564107
3.342857142857143,2.2942639799779263
3.3626373626373627,2.300669479800184
3.3824175824175824,2.307069309175773
3.4021978021978025,2.3134377122957943
3.4219780219780223,2.3197492105206217
3.441758241758242,2.3259786993397187
3.4615384615384617,2.3321015409797003
3.481318681318681,2.3380936525280713
3.501098901098901,2.3439315894905155
3.520879120879121,2.349592624744055
3.5406593406593405,2.355054822886768
3.5604395604395602,2.3602971100174424
3.58021978021978,2.365299339005508
3.5999999999999996,2.3700423503332044
3.61978021978022,2.374508028608593
3.6395604395604395,2.378679354860114
3.659340659340659,2.3825404547310973
3.679120879120879,2.386076642696644
3.6989010989010986,2.3892744624259867
3.718681318681319,2.3921217234107335
3.7384615384615385,2.3946075339745403
3.758241758241758,2.3967223307720005
3.7780219780219784,2.398457904875331
3.7978021978021976,2.3998074245358647
3.8175824175824173,2.4007654546949824
3.8373626373626375,2.4013279733047828
3.8571428571428568,2.4014923845040674
3.876923076923077,2.4012575286789883
3.896703296703296,2.400623689421463
3.916483516483517,2.399592597380891
3.936263736263736,2.3981674309876366
3.956043956043956,2.396352814008583
3.9758241758241755,2.394154809877425
3.9956043956043956,2.391580912724624
4.015384615384615,2.3886400350142787
4.035164835164835,2.385342491678347
4.054945054945055,2.381699980622166
4.0747252747252745,2.3777255594598197
4.094505494505494,2.373433618323962
4.114285714285715,2.3688398485817697
4.134065934065934,2.36396120727857
4.153846153846154,2.3588158771220087
4.173626373626373,2.353423221814523
4.193406593406594,2.347803736539967
4.213186813186813,2.341978993411754
4.232967032967033,2.3359715816967603
4.252747252747253,2.3298050426405736
4.2725274725274724,2.3235037987368594
4.292307692307692,2.317093077307394
4.312087912087913,2.3105988282898244
4.331868131868132,2.3040476361680913
4.351648351648352,2.297466626026511
4.371428571428571,2.2908833637623127
4.391208791208792,2.2843257505540864
4.410989010989011,2.2778219117540734
4.43076923076923,2.2714000804509453
4.450549450549451,2.265088476035892
4.4703296703296695,2.2589151781974057
4.49010989010989,2.252907996868049
4.50989010989011,2.247094338748435
4.52967032967033,2.2415010711368324
4.549450549450549,2.2361543838961655
4.569230769230769,2.2310796504898796
4.589010989010989,2.226301289112341
4.608791208791209,2.221842625024276
4.628571428571428,2.217725755276798
4.648351648351649,2.213971417064871
4.6681318681318675,2.210598860990748
4.687912087912088,2.207625730535823
4.707692307692308,2.2050679490349245
4.7274725274725276,2.2029396154171037
4.747252747252747,2.2012529099214455
4.767032967032967,2.2000180109149094
4.786813186813187,2.199243023832189
4.806593406593407,2.19893392312683
4.826373626373626,2.1990945079709623
4.846153846153847,2.1997263722707254
4.8659340659340655,2.2008288893807313
4.885714285714286,2.2023992117071
4.905494505494506,2.2044322851908054
4.9252747252747255,2.2069208784655476
4.945054945054945,2.209855626292839
4.964835164835165,2.2132250866957244
4.984615384615385,2.2170158110466964
5.004395604395604,2.2212124262177757
5.024175824175824,2.2257977277756322
5.043956043956045,2.230752783102689
5.0637362637362635,2.2360570432497378
5.083516483516483,2.24168846227479
5.103296703296703,2.2476236227984656
5.123076923076923,2.2538378665055863
5.142857142857143,2.260305428344439
5.162637362637362,2.266999573217212
5.182417582417583,2.273892734014427
5.2021978021978015,2.2809566499197578
5.221978021978022,2.288162503996585
5.241758241758242,2.2954810591606796
5.2615384615384615,2.3028827917417103
5.281318681318681,2.3103380219369116
5.301098901098901,2.3178170405610743
5.320879120879121,2.325290231595382
5.340659340659341,2.332728190132364
5.36043956043956,2.340101835402953
5.380219780219781,2.3473825186545705
5.3999999999999995,2.3545421257239503
5.41978021978022,2.361553174215858
5.43956043956044,2.3683889052581217
5.4593406593406595,2.375023369854436
5.479120879120879,2.3814315098996124
5.498901098901099,2.387589233957697
5.518681318681319,2.3934734879316086
5.538461538461538,2.399062320775083
5.558241758241758,2.404334945413017
5.578021978021979,2.4092717950468914
5.5978021978021975,2.4138545750268467
5.617582417582418,2.418066310473087
5.637362637362637,2.421891389826111
5.6571428571428575,2.425315604499153
5.676923076923077,2.4283261847966697
5.696703296703297,2.4309118322513887
5.716483516483517,2.433062748518313
5.736263736263735,2.4347706609487116
5.756043956043956,2.436028844949774
5.775824175824176,2.4368321432174693
5.795604395604395,2.437176981910429
5.815384615384615,2.437061383812353
5.835164835164835,2.43648497850929
5.854945054945055,2.435449009586117
5.874725274725275,2.4339563388242857
5.894505494505494,2.4320114473598466
5.914285714285715,2.4296204337376364
5.934065934065933,2.4267910087739537
5.953846153846154,2.4235324871163355
5.973626373626374,2.41985577536566
5.993406593406593,2.415773356602144
6.013186813186813,2.4112992711340415
6.032967032967033,2.4064490932655436
6.052747252747253,2.4012399038591545
6.072527472527473,2.3956902584481243
6.092307692307692,2.3898201506366283
6.112087912087913,2.383650970510088
6.131868131868131,2.3772054577656823
6.151648351648352,2.370507649264706
6.171428571428572,2.363582820704572
6.191208791208791,2.3564574221098527
6.210989010989011,2.3491590068498334
6.230769230769231,2.3417161539055855
6.2505494505494505,2.3341583831332096
6.270329670329671,2.3265160633034703
6.29010989010989,2.3188203127414537
6.309890109890111,2.3111028924449784
6.329670329670329,2.3033960916272305
6.349450549450549,2.295732605708691
6.36923076923077,2.288145406875338
6.3890109890109885,2.2806676074252077
6.408791208791209,2.2733323162420795
6.428571428571428,2.2661724888634236
6.4483516483516485,2.2592207717473305
6.468131868131868,2.2525093414884436
6.487912087912088,2.2460697398828393
6.507692307692308,2.2399327058933722
6.527472527472527,2.234128005715607
6.547252747252747,2.2286842622867717
6.567032967032967,2.22362878571013
6.5868131868131865,2.218987406180911
6.606593406593407,2.2147843110914107
6.626373626373626,2.2110418880580416
6.6461538461538465,2.2077805756466984
6.665934065934065,2.2050187235719103
6.685714285714286,2.2027724641060615
6.705494505494506,2.2010555963568916
6.725274725274725,2.1998794849532164
6.745054945054945,2.1992529745222105
6.764835164835165,2.199182321148856
6.7846153846153845,2.1996711417838584
6.804395604395605,2.2007203823154033
6.824175824175824,2.2023283047500133
6.8439560439560445,2.204490493665045
6.863736263736263,2.207199881809279
6.883516483516484,2.210446794445529
6.903296703296704,2.2142190117597114
6.923076923076923,2.218501848410491
6.942857142857143,2.223278249070079
6.962637362637362,2.228528898614811
6.9824175824175825,2.234232345467813
7.002197802197802,2.240365136478347
7.021978021978022,2.2469019616437316
7.041758241758242,2.2538158069401883
7.061538461538461,2.2610781135265294
7.081318681318681,2.2686589416163505
7.101098901098901,2.276527137377178
7.1208791208791204,2.28465050130334
7.140659340659341,2.2929959566195692
7.16043956043956,2.3015297163985196
7.1802197802197805,2.310217448213294
7.199999999999999,2.319024435290582
7.21978021978022,2.327915733276934
7.23956043956044,2.3368563218764713
7.259340659340659,2.3458112507592896
7.279120879120879,2.354745779273719
7.298901098901099,2.3636255096200562
7.318681318681318,2.3724165132574124
7.338461538461539,2.3810854504169487
7.358241758241758,2.389599682685262
7.3780219780219785,2.3979273786985984
7.397802197802197,2.406037613054592
7.417582417582418,2.413900458601889
7.437362637362638,2.421487072311179
7.457142857142857,2.4287697749642354
7.476923076923077,2.435722124921415
7.496703296703297,2.442318986243873
7.516483516483516,2.4485365914552433
7.536263736263736,2.4543525992298343
7.556043956043957,2.45974614729112
7.575824175824176,2.464697900796573
7.595604395604395,2.46919009647331
7.615384615384615,2.4732065827538885
7.635164835164835,2.47673285614432
7.654945054945055,2.4797560940365497
7.674725274725275,2.482265184156058
7.694505494505494,2.4842507508123863
7.7142857142857135,2.4857051780964246
7.734065934065935,2.4866226301428007
7.753846153846154,2.4869990685501637
7.7736263736263735,2.486832267025184
7.793406593406592,2.4861218232887956
7.813186813186814,2.484869168255096
7.832967032967034,2.4830775724646776
7.852747252747252,2.4807521497247143
7.872527472527472,2.4778998578782314
7.892307692307693,2.4745294965941067
7.912087912087912,2.470651702038351
7.931868131868132,2.4662789382551447
7.951648351648351,2.4614254850538244
7.971428571428572,2.45610742216545
7.991208791208791,2.450342609399781
8.010989010989011,2.444150662500912
8.03076923076923,2.4375529243680143
8.05054945054945,2.43057243127665
8.07032967032967,2.4232338737071077
8.09010989010989,2.4155635513597153
8.10989010989011,2.4075893219137092
8.129670329670331,2.399340543067792
8.149450549450549,2.390848007387594
8.169230769230769,2.3821438694792194
8.189010989010988,2.3732615650112203
8.20879120879121,2.3642357211203398
8.22857142857143,2.3551020577616817
8.248351648351647,2.3458972796030824
8.268131868131867,2.336658958118308
8.287912087912087,2.327425403605817
8.307692307692308,2.3182355269509727
8.327472527472528,2.3091286910606237
8.347252747252746,2.300144552031182
8.367032967032966,2.2913228902642184
8.386813186813187,2.2827034319176294
8.406593406593407,2.274325661273278
8.426373626373627,2.266228624812135
8.446153846153845,2.258450728011705
8.465934065934066,2.2510295261133035
8.485714285714286,2.244001510343005
8.505494505494505,2.237401891303372
8.525274725274725,2.2312643814751
8.545054945054945,2.2256209789707366
8.564835164835165,2.220501754857344
8.584615384615384,2.215934646502761
8.604395604395604,2.211945259492365
8.624175824175826,2.208556680702468
8.643956043956043,2.2057893050964807
8.663736263736263,2.203660678726328
8.683516483516483,2.2021853602726953
8.703296703296704,2.2013748032436635
8.723076923076924,2.2012372606759327
8.742857142857142,2.201777713852235
8.762637362637362,2.202997826171591
8.782417582417583,2.204895922896876
8.802197802197803,2.2074669970696412
8.821978021978023,2.2107027414392975
8.84175824175824,2.214591605817362
8.86153846153846,2.2191188788508818
8.881318681318682,2.2242667928262603
8.901098901098901,2.2300146497762925
8.920879120879121,2.2363389668783404
8.940659340659339,2.2432136389070876
8.96043956043956,2.2506101153445117
8.98021978021978,2.2584975896537403
9.0,2.26684319819066
9.01978021978022,2.275612226253392
9.03956043956044,2.284768318849249
9.05934065934066,2.2942736938842576
9.079120879120879,2.304089355643493
9.098901098901099,2.3141753066225355
9.11868131868132,2.3244907559829735
9.138461538461538,2.3349943231293393
9.158241758241758,2.3456442351338422
9.178021978021977,2.356398516962047
9.197802197802199,2.367215173671535
9.217582417582419,2.3780523639619666
9.237362637362637,2.388868564645578
9.257142857142856,2.3996227257794915
9.276923076923078,2.4102744163540355
9.296703296703297,2.420783960563554
9.316483516483517,2.4311125647986778
9.336263736263735,2.4412224355917544
9.356043956043957,2.451076888821778
9.375824175824176,2.460640450542536
9.395604395604396,2.469878949839927
9.415384615384616,2.478759604152984
9.435164835164835,2.487251097509389
9.454945054945055,2.495323652132948
9.474725274725275,2.5029490938777283
9.494505494505495,2.5101009119340723
9.514285714285714,2.5167543132362606
9.534065934065934,2.522886271981389
9.553846153846154,2.528475574645062
9.573626373626373,2.5335028608530124
9.593406593406593,2.537950660438898
9.613186813186815,2.54180342698841
9.632967032967032,2.545047568138336
9.652747252747252,2.547671472867451
9.672527472527472,2.549665535983359
9.692307692307693,2.5510221799767385
9.712087912087913,2.5517358743811536
9.731868131868131,2.551803152743129
9.75164835164835,2.55122262727339
9.771428571428572,2.549995001215865
9.791208791208792,2.5481230789359213
9.810989010989012,2.545611773693774
9.83076923076923,2.5424681130321747
9.850549450549451,2.5387012416696395
9.87032967032967,2.534322421751301
9.89010989010989,2.5293450302689156
9.90989010989011,2.523784553419118
9.92967032967033,2.5176585776256273
9.94945054945055,2.5109867769052348
9.96923076923077,2.5037908962108797
9.989010989010989,2.4960947303368544
10.008791208791209,2.487924097922266
10.028571428571428,2.479306810039564
10.048351648351648,2.470272632805997
10.068131868131868,2.460853243408546
10.08791208791209,2.4510821788877415
10.107692307692307,2.4409947769851623
10.127472527472527,2.4306281083243406
10.147252747252747,2.4200208991680463
10.167032967032966,2.4092134439783273
10.186813186813188,2.39824750700254
10.206593406593406,2.387166212121623
10.226373626373626,2.376013920229194
10.246153846153845,2.364836093465645
10.265934065934067,2.35367914571293
10.285714285714286,2.3425902788672053
10.305494505494504,2.331617304550228
10.325274725274724,2.320808451099467
10.345054945054946,2.3102121558922613
10.364835164835165,2.2998768433120262
10.384615384615385,2.2898506889529653
10.404395604395603,2.280181370982126
10.424175824175824,2.270915809928282
10.443956043956044,2.2620998985401504
10.463736263736264,2.2537782237420783
10.483516483516484,2.24599378310248
10.503296703296703,2.238787698605629
10.523076923076923,2.2321989308653216
10.542857142857143,2.2262639972235956
10.562637362637362,2.2210166974223604
10.582417582417584,2.216487850703942
10.602197802197802,2.2127050482743185
10.621978021978022,2.209692425037529
10.641758241758241,2.207470454373906
10.661538461538463,2.206055769484123
10.681318681318682,2.2054610144576454
10.7010989010989,2.205694727755167
