Time (s),Filtered Signal
0.0,0.03509817104139478
0.03337000366703337,-0.04628077715387756
0.06674000733406674,-0.11345391432322126
0.1001100110011001,-0.15647379669362071
0.13348001466813347,-0.1723880083768512
0.16685001833516683,-0.16429470486200554
0.2002200220022002,-0.13775033455223384
0.2335900256692336,-0.0966622669936899
0.26696002933626695,-0.04111442479320285
0.3003300330033003,0.03143604376014749
0.33370003667033366,0.12201639918381386
0.36707004033736707,0.22527564439699763
0.4004400440044004,0.32692531746965015
0.4338100476714338,0.40576682928046404
0.4671800513384672,0.44045980296407927
0.5005500550055005,0.4185592618560867
0.5339200586725339,0.3435647372446116
0.5672900623395672,0.23594029416187806
0.6006600660066006,0.12653643266506548
0.634030069673634,0.044570096929635684
0.6674000733406673,0.005403158228471554
0.7007700770077008,0.004016013639754069
0.7341400806747341,0.017699334382116936
0.7675100843417675,0.017126155839378515
0.8008800880088008,-0.019201356576467148
0.8342500916758342,-0.09397725434898338
0.8676200953428675,-0.188987954884641
0.9009900990099009,-0.27319324820541496
0.9343601026769344,-0.3174888386940955
0.9677301063439677,-0.3093555794212311
1.001100110011001,-0.26042145583167936
1.0344701136780343,-0.20305249066289144
1.0678401173450678,-0.1770446859515036
1.1012101210121013,-0.2119983724639101
1.1345801246791345,-0.31295447054357917
1.167950128346168,-0.45554528328749677
1.2013201320132012,-0.5929631492859392
1.2346901356802347,-0.672206289228461
1.268060139347268,-0.6532847028389258
1.3014301430143014,-0.5238585697311781
1.3348001466813346,-0.3036431864746419
1.368170150348368,-0.03708040143308242
1.4015401540154016,0.22254957729555408
1.4349101576824348,0.4311948648202353
1.4682801613494683,0.5673420473291795
1.5016501650165015,0.6357291177503499
1.535020168683535,0.6604522579375683
1.5683901723505682,0.6706900718455999
1.6017601760176017,0.6854153354604767
1.6351301796846351,0.7041483930522914
1.6685001833516684,0.7083390142842417
1.7018701870187019,0.6730135287473583
1.735240190685735,0.5830145990370421
1.7686101943527686,0.44522582492446594
1.8019801980198018,0.28951383029103217
1.8353502016868353,0.15656373303172436
1.8687202053538687,0.07782229513766159
1.902090209020902,0.057632847277873725
1.9354602126879354,0.06737555935133013
1.9688302163549687,0.05573851072962608
2.002200220022002,-0.02898642889452236
2.0355702236890356,-0.2149557149373815
2.0689402273560686,-0.49237820228821133
2.102310231023102,-0.8149306889853454
2.1356802346901356,-1.1154442861656517
2.169050238357169,-1.3279837677977722
2.2024202420242025,-1.4067176181975871
2.2357902456912355,-1.3351724605695852
2.269160249358269,-1.1251545641838512
2.3025302530253025,-0.8093031720921411
2.335900256692336,-0.4324884411260095
2.369270260359369,-0.04507653556137494
2.4026402640264024,0.3023509476728465
2.436010267693436,0.5651436137643288
2.4693802713604693,0.7128803400494272
2.502750275027503,0.7380232259498248
2.536120278694536,0.6605319096167208
2.5694902823615693,0.5242473602602998
2.6028602860286028,0.38428291024477107
2.636230289695636,0.28944241911139507
2.6696002933626692,0.2668522584255185
2.7029702970297027,0.3154267294191038
2.736340300696736,0.4106093956145172
2.7697103043637696,0.5173524528004474
2.803080308030803,0.6045778592120233
2.836450311697836,0.6543801016041597
2.8698203153648696,0.6627398090428918
2.903190319031903,0.6333279417548389
2.9365603226989365,0.5693579802577582
2.96993032636597,0.46872259211109424
3.003300330033003,0.32505930337618383
3.0366703337000365,0.13369517604212694
3.07004033736707,-0.10124076316565084
3.1034103410341034,-0.36259704375061114
3.1367803447011364,-0.6211327669321914
3.17015034836817,-0.8412319898813903
3.2035203520352034,-0.9890835839225685
3.236890355702237,-1.0405597427133177
3.2702603593692703,-0.9868127784908011
3.3036303630363033,-0.8367387112786844
3.3370003667033368,-0.6161551564330562
3.3703703703703702,-0.36367617414977566
3.4037403740374037,-0.12332391560280138
3.4371103777044367,0.06545291610873452
3.47048038137147,0.1782787100927047
3.5038503850385037,0.21327465725161202
3.537220388705537,0.19151801390240453
3.5705903923725706,0.1486780199769818
3.6039603960396036,0.12004447037501491
3.637330399706637,0.12524967810723558
3.6707004033736705,0.1603069588080455
3.704070407040704,0.20158420868673851
3.7374404107077375,0.22009977132868397
3.7708104143747705,0.1985507651236342
3.804180418041804,0.14156056496268576
3.8375504217088374,0.07332789320725977
3.870920425375871,0.024221901808754862
3.904290429042904,0.014426579077029825
3.9376604327099374,0.04431904460942315
3.971030436376971,0.09680423256350892
4.004400440044004,0.1492051862310019
4.037770443711038,0.18650124241454788
4.071140447378071,0.207448984956446
4.104510451045105,0.22039707160615668
4.137880454712137,0.23271696592538174
4.171250458379171,0.2418877385141644
4.204620462046204,0.2347096017102926
4.237990465713238,0.19513174784773468
4.271360469380271,0.1150565357375831
4.304730473047305,0.0005362873233891882
4.338100476714338,-0.1307122661920262
4.3714704803813715,-0.2582462475995948
4.404840484048405,-0.36759305842376794
4.438210487715438,-0.4525959481453691
4.471580491382471,-0.510402229623506
4.5049504950495045,-0.5338883729235638
4.538320498716538,-0.5085404239546539
4.571690502383571,-0.4178065331841022
4.605060506050605,-0.25480908435066124
4.638430509717638,-0.03332125868234349
4.671800513384672,0.20952116945802338
4.705170517051705,0.421939038975765
4.738540520718738,0.5545194944936811
4.771910524385771,0.5779518824373807
4.805280528052805,0.4936888235919402
4.838650531719838,0.333308442768009
4.872020535386872,0.1473952613145926
4.905390539053905,-0.011312146031089005
4.938760542720939,-0.10429688658202745
4.972130546387972,-0.11783368440836185
5.005500550055006,-0.06475594819100448
5.038870553722038,0.022652327768993206
5.072240557389072,0.10582999362971171
5.105610561056105,0.15422041984879734
5.138980564723139,0.15516201891268808
5.172350568390172,0.11557427409860961
5.2057205720572055,0.05521487201927396
5.239090575724239,-0.004774387582384106
5.272460579391272,-0.05213469853072364
5.305830583058306,-0.08760133757092664
5.3392005867253385,-0.12147780533418895
5.372570590392372,-0.16544085533391942
5.405940594059405,-0.22462636463682736
5.439310597726439,-0.2942601585514665
5.472680601393472,-0.3619782188759842
5.506050605060506,-0.4136195285355111
5.539420608727539,-0.4387051038393818
5.572790612394573,-0.43273672608616737
5.606160616061606,-0.39592936939775997
5.63953061972864,-0.3302789105528796
5.672900623395672,-0.23760724287546572
5.706270627062706,-0.12021180094346155
5.739640630729739,0.01621314758002924
5.773010634396773,0.1594591389619892
5.806380638063806,0.29019369752918994
5.83975064173084,0.38570709985513607
5.873120645397873,0.42774736288643866
5.9064906490649065,0.4116148815431244
5.93986065273194,0.3519708034993347
5.9732306563989725,0.2811845331151807
6.006600660066006,0.2389100401766623
6.0399706637330395,0.2559228209581309
6.073340667400073,0.33887813848427195
6.106710671067106,0.463358531433347
6.14008067473414,0.5795566796183401
6.173450678401173,0.6294453066820086
6.206820682068207,0.5690018139732638
6.24019068573524,0.38656291356449557
6.273560689402273,0.10979162789488185
6.306930693069306,-0.20172502736798253
6.34030069673634,-0.4756226279377016
6.373670700403373,-0.6506386747282512
6.407040704070407,-0.6966253711742243
6.44041070773744,-0.6236798161597193
6.473780711404474,-0.47735073520944277
6.507150715071507,-0.3217693941941418
6.540520718738541,-0.21672531307586412
6.573890722405573,-0.19681854551391056
6.607260726072607,-0.2601195343615284
6.64063072973964,-0.3703535829809253
6.6740007334066735,-0.4715779938977801
6.707370737073707,-0.5095175760774991
6.7407407407407405,-0.4512150203793105
6.774110744407774,-0.2956581954097756
6.807480748074807,-0.07214850816524944
6.840850751741841,0.1716418567408479
6.8742207554088735,0.38622378241843414
6.907590759075907,0.5349659512590614
6.94096076274294,0.6023477327519307
6.974330766409974,0.5944231982813648
7.007700770077007,0.5329342745775182
7.041070773744041,0.44612862060226566
7.074440777411074,0.35972017153703484
7.107810781078108,0.29078677415807463
7.141180784745141,0.2459375891576105
7.174550788412174,0.22320937966561794
7.207920792079207,0.2156411959593806
7.241290795746241,0.2141570226659344
7.274660799413274,0.20850374087396106
7.308030803080308,0.18688363625649443
7.341400806747341,0.1363316016869521
7.3747708104143745,0.04575472389586809
7.408140814081408,-0.08826681479002124
7.4415108177484415,-0.2553466096748295
7.474880821415475,-0.42887884782217356
7.5082508250825075,-0.5707876301285314
7.541620828749541,-0.6438450051537034
7.5749908324165744,-0.6277216827012945
7.608360836083608,-0.5316518878681188
7.641730839750641,-0.3963523802268934
7.675100843417675,-0.28150340820257874
7.708470847084708,-0.24162747155852876
7.741840850751742,-0.2997555959617354
7.775210854418775,-0.43134237499287326
7.808580858085808,-0.5680901863397454
7.841950861752841,-0.6230152037320137
7.875320865419875,-0.5276949092380248
7.908690869086908,-0.26537413630625184
7.942060872753942,0.11622865343194831
7.975430876420975,0.5201253088393583
8.008800880088009,0.8378241450644206
8.042170883755041,0.9929206280188719
8.075540887422076,0.9704987391785902
8.108910891089108,0.8191282726557744
8.142280894756142,0.6256247260241099
8.175650898423175,0.4755785114581871
8.20902090209021,0.41838704069491495
8.242390905757242,0.45178419705035094
8.275760909424275,0.530413197400932
8.309130913091309,0.5916355394062153
8.342500916758341,0.5849981985853019
8.375870920425376,0.492101895497944
8.409240924092408,0.3297902659173314
8.442610927759443,0.13783743595952122
8.475980931426475,-0.04137287458402438
8.50935093509351,-0.18157636339636407
8.542720938760542,-0.28216473994158453
8.576090942427575,-0.36538801498778084
8.60946094609461,-0.463074551496477
8.642830949761642,-0.5987487329948468
8.676200953428676,-0.7729801929512323
8.709570957095709,-0.9588561283008755
8.742940960762743,-1.1104655284519107
8.776310964429776,-1.1813672396392199
8.80968096809681,-1.1447500711837857
8.843050971763843,-1.0053484462682754
8.876420975430875,-0.7966999394912672
8.90979097909791,-0.5647537583525851
8.943160982764942,-0.3463067666839136
8.976530986431976,-0.15387439051996404
9.009900990099009,0.024767248114379033
9.043270993766043,0.21235982539476006
9.076640997433076,0.42166407684796314
9.11001100110011,0.6407593633846818
9.143381004767143,0.8329987292811925
9.176751008434175,0.9522479096974451
9.21012101210121,0.9655041093323752
9.243491015768242,0.8708802748731106
9.276861019435277,0.7013697669793723
9.31023102310231,0.5122761538651053
9.343601026769344,0.3585823550437478
9.376971030436376,0.273397164892546
9.41034103410341,0.25753882428832564
9.443711037770443,0.28413315815887163
9.477081041437476,0.3143782339021316
9.51045104510451,0.31558825301213095
9.543821048771543,0.2727472171608711
9.577191052438577,0.1894748916444948
9.61056105610561,0.0804548136779994
9.643931059772644,-0.03855690371571467
9.677301063439677,-0.15700624832208052
9.710671067106711,-0.2694590222401679
9.744041070773743,-0.3710405135602327
9.777411074440776,-0.4530093309326556
9.81078107810781,-0.5025785747405351
9.844151081774843,-0.5079849763280435
9.877521085441877,-0.4661303765684999
9.91089108910891,-0.3880151583732349
9.944261092775944,-0.29778094911611
9.977631096442977,-0.22423871642519183
10.011001100110011,-0.18787342167098103
10.044371103777044,-0.1894554491855082
10.077741107444076,-0.206699044106996
10.11111111111111,-0.20219816886615039
10.144481114778143,-0.14032035036682963
10.177851118445178,-0.0056613119354520965
10.21122112211221,0.18593699412749076
10.244591125779245,0.38966225602823545
10.277961129446277,0.5468104712855172
10.311331133113312,0.6061376120396572
10.344701136780344,0.5424705496968708
10.378071140447377,0.36554370646429635
10.411441144114411,0.11673734573644028
10.444811147781444,-0.14399130450292086
10.478181151448478,-0.3560755883025358
10.51155115511551,-0.475813718153308
10.544921158782545,-0.4886797217842785
10.578291162449577,-0.41300807876370693
10.611661166116612,-0.2933633788338725
10.645031169783644,-0.18464337847463852
10.678401173450677,-0.13142074708977008
10.711771177117711,-0.14987196049232304
10.745141180784744,-0.2200155129368959
10.778511184451778,-0.2927889359337097
10.81188118811881,-0.3104656614798074
10.845251191785845,-0.23260598925749218
10.878621195452878,-0.05633283320767946
10.911991199119912,0.1786919269653038
10.945361202786945,0.4038969388628868
10.978731206453979,0.5489727374838151
11.012101210121012,0.5710276468998265
11.045471213788044,0.47281815736107424
11.078841217455079,0.3018140580912047
11.112211221122111,0.13048241246630551
11.145581224789145,0.026674885703561874
11.178951228456178,0.027298243252089238
11.212321232123212,0.12649330786284796
11.245691235790245,0.28238296864666157
11.27906123945728,0.4376969368827927
11.312431243124312,0.5436067193175823
11.345801246791344,0.5757673416227619
11.379171250458379,0.5367176158016475
11.412541254125411,0.4463787836811164
11.445911257792446,0.32813984673163465
11.479281261459478,0.1988767012543403
11.512651265126513,0.06716557024600339
11.546021268793545,-0.06214566650542888
11.57939127246058,-0.18288445398739273
11.612761276127612,-0.2872957384289234
11.646131279794645,-0.3712363536566456
11.67950128346168,-0.4402802291136353
11.712871287128712,-0.5103470075909772
11.746241290795746,-0.5996255498288013
11.779611294462779,-0.7148423967487383
11.812981298129813,-0.840077569282363
11.846351301796846,-0.9365662399984799
11.87972130546388,-0.9564724971240518
11.913091309130913,-0.8653862089095496
11.946461312797945,-0.6622126792988744
11.97983131646498,-0.38518314055262376
12.013201320132012,-0.09939598418936887
12.046571323799046,0.1289410913748132
12.079941327466079,0.2591597611058867
12.113311331133113,0.2907975954509183
12.146681334800146,0.25992290533154855
12.18005133846718,0.22028251102697294
12.213421342134213,0.2194368826899453
12.246791345801245,0.28095060037103137
12.28016134946828,0.3989138652413797
12.313531353135312,0.5442098771906126
12.346901356802347,0.6771518873034429
12.38027136046938,0.7604043562320031
12.413641364136414,0.7685290946269671
12.447011367803446,0.693414888146112
12.48038137147048,0.5461072690754085
12.513751375137513,0.3549905623231507
12.547121378804546,0.15951376536083056
12.58049138247158,-0.0005253708245681963
12.613861386138613,-0.09755022082642453
12.647231389805647,-0.1255773209281107
12.68060139347268,-0.10145007896442995
12.713971397139714,-0.05654705635840038
12.747341400806746,-0.022736396253531705
12.78071140447378,-0.019684693778857332
12.814081408140813,-0.049707351116414264
12.847451411807846,-0.10167833900253338
12.88082141547488,-0.16024266767417358
12.914191419141913,-0.21413917662262402
12.947561422808947,-0.2591327451052931
12.98093142647598,-0.29528973898468536
13.014301430143014,-0.3220394950055796
13.047671433810047,-0.33533838639338304
13.081041437477081,-0.3291529653900668
13.114411441144114,-0.30018270425450755
13.147781444811146,-0.2524835853787158
13.18115144847818,-0.1986417815073156
13.214521452145213,-0.1560575872548382
13.247891455812248,-0.139456258319159
13.28126145947928,-0.15270643241931903
13.314631463146315,-0.18375681563801424
13.348001466813347,-0.2058327443786927
13.381371470480381,-0.18598169119843844
13.414741474147414,-0.09892109660405045
13.448111477814447,0.05907520875726314
13.481481481481481,0.2630780929114733
13.514851485148514,0.4643128594199976
13.548221488815548,0.6069101780126063
13.58159149248258,0.6502967739595719
13.614961496149615,0.586925164399292
13.648331499816647,0.44621166486497654
13.681701503483682,0.28188291162288187
13.715071507150714,0.14822967020347028
13.748441510817747,0.07648487101936387
13.781811514484781,0.06253215086257097
13.815181518151814,0.07146538990489154
13.848551521818848,0.0562304869511133
13.88192152548588,-0.019046458765640973
13.915291529152915,-0.16220730312506615
13.948661532819948,-0.3501258478724135
13.982031536486982,-0.5399812037475697
14.015401540154015,-0.6881099434191217
14.048771543821047,-0.766560359126874
14.082141547488082,-0.7694952198405997
14.115511551155114,-0.7077199632136218
14.148881554822148,-0.5963942056609908
14.182251558489181,-0.44450130786754827
14.215621562156215,-0.25286834797768276
14.248991565823248,-0.021628325274099275
14.282361569490282,0.23829994744045122
14.315731573157315,0.49799906588980375
14.349101576824348,0.7136626003147948
14.382471580491382,0.840226075191367
14.415841584158414,0.8496820259401374
14.449211587825449,0.7453045457287899
14.482581591492481,0.5645432802553643
14.515951595159516,0.3683811643465391
14.549321598826548,0.22094769173575293
14.582691602493583,0.1673663444192561
14.616061606160615,0.21840641993521887
14.649431609827648,0.3474294300131747
14.682801613494682,0.4999656527409426
14.716171617161715,0.6114809987539576
14.749541620828749,0.6265647831598429
14.782911624495782,0.5135459093020392
14.816281628162816,0.27145530318119865
14.849651631829849,-0.07061021737945833
14.883021635496883,-0.4599147292141025
14.916391639163916,-0.8304539922621021
14.94976164283095,-1.116087435534846
14.983131646497982,-1.2652084085263113
15.016501650165015,-1.2544378245680794
15.04987165383205,-1.097174545915742
15.083241657499082,-0.8425702593763192
15.116611661166116,-0.5628529691216589
15.149981664833149,-0.33147473108354236
15.183351668500183,-0.19916545679729628
15.216721672167216,-0.17697872624520164
15.25009167583425,-0.2333316818645253
15.283461679501283,-0.30657313995145
15.316831683168315,-0.32830927115546416
15.35020168683535,-0.2485234874445687
15.383571690502382,-0.05322036079558228
15.416941694169417,0.23128682398261344
15.45031169783645,0.5480488508765246
15.483681701503484,0.8288567528744004
15.517051705170516,1.0162648207179845
15.55042170883755,1.0809605170756507
15.583791712504583,1.0290994684824606
15.617161716171616,0.8975489788468203
15.65053171983865,0.7388712530570578
15.683901723505683,0.6013479844960968
15.717271727172717,0.5112870533709787
15.75064173083975,0.464336427120051
15.784011734506784,0.42936949374255445
15.817381738173816,0.3636229558115621
15.85075174184085,0.23305997784200289
15.884121745507883,0.02951265678828098
15.917491749174916,-0.22270877128186778
15.95086175284195,-0.47372492750277034
15.984231756508983,-0.6658689800318275
16.017601760176017,-0.7552401271641923
16.05097176384305,-0.7284953414719226
16.084341767510082,-0.6083811826167999
16.117711771177117,-0.4460231741245363
16.15108177484415,-0.30309992938318997
16.184451778511182,-0.23072095956730637
16.217821782178216,-0.2527264866282149
16.25119178584525,-0.3590300297463924
16.284561789512285,-0.5105605831508444
16.317931793179316,-0.6531023994359868
16.35130179684635,-0.734557021779782
16.384671800513384,-0.7197264660208308
16.41804180418042,-0.5984249371206914
16.45141180784745,-0.3855553748280262
16.484781811514484,-0.11450499039775042
16.51815181518152,0.17307944832962957
16.55152181884855,0.4376846137129753
16.584891822515583,0.6497316542262352
16.618261826182618,0.7932930939297675
16.651631829849652,0.8655970229331083
16.685001833516683,0.8733684222155417
16.718371837183717,0.827906009240749
16.75174184085075,0.7410919118993973
16.785111844517782,0.6239518091622472
16.818481848184817,0.4878435778867833
16.85185185185185,0.3464775780536733
16.885221855518886,0.21602199790016027
16.918591859185916,0.11156168854566287
16.95196186285295,0.04092185654523904
16.985331866519985,-0.0004032723680989025
17.01870187018702,-0.028943583076316757
17.05207187385405,-0.06589413500843323
17.085441877521085,-0.12550258330883335
17.11881188118812,-0.2055256845230224
17.15218188485515,-0.2860979989412419
17.185551888522184,-0.3393170073010074
17.21892189218922,-0.3457094680697761
17.252291895856253,-0.30898216147809776
17.285661899523284,-0.2601139561447725
17.319031903190318,-0.24662947247599298
