Time (s),Filtered Signal
0.0,-0.0031547993116610475
0.03337028824833703,-0.13730247493014772
0.06674057649667406,-0.2440226528113568
0.10011086474501109,-0.31241359465027985
0.13348115299334812,-0.3553296269365485
0.16685144124168516,-0.4034614540339459
0.20022172949002218,-0.48898464104627
0.2335920177383592,-0.6269949406601016
0.26696230598669624,-0.8040108009167078
0.3003325942350333,-0.979297448515294
0.3337028824833703,-1.0986644549035265
0.3670731707317073,-1.1147518626489117
0.40044345898004435,-1.0051934881533435
0.4338137472283814,-0.7813676532854287
0.4671840354767184,-0.4847732128719084
0.5005543237250555,-0.17320972430047107
0.5339246119733925,0.09738586836435739
0.5672949002217295,0.28870476610073476
0.6006651884700666,0.38850240716874807
0.6340354767184035,0.41006755089018787
0.6674057649667406,0.3842783073537697
0.7007760532150776,0.34774249742911123
0.7341463414634146,0.3309428019740601
0.7675166297117517,0.3496409362742623
0.8008869179600887,0.4016061777811124
0.8342572062084257,0.4692788914808619
0.8676274944567628,0.5272848864091926
0.9009977827050998,0.552042993319393
0.9343680709534368,0.5298023696282063
0.9677383592017739,0.46010519121315807
1.001108647450111,0.35390104804993333
1.0344789356984478,0.22817692033276993
1.067849223946785,0.10034635861039631
1.101219512195122,-0.015106996329084662
1.134589800443459,-0.10742244568761491
1.167960088691796,-0.16937102244896238
1.2013303769401331,-0.19785698796764695
1.23470066518847,-0.19561506714450147
1.268070953436807,-0.17249035192063755
1.3014412416851442,-0.14417461629695727
1.3348115299334813,-0.12746172827043928
1.3681818181818182,-0.13334881792575126
1.4015521064301553,-0.16115869059540106
1.4349223946784924,-0.19704089681780426
1.4682926829268292,-0.2184589755233576
1.5016629711751663,-0.2034183810627728
1.5350332594235034,-0.14067564150250386
1.5684035476718403,-0.03630300618121785
1.6017738359201774,0.08670880268497293
1.6351441241685145,0.19616086388308998
1.6685144124168514,0.26271917129647937
1.7018847006651885,0.27128292505137047
1.7352549889135256,0.22667626028017618
1.7686252771618625,0.15106893770971164
1.8019955654101996,0.07420998695877667
1.8353658536585367,0.02086838254687259
1.8687361419068735,0.0011876968109963124
1.9021064301552106,0.008221595791605758
1.9354767184035477,0.023347370861967053
1.9688470066518848,0.02636456546334544
2.002217294900222,0.004948996946549861
2.035587583148559,-0.041103681780229405
2.0689578713968957,-0.10224537664598797
2.102328159645233,-0.16586260547215825
2.13569844789357,-0.22289500210114319
2.1690687361419068,-0.27059150478901706
2.202439024390244,-0.31035577043211715
2.235809312638581,-0.3427549232430869
2.269179600886918,-0.3633907006441378
2.302549889135255,-0.3626091714806921
2.335920177383592,-0.32955114724103896
2.369290465631929,-0.2583849998321796
2.4026607538802662,-0.15325748892955024
2.436031042128603,-0.029189748940886943
2.46940133037694,0.09170661952140007
2.5027716186252773,0.187031441537583
2.536141906873614,0.24107100792616143
2.569512195121951,0.24943574152963233
2.6028824833702884,0.22014524137581618
2.6362527716186253,0.17124433638631517
2.6696230598669626,0.1257632417207095
2.7029933481152995,0.10512894934149367
2.7363636363636363,0.12245059112491065
2.7697339246119737,0.17755896546269237
2.8031042128603105,0.2558178973094122
2.8364745011086474,0.3319302825963276
2.8698447893569847,0.37815680398062146
2.9032150776053216,0.3742798828074673
2.9365853658536585,0.3154221497899748
2.969955654101996,0.214295539390678
3.0033259423503327,0.09659941204400639
3.0366962305986696,-0.00878599786554627
3.070066518847007,-0.08079672786982763
3.1034368070953438,-0.11371043274905561
3.1368070953436806,-0.11799942582538235
3.170177383592018,-0.11426132345147963
3.203547671840355,-0.12304607564550306
3.2369179600886917,-0.15514583843472524
3.270288248337029,-0.20655958799843044
3.303658536585366,-0.26013284717634133
3.337028824833703,-0.29290167392204913
3.37039911308204,-0.28580713892688436
3.403769401330377,-0.23167486548371502
3.437139689578714,-0.13836744204898685
3.470509977827051,-0.026217815610044135
3.503880266075388,0.07880950258190118
3.537250554323725,0.1533057977491083
3.5706208425720622,0.18292895682825913
3.603991130820399,0.165328963395721
3.637361419068736,0.1092395875893324
3.6707317073170733,0.0308869378078277
3.70410199556541,-0.05054720464933483
3.737472283813747,-0.11698062418506384
3.7708425720620844,-0.15441400656913665
3.8042128603104213,-0.154987210622508
3.8375831485587586,-0.1183895018712969
3.8709534368070955,-0.052440027878938145
3.9043237250554323,0.027870349487895123
3.9376940133037697,0.10349681346216315
3.9710643015521065,0.15631727235598897
4.004434589800444,0.17441834107560852
4.037804878048781,0.15549149716531707
4.071175166297118,0.10673928632526077
4.1045454545454545,0.041347548104698206
4.137915742793791,-0.026690608135571444
4.171286031042128,-0.08690998787724497
4.204656319290466,-0.13412544620532119
4.238026607538803,-0.16751041262899297
4.27139689578714,-0.18836205786012056
4.304767184035477,-0.19827328294521132
4.3381374722838135,-0.19861105271266574
4.371507760532151,-0.19092382311002157
4.404878048780488,-0.1771607258114103
4.438248337028825,-0.15891849398413738
4.471618625277162,-0.13602801917520332
4.504988913525499,-0.10572438282152104
4.538359201773836,-0.06357152772565694
4.571729490022173,-0.006147558337349697
4.60509977827051,0.06596424497020548
4.638470066518847,0.14694498717804158
4.671840354767184,0.2274613502538198
4.705210643015521,0.29860414905775845
4.738580931263858,0.3556503604747991
4.771951219512196,0.39914336499441405
4.8053215077605325,0.43246633529694656
4.838691796008869,0.4574697795244222
4.872062084257206,0.47113263829423313
4.905432372505543,0.4656607722038371
4.93880266075388,0.4322301485306903
4.972172949002218,0.36623545972424154
5.005543237250555,0.2709177631068218
5.0389135254988915,0.15717556153844264
5.072283813747228,0.03955405196349545
5.105654101995565,-0.06949656925479757
5.139024390243902,-0.16417170006435972
5.17239467849224,-0.24651126937966922
5.205764966740577,-0.3238518752095106
5.239135254988914,-0.40388311222843615
5.2725055432372505,-0.489575898018691
5.305875831485587,-0.5761088577010024
5.339246119733925,-0.6509956118828202
5.372616407982262,-0.6973797640988586
5.405986696230599,-0.6993350478815618
5.439356984478936,-0.647304922883629
5.472727272727273,-0.541765441903891
5.5060975609756095,-0.39385423518182366
5.539467849223947,-0.2228545567744297
5.572838137472284,-0.051579642314261785
5.606208425720621,0.09864809075727755
5.639578713968958,0.21186705278924617
5.672949002217295,0.2794458039932069
5.706319290465632,0.30039647297164174
5.7396895787139695,0.28087096226236785
5.773059866962306,0.23352179694392416
5.806430155210643,0.17664431938085823
5.83980044345898,0.1322415451592358
5.873170731707317,0.12206789396139689
5.906541019955654,0.16163623401011618
5.939911308203992,0.2537523016009623
5.9732815964523285,0.3844237500078989
6.006651884700665,0.5239643917407426
6.040022172949002,0.6343724225962462
6.073392461197339,0.6812038644207201
6.106762749445676,0.6456000345404289
6.140133037694014,0.5313496731810239
6.173503325942351,0.363567150675836
6.2068736141906875,0.17915013384251183
6.240243902439024,0.012958699348708176
6.273614190687361,-0.11428787238316913
6.306984478935698,-0.2011872177419933
6.340354767184036,-0.26199926139771
6.373725055432373,-0.31645469908152374
6.40709534368071,-0.3783018646113675
6.4404656319290465,-0.44813622153319216
6.473835920177383,-0.5135440789605852
6.507206208425721,-0.5557284031036837
6.540576496674058,-0.5586956981712818
6.573946784922395,-0.5163354448101919
6.607317073170732,-0.4344373708124961
6.640687361419069,-0.3276106593780555
6.674057649667406,-0.21346439589160632
6.707427937915743,-0.10713052745535287
6.74079822616408,-0.018227535842739884
6.774168514412417,0.049424294974809414
6.807538802660754,0.09644806406926668
6.840909090909091,0.126350843197325
6.874279379157428,0.14447903733839784
6.9076496674057655,0.1571881763495965
6.941019955654102,0.17048533171367786
6.974390243902439,0.18793421371759222
7.007760532150776,0.2086943751321723
7.041130820399113,0.227232978945607
7.07450110864745,0.2357540447357883
7.107871396895788,0.22884795835230962
7.1412416851441245,0.20821185235359266
7.174611973392461,0.18462727578791313
7.207982261640798,0.1752338164658924
7.241352549889135,0.19619802078514476
7.274722838137472,0.25324489477280177
7.30809312638581,0.33414738924899245
7.341463414634147,0.40734564528473993
7.3748337028824835,0.429080380591374
7.40820399113082,0.3581471246152609
7.441574279379157,0.17371163055483352
7.474944567627494,-0.11085032888400802
7.508314855875832,-0.4449585003541869
7.541685144124169,-0.7521695952740873
7.575055432372506,-0.9536226695008749
7.6084257206208425,-0.9955459902835778
7.641796008869179,-0.8697177554060456
7.675166297117517,-0.61750898382171
7.708536585365854,-0.31463835699634707
7.741906873614191,-0.042425052011866485
7.775277161862528,0.1421097803811476
7.808647450110865,0.22414841720161052
7.842017738359202,0.22962904034502024
7.875388026607539,0.20657288258415574
7.908758314855876,0.19943322844439018
7.942128603104213,0.2291861694514188
7.97549889135255,0.28774484158480246
8.008869179600888,0.34727941509111954
8.042239467849225,0.3777478820475586
8.075609756097561,0.3630126473272761
8.108980044345898,0.3081154709455071
8.142350332594235,0.23559219363557274
8.175720620842572,0.17396232524169453
8.209090909090909,0.1443562573020457
8.242461197339246,0.15106102278541267
8.275831485587583,0.17945835023193565
8.30920177383592,0.20174775114481056
8.342572062084257,0.1880577028043573
8.375942350332595,0.11871819596568163
8.409312638580932,-0.006940619809997914
8.442682926829269,-0.16866425347670966
8.476053215077606,-0.3310570001567204
8.509423503325943,-0.45496313868527005
8.54279379157428,-0.5102521281676393
8.576164079822616,-0.48543700064549916
8.609534368070953,-0.3909248742684616
8.64290465631929,-0.2551125162832232
8.676274944567627,-0.11499939224205818
8.709645232815964,-0.004670338773079634
8.743015521064303,0.05451948784790265
8.77638580931264,0.0589798324384524
8.809756097560976,0.021801097880293364
8.843126385809313,-0.033599290612270495
8.87649667405765,-0.08239689521708894
8.909866962305987,-0.10641854285959305
8.943237250554324,-0.0986392163310678
8.97660753880266,-0.0631647240888945
9.009977827050998,-0.011551982694377
9.043348115299334,0.042653998976321765
9.076718403547671,0.08921711596180107
9.110088691796008,0.12484340426235939
9.143458980044347,0.15412559350012994
9.176829268292684,0.18722544683435532
9.21019955654102,0.23452950004130738
9.243569844789358,0.2998764082424437
9.276940133037694,0.37531685889836147
9.310310421286031,0.4405985286338045
9.343680709534368,0.46889847852047956
9.377050997782705,0.43724285354943376
9.410421286031042,0.3372457663983431
9.443791574279379,0.181042052411992
9.477161862527716,-0.0008202645653846471
9.510532150776053,-0.16919869814626246
9.543902439024391,-0.2901547876453113
9.577272727272728,-0.3472989295789003
9.610643015521065,-0.3477847627646465
9.644013303769402,-0.31941300044603704
9.677383592017739,-0.29955952088496307
9.710753880266076,-0.3197529168076433
9.744124168514412,-0.3916879512436987
9.77749445676275,-0.5004328912908548
9.810864745011086,-0.6082063467472953
9.844235033259423,-0.6679111613099445
9.87760532150776,-0.6412375943735303
9.910975609756099,-0.5137385961087384
9.944345898004435,-0.30035732699278633
9.977716186252772,-0.039237617446814387
10.01108647450111,0.2228443736875826
10.044456762749446,0.4463588665331414
10.077827050997783,0.6091960588482518
10.11119733924612,0.7077707067668924
10.144567627494457,0.7506775947139853
10.177937915742794,0.7499232772154564
10.21130820399113,0.7148435260005007
10.244678492239467,0.650992769420223
10.278048780487804,0.5626915524969992
10.311419068736143,0.455885119047909
10.34478935698448,0.3385511258383911
10.378159645232817,0.2183204298358484
10.411529933481154,0.09933792088537251
10.44490022172949,-0.01897093316872489
10.478270509977827,-0.13996690555609764
10.511640798226164,-0.26573171585360417
10.545011086474501,-0.3933634907346292
10.578381374722838,-0.5137397143278719
10.611751662971175,-0.6130836524799317
10.645121951219512,-0.6760306571887663
10.67849223946785,-0.688659104322846
10.711862527716187,-0.6410511723685405
10.745232815964524,-0.5300346862715115
10.778603104212861,-0.36249538495365
10.811973392461198,-0.1580694442778595
10.845343680709535,0.051359312360533316
10.878713968957872,0.22744858787047897
10.912084257206208,0.3359531818215808
10.945454545454545,0.35834553624949417
10.978824833702882,0.2992697557880416
11.012195121951219,0.18593436041175843
11.045565410199556,0.05911953868202832
11.078935698447895,-0.04069239238501096
11.112305986696231,-0.08645888843208316
11.145676274944568,-0.07193290848202949
11.179046563192905,-0.010868675440018396
11.212416851441242,0.07084419355519997
11.245787139689579,0.1463565199036276
11.279157427937916,0.19763535830435539
11.312527716186253,0.2201079239140736
11.34589800443459,0.22082788925699032
11.379268292682926,0.21164155840454
11.412638580931263,0.20099315841989662
11.4460088691796,0.18861026365973826
11.479379157427939,0.16596390329528807
11.512749445676276,0.1224787080397531
11.546119733924613,0.05418620189378111
11.57949002217295,-0.030408181440228034
11.612860310421286,-0.11161408220238893
11.646230598669623,-0.16762844755242176
11.67960088691796,-0.18713273701806624
11.712971175166297,-0.17805223124760916
11.746341463414634,-0.16615680635753174
11.77971175166297,-0.18241663435532132
11.813082039911308,-0.2447434396309779
11.846452328159646,-0.343923453548328
11.879822616407983,-0.4423458873291007
11.91319290465632,-0.4878225560303224
11.946563192904657,-0.436759411236732
11.979933481152994,-0.27568460498370795
12.01330376940133,-0.03060058352223403
12.046674057649668,0.2405032163615363
12.080044345898004,0.46861653150946797
12.113414634146341,0.5988040570177192
12.146784922394678,0.6088949573969875
12.180155210643015,0.5148771873249047
12.213525498891352,0.3622508824700463
12.24689578713969,0.2081157112101356
12.280266075388028,0.10145788682493986
12.313636363636364,0.06849761438548867
12.347006651884701,0.10706517690486572
12.380376940133038,0.1903842158794617
12.413747228381375,0.27769648355480764
12.447117516629712,0.32758613987945423
12.480487804878049,0.30979688201171135
12.513858093126386,0.212515951757991
12.547228381374723,0.04397047047768863
12.58059866962306,-0.1709753080525377
12.613968957871396,-0.3973647707491702
12.647339246119735,-0.5977707434244711
12.680709534368072,-0.7394631373604031
12.714079822616409,-0.8002866008021134
12.747450110864746,-0.7727267830223226
12.780820399113082,-0.6654946675030056
12.81419068736142,-0.5018149032631166
12.847560975609756,-0.31407735146227844
12.880931263858093,-0.1357359516494866
12.91430155210643,0.007276117340465086
12.947671840354767,0.10272716770781216
12.981042128603104,0.1536786809355142
13.014412416851442,0.17508254692532702
13.04778270509978,0.18693856437117867
13.081152993348116,0.2067364879725596
13.114523281596453,0.24382543803451903
13.14789356984479,0.29727606920484195
13.181263858093127,0.3574104141303541
13.214634146341464,0.41006308986903595
13.2480044345898,0.4420007652287663
13.281374722838137,0.4456875711035139
13.314745011086474,0.42172767938608224
13.348115299334811,0.3779994675329005
13.381485587583148,0.3257655122309043
13.414855875831487,0.27448045516589514
13.448226164079824,0.22779640455427785
13.48159645232816,0.18271992758511615
13.514966740576497,0.13214148924006866
13.548337028824834,0.06905091668935724
13.581707317073171,-0.010080919318401861
13.615077605321508,-0.10445733537687268
13.648447893569845,-0.21044380652223413
13.681818181818182,-0.3235243091204564
13.715188470066519,-0.4386313414245124
13.748558758314855,-0.5481564774056209
13.781929046563192,-0.6390691816165738
13.815299334811531,-0.6919806475601611
13.848669623059868,-0.6846076146842416
13.882039911308205,-0.5998316669471466
13.915410199556542,-0.4354671107492042
13.948780487804878,-0.210729386265821
13.982150776053215,0.03516579487714576
14.015521064301552,0.2535083320345141
14.048891352549889,0.40218509229121957
14.082261640798226,0.4603546973633858
14.115631929046563,0.4347904423985703
14.1490022172949,0.35491480827879285
14.182372505543238,0.2592268819453257
14.215742793791575,0.17997982316406638
14.249113082039912,0.1332495000235284
14.282483370288249,0.1179773751947875
14.315853658536586,0.12248549792811353
14.349223946784923,0.13339490495795286
14.38259423503326,0.1416818998071229
14.415964523281596,0.14343145265616045
14.449334811529933,0.13661901661466627
14.48270509977827,0.11761218751519804
14.516075388026607,0.08076783507745834
14.549445676274944,0.02191651888383871
14.582815964523283,-0.05659612879080215
14.61618625277162,-0.14324427870375822
14.649556541019956,-0.21986600127544348
14.682926829268293,-0.26896963792935225
14.71629711751663,-0.2819811692753459
14.749667405764967,-0.2635074867647336
14.783037694013304,-0.2288172482558524
14.81640798226164,-0.19583166956406928
14.849778270509978,-0.17626659422479152
14.883148558758315,-0.1709249736112359
14.916518847006651,-0.17131267799722216
14.949889135254988,-0.16572574696052758
14.983259423503327,-0.14546870291496194
15.016629711751664,-0.10747031537255493
15.05,-0.05260927845583183
15.083370288248338,0.017759512833576442
15.116740576496674,0.10352838757536795
15.150110864745011,0.2039400401670087
15.183481152993348,0.31327958308438586
15.216851441241685,0.41760591922526497
15.250221729490022,0.49582223968615907
15.283592017738359,0.5259428770456649
15.316962305986696,0.4942302993539496
15.350332594235034,0.40287479111011193
15.383702882483371,0.27220092859553113
15.417073170731708,0.13578843874571914
15.450443458980045,0.0300752087654471
15.483813747228382,-0.017636748777217943
15.517184035476719,0.0016381530875761582
15.550554323725056,0.07523239602622303
15.583924611973393,0.1720094662295753
15.61729490022173,0.2506225281285829
15.650665188470066,0.2703136472000614
15.684035476718403,0.20168681931278715
15.71740576496674,0.03532982035782134
15.750776053215079,-0.21349539077652527
15.784146341463416,-0.5056585382222396
15.817516629711752,-0.7854351511732595
15.85088691796009,-0.9937297473106979
15.884257206208426,-1.0844215013651544
15.917627494456763,-1.0388042089105634
15.9509977827051,-0.8724043933667818
15.984368070953437,-0.6303561881372323
16.017738359201775,-0.3718367494215693
16.05110864745011,-0.14910334176160414
16.08447893569845,0.010208256656994095
16.117849223946784,0.10971406380399097
16.151219512195123,0.17689110806208158
16.184589800443458,0.24533961497058984
16.217960088691797,0.33539345693013023
16.251330376940132,0.4425769053903404
16.28470066518847,0.5395284172365109
16.31807095343681,0.5903524138799523
16.351441241685144,0.5701955058931933
16.384811529933483,0.48021743766996433
16.418181818181818,0.3503515655412429
16.451552106430157,0.2282278482192174
16.48492239467849,0.15937168283987177
16.51829268292683,0.1679297856570675
16.551662971175165,0.2467275366967435
16.585033259423504,0.36083422244254093
16.61840354767184,0.4624653471542892
16.651773835920178,0.5101034833960797
16.685144124168513,0.48335852108347394
16.71851441241685,0.3876474417080634
16.75188470066519,0.24778626831537928
16.785254988913525,0.09461139245586993
16.818625277161864,-0.04848776538333526
16.8519955654102,-0.17285431178841404
16.885365853658538,-0.28290541176065437
16.918736141906873,-0.3873799948057543
16.95210643015521,-0.48882841570015173
16.985476718403547,-0.5774152947551658
17.018847006651885,-0.6327964749412951
17.05221729490022,-0.6335969543037131
17.08558758314856,-0.5698772537981367
17.118957871396898,-0.4519638080855043
17.152328159645233,-0.3102688218948807
17.18569844789357,-0.18487291830875033
17.219068736141907,-0.10884670754079805
17.252439024390245,-0.0929727066449849
17.28580931263858,-0.11963650509152983
