Time (s),Filtered Signal
0.0,0.019452052962283382
0.03337000366703337,-0.09100428234661062
0.06674000733406674,-0.23423782811469934
0.1001100110011001,-0.4223751095578493
0.13348001466813347,-0.6370270184884289
0.16685001833516683,-0.8352447169697285
0.2002200220022002,-0.967254937328433
0.2335900256692336,-0.9961738409486821
0.26696002933626695,-0.9100114154389479
0.3003300330033003,-0.7218219613435741
0.33370003667033366,-0.4609490092951466
0.36707004033736707,-0.16244364940834444
0.4004400440044004,0.1392878387894309
0.4338100476714338,0.41136051209075675
0.4671800513384672,0.6214211691528354
0.5005500550055005,0.7398451508480607
0.5339200586725339,0.7472973706827047
0.5672900623395672,0.644772840941594
0.6006600660066006,0.45963823559996364
0.634030069673634,0.24180935650795732
0.6674000733406673,0.04903038404814268
0.7007700770077008,-0.07347953919329792
0.7341400806747341,-0.10976834523536316
0.7675100843417675,-0.07790080520329151
0.8008800880088008,-0.019827019027276974
0.8342500916758342,0.019205809688651033
0.8676200953428675,0.011998869983883487
0.9009900990099009,-0.038620800035187204
0.9343601026769344,-0.10270025833348387
0.9677301063439677,-0.13929778555726094
1.001100110011001,-0.11819678779090353
1.0344701136780343,-0.03732204396774585
1.0678401173450678,0.07194841455843418
1.1012101210121013,0.154399750782145
1.1345801246791345,0.1524810316600601
1.167950128346168,0.03177238313995797
1.2013201320132012,-0.19978609588332827
1.2346901356802347,-0.4876344462490681
1.268060139347268,-0.7447080794923129
1.3014301430143014,-0.8798708508236733
1.3348001466813346,-0.8302510452841491
1.368170150348368,-0.5849965117417307
1.4015401540154016,-0.19135557418539859
1.4349101576824348,0.25882295458385635
1.4682801613494683,0.6566137436286169
1.5016501650165015,0.9075782846367532
1.535020168683535,0.9573650065137846
1.5683901723505682,0.8047800644217298
1.6017601760176017,0.5003564323773289
1.6351301796846351,0.1321478261543219
1.6685001833516684,-0.19740477445660967
1.7018701870187019,-0.39851936370317453
1.735240190685735,-0.4189825143732107
1.7686101943527686,-0.26010450986844796
1.8019801980198018,0.022369470364982186
1.8353502016868353,0.3349947094342128
1.8687202053538687,0.577495829461539
1.902090209020902,0.6776712759020862
1.9354602126879354,0.6166346021462391
1.9688302163549687,0.4329657084572471
2.002200220022002,0.2027665342165571
2.0355702236890356,0.0038890842873250562
2.0689402273560686,-0.11901426619931371
2.102310231023102,-0.17158381929082703
2.1356802346901356,-0.20066248232047224
2.169050238357169,-0.2642747624073731
2.2024202420242025,-0.39691257308432787
2.2357902456912355,-0.5884867849705917
2.269160249358269,-0.7874029321412873
2.3025302530253025,-0.9249810180183254
2.335900256692336,-0.9474448017816808
2.369270260359369,-0.8388524019002066
2.4026402640264024,-0.6245686675007034
2.436010267693436,-0.35603338635406007
2.4693802713604693,-0.08712975814562436
2.502750275027503,0.14469663105769281
2.536120278694536,0.32420430506264586
2.5694902823615693,0.45153640432882797
2.6028602860286028,0.5306628274281412
2.636230289695636,0.5623788731994108
2.6696002933626692,0.546394151863268
2.7029702970297027,0.48966963707420547
2.736340300696736,0.4131682838219745
2.7697103043637696,0.34976118747220414
2.803080308030803,0.33172187679442244
2.836450311697836,0.3734504521440003
2.8698203153648696,0.45932273234640525
2.903190319031903,0.5450995547256876
2.9365603226989365,0.5746530983001054
2.96993032636597,0.5053664089096004
3.003300330033003,0.3300641488762149
3.0366703337000365,0.08397322994115285
3.07004033736707,-0.1679898066107105
3.1034103410341034,-0.3586701377575537
3.1367803447011364,-0.448394048123199
3.17015034836817,-0.44296906476356523
3.2035203520352034,-0.39127316947895424
3.236890355702237,-0.3631548128457576
3.2702603593692703,-0.417260280511177
3.3036303630363033,-0.5726867761702213
3.3370003667033368,-0.7964455929769862
3.3703703703703702,-1.0119794667584294
3.4037403740374037,-1.125632091344236
3.4371103777044367,-1.0613274228097898
3.47048038137147,-0.7908665625735783
3.5038503850385037,-0.348711718222993
3.537220388705537,0.17477794642449707
3.5705903923725706,0.6604144890281125
3.6039603960396036,0.9988934897126518
3.637330399706637,1.1274205369204746
3.6707004033736705,1.050125588453478
3.704070407040704,0.8334876205732941
3.7374404107077375,0.5778100283008764
3.7708104143747705,0.37626710499554594
3.804180418041804,0.27918410334572447
3.8375504217088374,0.2793720183806027
3.870920425375871,0.32461218397409847
3.904290429042904,0.350192674027547
3.9376604327099374,0.3144791447297944
3.971030436376971,0.21926543036539364
4.004400440044004,0.10498782669842306
4.037770443711038,0.024449488678414674
4.071140447378071,0.010154074808355262
4.104510451045105,0.05342882418924816
4.137880454712137,0.10660472649074462
4.171250458379171,0.10662352846158031
4.204620462046204,0.006916041000934926
4.237990465713238,-0.19935398443022875
4.271360469380271,-0.475866639486102
4.304730473047305,-0.7594085376777084
4.338100476714338,-0.9856191850159643
4.3714704803813715,-1.1107427131272922
4.404840484048405,-1.1204152815416466
4.438210487715438,-1.0251023613442287
4.471580491382471,-0.8488241701002694
4.5049504950495045,-0.6193911668619185
4.538320498716538,-0.3645524637308058
4.571690502383571,-0.11265734912885428
4.605060506050605,0.1071398436342988
4.638430509717638,0.26920980830345576
4.671800513384672,0.36003053452943934
4.705170517051705,0.3862068220981233
4.738540520718738,0.3757284139776811
4.771910524385771,0.3692227018375942
4.805280528052805,0.40358622598163335
4.838650531719838,0.49525339040300326
4.872020535386872,0.6314619228716538
4.905390539053905,0.7744169993640092
4.938760542720939,0.8770381006198595
4.972130546387972,0.9032229196036747
5.005500550055006,0.8431796163451863
5.038870553722038,0.716561687278164
5.072240557389072,0.561912129491403
5.105610561056105,0.4175805682893964
5.138980564723139,0.303561238580246
5.172350568390172,0.21333820262287126
5.2057205720572055,0.1197946208434937
5.239090575724239,-0.00798809922539087
5.272460579391272,-0.18585014772696085
5.305830583058306,-0.40338062757674137
5.3392005867253385,-0.6260347687909378
5.372570590392372,-0.8090913613998947
5.405940594059405,-0.9160342418321965
5.439310597726439,-0.9321999973121482
5.472680601393472,-0.8676744939784186
5.506050605060506,-0.7493802336889916
5.539420608727539,-0.607659199766153
5.572790612394573,-0.46466859594715104
5.606160616061606,-0.3299050363000044
5.63953061972864,-0.20368151783993446
5.672900623395672,-0.0850286264904206
5.706270627062706,0.02149329258715237
5.739640630729739,0.10443063772067385
5.773010634396773,0.15045862758276432
5.806380638063806,0.15293717211145827
5.83975064173084,0.11895719010421765
5.873120645397873,0.0703574054071093
5.9064906490649065,0.03719007736078163
5.93986065273194,0.04607089760707666
5.9732306563989725,0.10867861889913842
6.006600660066006,0.21581978988768125
6.0399706637330395,0.33985198375684766
6.073340667400073,0.4443481345039277
6.106710671067106,0.4968202917999675
6.14008067473414,0.4795356719322149
6.173450678401173,0.3949071388961965
6.206820682068207,0.26442231375846925
6.24019068573524,0.12222479575480656
6.273560689402273,0.005575457858259197
6.306930693069306,-0.05537982989353469
6.34030069673634,-0.046308364965714006
6.373670700403373,0.026139577663005672
6.407040704070407,0.13435029484516928
6.44041070773744,0.23584383616049448
6.473780711404474,0.28489165254678256
6.507150715071507,0.24715945611441373
6.540520718738541,0.11310355562601199
6.573890722405573,-0.0948505571967029
6.607260726072607,-0.3251972812152613
6.64063072973964,-0.5111198268749114
6.6740007334066735,-0.5918090761740998
6.707370737073707,-0.534339861333096
6.7407407407407405,-0.3477295710460517
6.774110744407774,-0.08285648491097501
6.807480748074807,0.18291463653717346
6.840850751741841,0.37127329227748457
6.8742207554088735,0.42907174955383004
6.907590759075907,0.34503818706501754
6.94096076274294,0.1511892660932923
6.974330766409974,-0.09046298274677597
7.007700770077007,-0.30959632617733773
7.041070773744041,-0.4490318258467879
7.074440777411074,-0.47899661621329853
7.107810781078108,-0.40127693724260405
7.141180784745141,-0.24428628858803017
7.174550788412174,-0.05225721006055644
7.207920792079207,0.12786881802042255
7.241290795746241,0.25872899074460587
7.274660799413274,0.32130324897548945
7.308030803080308,0.317911147363764
7.341400806747341,0.26835084364736983
7.3747708104143745,0.20025681147431595
7.408140814081408,0.13724912016451413
7.4415108177484415,0.08982758228895413
7.474880821415475,0.05304067948267359
7.5082508250825075,0.011821816860370827
7.541620828749541,-0.048909220230111655
7.5749908324165744,-0.13460280721711
7.608360836083608,-0.23663128385555166
7.641730839750641,-0.3348047752268802
7.675100843417675,-0.4049301002807842
7.708470847084708,-0.4271966153591898
7.741840850751742,-0.3914963266125713
7.775210854418775,-0.2983370744155757
7.808580858085808,-0.15698182601605615
7.841950861752841,0.016269174188028566
7.875320865419875,0.19810673597671224
7.908690869086908,0.3579893895993012
7.942060872753942,0.4611954798466224
7.975430876420975,0.4776864500460743
8.008800880088009,0.39523720119975647
8.042170883755041,0.23069170831242175
8.075540887422076,0.03163041416900826
8.108910891089108,-0.13587509224667427
8.142280894756142,-0.21070535806844384
8.175650898423175,-0.16187792546691224
8.20902090209021,-0.003690334739538491
8.242390905757242,0.2071854809443935
8.275760909424275,0.3925380490771086
8.309130913091309,0.4829149021124476
8.342500916758341,0.44453035535694424
8.375870920425376,0.2915432412954843
8.409240924092408,0.0790914312022618
8.442610927759443,-0.11922844761593611
8.475980931426475,-0.23963559564311623
8.50935093509351,-0.2509441290943999
8.542720938760542,-0.16385707073030947
8.576090942427575,-0.024691066449325498
8.60946094609461,0.10282250965780362
8.642830949761642,0.16053897589034213
8.676200953428676,0.11595593012298054
8.709570957095709,-0.02679696740095266
8.742940960762743,-0.22820811273961678
8.776310964429776,-0.42649636050744644
8.80968096809681,-0.558614385638042
8.843050971763843,-0.582338977830219
8.876420975430875,-0.49166714431411623
8.90979097909791,-0.3194685845311756
8.943160982764942,-0.12566830274811083
8.976530986431976,0.025229991528380957
9.009900990099009,0.08890786660681704
9.043270993766043,0.05838068499389469
9.076640997433076,-0.03388498336595593
9.11001100110011,-0.13039884956495462
9.143381004767143,-0.17398146660753985
9.176751008434175,-0.13305499743751495
9.21012101210121,-0.0152482847883926
9.243491015768242,0.13740695172471076
9.276861019435277,0.26966641348162673
9.31023102310231,0.340224415570281
9.343601026769344,0.34094749634342847
9.376971030436376,0.2981923650512683
9.41034103410341,0.25579110420163237
9.443711037770443,0.24939148773151057
9.477081041437476,0.2865909094391633
9.51045104510451,0.34375278314301305
9.543821048771543,0.38055468053327607
9.577191052438577,0.36306772444347707
9.61056105610561,0.2816498853025298
9.643931059772644,0.1537415659411618
9.677301063439677,0.011233698361308685
9.710671067106711,-0.11860104919916405
9.744041070773743,-0.22628037586782312
9.777411074440776,-0.3195331300274119
9.81078107810781,-0.41033561608674207
9.844151081774843,-0.4989454398454048
9.877521085441877,-0.5661133468131367
9.91089108910891,-0.5792983029198655
9.944261092775944,-0.5098083583897206
9.977631096442977,-0.35101199028360325
10.011001100110011,-0.12712493234720715
10.044371103777044,0.11248438741667224
10.077741107444076,0.3106987924560633
10.11111111111111,0.42336879560239443
10.144481114778143,0.43416073433378877
10.177851118445178,0.35797747161667215
10.21122112211221,0.23287257046539658
10.244591125779245,0.1049391020807871
10.277961129446277,0.012654626215169492
10.311331133113312,-0.02362090409881784
10.344701136780344,-0.004093921095321498
10.378071140447377,0.05544727979937734
10.411441144114411,0.13260480097805613
10.444811147781444,0.20685780392455094
10.478181151448478,0.2641631929391835
10.51155115511551,0.29676388198891274
10.544921158782545,0.2998949199428966
10.578291162449577,0.2685004995990978
10.611661166116612,0.19669074556680055
10.645031169783644,0.08074129125190031
10.678401173450677,-0.07599477640660852
10.711771177117711,-0.25947918998508385
10.745141180784744,-0.4456250330937009
10.778511184451778,-0.6059310235131785
10.81188118811881,-0.7159048360384147
10.845251191785845,-0.7621421613928482
10.878621195452878,-0.7444282817010631
10.911991199119912,-0.6720638617629221
10.945361202786945,-0.5570674648274303
10.978731206453979,-0.408685103911274
11.012101210121012,-0.2325004249565142
11.045471213788044,-0.0341519042100771
11.078841217455079,0.17550325674147993
11.112211221122111,0.3778408575284281
11.145581224789145,0.5487578106721468
11.178951228456178,0.6648859545285127
11.212321232123212,0.7106067017022469
11.245691235790245,0.682746963982471
11.27906123945728,0.5916227925563013
11.312431243124312,0.459043088206841
11.345801246791344,0.31458487658232615
11.379171250458379,0.19079119292929148
11.412541254125411,0.11704948766612736
11.445911257792446,0.11206879343532929
11.479281261459478,0.17634475928477236
11.512651265126513,0.28771074335819713
11.546021268793545,0.40344118979192045
11.57939127246058,0.4705441666669091
11.612761276127612,0.44238827605635733
11.646131279794645,0.2963037228436616
11.67950128346168,0.045141750035685636
11.712871287128712,-0.262902156334242
11.746241290795746,-0.5577845595500645
11.779611294462779,-0.7706068300599906
11.812981298129813,-0.8578215332008153
11.846351301796846,-0.8169549798992795
11.87972130546388,-0.68682109397551
11.913091309130913,-0.5313013213696152
11.946461312797945,-0.4128883156155255
11.97983131646498,-0.3670467614150093
12.013201320132012,-0.3884656699619238
12.046571323799046,-0.43515414480547704
12.079941327466079,-0.44839261582324724
12.113311331133113,-0.3795666743622614
12.146681334800146,-0.21209652706462842
12.18005133846718,0.030847535894371576
12.213421342134213,0.2956772722825927
12.246791345801245,0.520081573634035
12.28016134946828,0.657172918055234
12.313531353135312,0.6915542668415863
12.346901356802347,0.6409836754295076
12.38027136046938,0.5442649075440336
12.413641364136414,0.442264778286736
12.447011367803446,0.36153147312230977
12.48038137147048,0.3077836118583679
12.513751375137513,0.2709043134331132
12.547121378804546,0.23700972070207532
12.58049138247158,0.199783736394215
12.613861386138613,0.16428588057844545
12.647231389805647,0.14128139240339535
12.68060139347268,0.13613903502394972
12.713971397139714,0.1399802079600053
12.747341400806746,0.1296736004012332
12.78071140447378,0.0778746471811622
12.814081408140813,-0.032130965561562363
12.847451411807846,-0.19535721741956263
12.88082141547488,-0.3843919937783479
12.914191419141913,-0.5595167343833042
12.947561422808947,-0.6839864471653163
12.98093142647598,-0.7363649587676415
13.014301430143014,-0.7143792949931512
13.047671433810047,-0.6302542439858417
13.081041437477081,-0.5021932590541337
13.114411441144114,-0.347763955173069
13.147781444811146,-0.18221614269739878
13.18115144847818,-0.02047956202531861
13.214521452145213,0.12117803358057139
13.247891455812248,0.22728654743420768
13.28126145947928,0.28918287027752687
13.314631463146315,0.3112069375497095
13.348001466813347,0.3119552555679278
13.381371470480381,0.3176333354610234
13.414741474147414,0.34931025624559736
13.448111477814447,0.41037535237179984
13.481481481481481,0.4816939069169167
13.514851485148514,0.5285891819894889
13.548221488815548,0.5173636019289942
13.58159149248258,0.4332364928540463
13.614961496149615,0.28994069378747067
13.648331499816647,0.1251311994883622
13.681701503483682,-0.016709142070862968
13.715071507150714,-0.10523254881727438
13.748441510817747,-0.13808753997819212
13.781811514484781,-0.14041773431300458
13.815181518151814,-0.15043453885857094
13.848551521818848,-0.19884152795249857
13.88192152548588,-0.2928145874453794
13.915291529152915,-0.4123368999408817
13.948661532819948,-0.5198880350096886
13.982031536486982,-0.5777540023335171
14.015401540154015,-0.5641139554111653
14.048771543821047,-0.4807499900797278
14.082141547488082,-0.35016473326383873
14.115511551155114,-0.20504072634693649
14.148881554822148,-0.0757244175316825
14.182251558489181,0.019066846791569357
14.215621562156215,0.07578117079718995
14.248991565823248,0.10417872323983592
14.282361569490282,0.12208305041581619
14.315731573157315,0.1488141882832082
14.349101576824348,0.19872631537979676
14.382471580491382,0.2758870059481478
14.415841584158414,0.37113949649590744
14.449211587825449,0.4630138529788242
14.482581591492481,0.5233257938502557
14.515951595159516,0.5265333139235711
14.549321598826548,0.45975937543742385
14.582691602493583,0.3292461423715647
14.616061606160615,0.1599673065120943
14.649431609827648,-0.011956361279317405
14.682801613494682,-0.15099309206642833
14.716171617161715,-0.23309418600261528
14.749541620828749,-0.2513844075758413
14.782911624495782,-0.21509052601221199
14.816281628162816,-0.14347571853365057
14.849651631829849,-0.05855452424786635
14.883021635496883,0.019927402248122963
14.916391639163916,0.07598747310538641
14.94976164283095,0.09680033575328148
14.983131646497982,0.0728060628657562
15.016501650165015,0.00042793821883668087
15.04987165383205,-0.11341563035956401
15.083241657499082,-0.2484120089402399
15.116611661166116,-0.3733190277374831
15.149981664833149,-0.4548869010811803
15.183351668500183,-0.4701018766746824
15.216721672167216,-0.41566862207438904
15.25009167583425,-0.3092911478220697
15.283461679501283,-0.18153388356309283
15.316831683168315,-0.0623263331103552
15.35020168683535,0.03084797478356706
15.383571690502382,0.09723903781468962
15.416941694169417,0.14825065328829226
15.45031169783645,0.1975127882186937
15.483681701503484,0.2514758759152051
15.517051705170516,0.30525111446347947
15.55042170883755,0.3450237835527472
15.583791712504583,0.354994661830188
15.617161716171616,0.3251552148997714
15.65053171983865,0.2565662190617137
15.683901723505683,0.16236809718650033
15.717271727172717,0.06445017626581998
15.75064173083975,-0.013052873805986565
15.784011734506784,-0.05150749212472538
15.817381738173816,-0.044368854865415086
15.85075174184085,-9.552073668610308e-05
15.884121745507883,0.06042267099288948
15.917491749174916,0.11182846392322249
15.95086175284195,0.134823551368133
15.984231756508983,0.12429886069284939
16.017601760176017,0.09033680253337185
16.05097176384305,0.050612712950031245
16.084341767510082,0.017672897610526806
16.117711771177117,-0.011686262848129285
16.15108177484415,-0.057850286364116245
16.184451778511182,-0.14812264040992307
16.217821782178216,-0.2990360290810449
16.25119178584525,-0.5005622566274269
16.284561789512285,-0.7116272376084211
16.317931793179316,-0.8710002166203985
16.35130179684635,-0.919653026985881
16.384671800513384,-0.8245051971427587
16.41804180418042,-0.5925184700777097
16.45141180784745,-0.2688265491928773
16.484781811514484,0.07969681521401631
16.51815181518152,0.38745405734350924
16.55152181884855,0.609571798228998
16.584891822515583,0.730560951482019
16.618261826182618,0.7609793740879427
16.651631829849652,0.7264853937171495
16.685001833516683,0.655959341090111
16.718371837183717,0.5736913022901963
16.75174184085075,0.49675555874580485
16.785111844517782,0.4354244716676833
16.818481848184817,0.39372353204831345
16.85185185185185,0.3688842764695567
16.885221855518886,0.35077001870162305
16.918591859185916,0.32339575957193023
16.95196186285295,0.26968320967462833
16.985331866519985,0.17837279035627657
17.01870187018702,0.05014029841499349
17.05207187385405,-0.10032840748407251
17.085441877521085,-0.2480655732365495
17.11881188118812,-0.3665952907703824
17.15218188485515,-0.4385860202498316
17.185551888522184,-0.4639186468260567
17.21892189218922,-0.4611276525856933
17.252291895856253,-0.46041829748937785
17.285661899523284,-0.49001941021671086
17.319031903190318,-0.5612433677295319
