Frequency (Hz),Amplitude
0.0,1.9260919941714931
0.019867549668874173,1.9251957904773846
0.039735099337748346,1.922508253802371
0.059602649006622516,1.9180326081044394
0.07947019867549669,1.9117742291349757
0.09933774834437085,1.90374064829176
0.11920529801324503,1.8939415582591694
0.13907284768211922,1.8823888206900323
0.15894039735099338,1.8690964762706712
0.17880794701986755,1.8540807576067662
0.1986754966887417,1.8373601054795243
0.2185430463576159,1.81895518915087
0.23841059602649006,1.7988889315492969
0.2582781456953642,1.7771865403496407
0.27814569536423844,1.7538755461792415
0.2980132450331126,1.72898584944781
0.31788079470198677,1.7025497776219967
0.33774834437086093,1.67460215516237
0.3576158940397351,1.645180388830604
0.3774834437086093,1.6143245716822272
0.3973509933774834,1.5820776098177467
0.4172185430463576,1.5484853769132205
0.4370860927152318,1.5135969027441851
0.45695364238410596,1.4774646034229701
0.4768211920529801,1.4401445629787049
0.49668874172185434,1.4016968783383263
0.5165562913907285,1.3621860828657966
0.5364238410596026,1.3216816675806577
0.5562913907284769,1.280258724253365
0.5761589403973509,1.2379987410779296
0.5960264900662252,1.1949905899388986
0.6158940397350993,1.1513317548782396
0.6357615894039735,1.107129864737287
0.6556291390728477,1.0625046095845483
0.6754966887417219,1.017590140731471
0.695364238410596,0.9725380776096891
0.7152317880794702,0.9275212699542561
0.7350993377483444,0.8827384862989073
0.7549668874172186,0.8384202101057764
0.7748344370860927,0.7948357034152421
0.7947019867549668,0.7523014080022077
0.8145695364238411,0.7111905313068554
0.8344370860927152,0.671943205875054
0.8543046357615894,0.6350757744589857
0.8741721854304636,0.601186396668672
0.8940397350993378,0.5709522968177376
0.9139072847682119,0.545112032624809
0.9337748344370861,0.5244255273082685
0.9536423841059603,0.5096076933109631
0.9735099337748344,0.5012405145893177
0.9933774834437087,0.4996821318222941
1.0132450331125828,0.5050019446164612
1.033112582781457,0.5169672410692471
1.0529801324503312,0.5350870461426619
1.0728476821192052,0.5586950637363062
1.0927152317880795,0.5870420763950179
1.1125827814569538,0.6193734383251736
1.1324503311258278,0.6549808678554306
1.1523178807947019,0.6932294098965965
1.1721854304635762,0.7335660568237358
1.1920529801324504,0.7755172221134359
1.2119205298013245,0.8186806724250096
1.2317880794701985,0.862715518498204
1.2516556291390728,0.9073322561121496
1.271523178807947,0.9522837906911864
1.2913907284768211,0.9973577688519513
1.3112582781456954,1.042370226115663
1.3311258278145695,1.0871604200707086
1.3509933774834437,1.1315866717777405
1.370860927152318,1.1755230373885046
1.390728476821192,1.2188566506145948
1.410596026490066,1.2614856014403408
1.4304635761589404,1.3033172410259035
1.4503311258278146,1.3442668245071974
1.4701986754966887,1.3842564216273887
1.4900662251655628,1.4232140399261426
1.5099337748344372,1.461072916993912
1.5298013245033113,1.4977709475814809
1.5496688741721854,1.533250218624958
1.5695364238410596,1.5674566309250668
1.5894039735099337,1.6003395906515716
1.609271523178808,1.6318517573067264
1.6291390728476822,1.6619488374925322
1.6490066225165563,1.690589415954272
1.6688741721854303,1.7177348170490685
1.6887417218543048,1.743348991112492
1.7086092715231789,1.7673984212481193
1.728476821192053,1.789852046902352
1.7483443708609272,1.8106812012582822
1.7682119205298013,1.8298595600215761
1.7880794701986755,1.8473630996078505
1.8079470198675496,1.8631700630953825
1.8278145695364238,1.877260932597135
1.847682119205298,1.889618406944063
1.8675496688741722,1.9002273837695283
1.8874172185430464,1.9090749452496698
1.9072847682119205,1.9161503468937835
1.9271523178807946,1.9214450088975652
1.9470198675496688,1.9249525096753561
1.9668874172185429,1.9266685812776485
1.9867549668874174,1.926591106482032
2.0066225165562916,1.9247201174200819
2.0264900662251657,1.9210577956739279
2.0463576158940397,1.9156084738442145
2.066225165562914,1.908378638660526
2.086092715231788,1.8993769357757748
2.1059602649006623,1.8886141764616098
2.1258278145695364,1.8761033465037051
2.1456953642384105,1.8618596176875388
2.165562913907285,1.8459003623690826
2.185430463576159,1.8282451717453192
2.205298013245033,1.808915878580761
2.2251655629139075,1.7879365853134737
2.2450331125827816,1.7653336986648671
2.2649006622516556,1.7411359721198896
2.2847682119205297,1.7153745579391704
2.3046357615894038,1.68808307072569
2.324503311258278,1.659297665013092
2.3443708609271523,1.6290571298933814
2.364238410596027,1.597403004386437
2.384105960264901,1.5643797181100914
2.403973509933775,1.530034762884456
2.423841059602649,1.4944189022603027
2.443708609271523,1.4575864276781372
2.463576158940397,1.4195954721465762
2.4834437086092715,1.380508395111508
2.5033112582781456,1.3403922557457817
2.52317880794702,1.2993193964484098
2.543046357615894,1.2573681641896213
2.562913907284768,1.2146238048332427
2.5827814569536423,1.1711795751475271
2.6026490066225163,1.127138129386737
2.622516556291391,1.0826132526204406
2.642384105960265,1.0377320318472338
2.662251655629139,0.9926375784490605
2.6821192052980134,0.9474924409226749
2.7019867549668874,0.9024828723185742
2.7218543046357615,0.8578241357211361
2.741721854304636,0.8137670291692872
2.76158940397351,0.77060576076979
2.781456953642384,0.7286871545515269
2.801324503311258,0.6884208321231493
2.821192052980132,0.6502893653907724
2.8410596026490067,0.6148562741241133
2.8609271523178808,0.582768048883627
2.8807947019867552,0.5547443052670598
2.9006622516556293,0.5315486280560475
2.9205298013245033,0.5139336762884781
2.9403973509933774,0.5025604032694206
2.9602649006622515,0.4979036839284407
2.9801324503311255,0.5001703460559238
3.0,0.5092596854932293
3.0198675496688745,0.5247830321060352
3.0397350993377485,0.5461339946734733
3.0596026490066226,0.5725819763687028
3.0794701986754967,0.6033598454171651
3.0993377483443707,0.6377283591006178
3.119205298013245,0.6750137538709607
3.1390728476821192,0.7146234580210331
3.1589403973509933,0.7560474416237732
3.1788079470198674,0.7988517739660592
3.198675496688742,0.8426689135274446
3.218543046357616,0.8871873822230192
3.23841059602649,0.9321421584287566
3.2582781456953644,0.9773063269693276
3.2781456953642385,1.0224840960129213
3.2980132450331126,1.067505087856624
3.3178807947019866,1.112219732484003
3.3377483443708607,1.156495577929299
3.3576158940397347,1.2002143452472527
3.3774834437086096,1.243269580110325
3.3973509933774837,1.285564778917166
3.4172185430463577,1.327011890960629
3.437086092715232,1.367530118349538
3.456953642384106,1.4070449518691914
3.47682119205298,1.4454873941613273
3.4966887417218544,1.4827933320234798
3.5165562913907285,1.5189030277934423
3.5364238410596025,1.55376070615935
3.556291390728477,1.5873142177068345
3.576158940397351,1.6195147643924015
3.596026490066225,1.6503166751621199
3.615894039735099,1.6796772223085141
3.6357615894039736,1.7075564710238853
3.6556291390728477,1.7339171560792497
3.6754966887417218,1.7587245807233836
3.695364238410596,1.7819465338221254
3.7152317880794703,1.8035532219982306
3.7350993377483444,1.8235172141253586
3.754966887417219,1.84181339600831
3.774834437086093,1.858418933469598
3.794701986754967,1.8733132423783556
3.814569536423841,1.8864779644169574
3.834437086092715,1.8978969475945262
3.854304635761589,1.9075562306947569
3.8741721854304636,1.9154440309947864
3.8940397350993377,1.9215507347189211
3.9139072847682117,1.9258688897999545
3.9337748344370858,1.928393200616272
3.9536423841059607,1.9291205244574425
3.9735099337748347,1.928049869548401
3.993377483443709,1.9251823945337774
4.013245033112583,1.920521409393154
4.033112582781457,1.9140723778258426
4.052980132450331,1.905842921213085
4.072847682119205,1.8958428243381464
4.0927152317880795,1.8840840431230501
4.112582781456953,1.8705807147269333
4.132450331125828,1.8553491704485947
4.152317880794702,1.8384079519877872
4.172185430463576,1.8197778317501534
4.19205298013245,1.7994818380352835
4.211920529801325,1.77754528613107
4.231788079470199,1.7539958165595164
4.251655629139073,1.7288634419879985
4.271523178807947,1.7021806046485952
4.291390728476821,1.673982246512192
4.311258278145695,1.6443058949631224
4.33112582781457,1.6131917673406047
4.3509933774834435,1.5806828984875068
4.370860927152318,1.5468252964186255
4.390728476821192,1.5116681324445866
4.410596026490066,1.4752639736365467
4.43046357615894,1.4376690674846677
4.450331125827815,1.3989436911127748
4.470198675496689,1.3591525806213802
4.490066225165563,1.3183654602484582
4.509933774834438,1.2766576963264324
4.529801324503311,1.2341111078125253
4.549668874172186,1.1908149738969656
4.569536423841059,1.1468672903535655
4.589403973509934,1.1023763404570417
4.6092715231788075,1.0574626640133202
4.629139072847682,1.0122615297106057
4.649006622516556,0.9669260414137407
4.66887417218543,0.9216310366532432
4.688741721854305,0.8765779609902409
4.708609271523179,0.8320009150494706
4.728476821192054,0.7881740509815135
4.748344370860927,0.7454204022255808
4.768211920529802,0.7041219942468895
4.788079470198675,0.6647305904438673
4.80794701986755,0.6277775176960644
4.827814569536423,0.5938795304873132
4.847682119205298,0.5637356116157528
4.867549668874172,0.5381074947151844
4.887417218543046,0.5177760954438622
4.9072847682119205,0.5034696967289692
4.927152317880794,0.4957700421275359
4.947019867549669,0.4950175639618397
4.966887417218543,0.5012475162382096
4.986754966887418,0.5141830521987808
5.006622516556291,0.5332882620216827
5.026490066225166,0.5578589956870221
5.04635761589404,0.5871192726549012
5.066225165562914,0.6202989211119978
5.086092715231788,0.6566832042709732
5.105960264900662,0.6956369369015646
5.125827814569536,0.7366105743581612
5.14569536423841,0.7791358253423074
5.1655629139072845,0.8228163798722681
5.185430463576159,0.8673172001328526
5.205298013245033,0.9123542004892904
5.225165562913908,0.9576851195714212
5.245033112582782,1.0031018179109747
5.264900662251656,1.048423953694089
5.28476821192053,1.0934938723236676
5.304635761589404,1.1381725137502399
5.324503311258278,1.1823361496369618
5.344370860927152,1.225873786262976
5.364238410596027,1.2686850967035368
5.3841059602649,1.310678771899181
5.403973509933775,1.3517712027346374
5.4238410596026485,1.3918854237955671
5.443708609271523,1.43095026435282
5.463576158940397,1.468899663881337
5.483443708609272,1.5056721186278461
5.503311258278146,1.5412102329180908
5.52317880794702,1.5754603544786472
5.543046357615895,1.6083722773938682
5.562913907284768,1.6398989997053213
5.582781456953643,1.6699965253069502
5.602649006622516,1.6986237018626686
5.622516556291391,1.7257420881039023
5.642384105960264,1.751315845151866
5.662251655629139,1.7753116475305915
5.682119205298013,1.7976986103493982
5.701986754966887,1.8184482297842004
5.7218543046357615,1.8375343345097819
5.741721854304636,1.8549330461580211
5.7615894039735105,1.8706227472201264
5.781456953642384,1.8845840550917001
5.801324503311259,1.8967998011902816
5.821192052980132,1.9072550142663074
5.841059602649007,1.9159369071881909
5.860927152317881,1.922834866617492
5.880794701986755,1.9279404451050681
5.900662251655629,1.9312473552394316
5.920529801324503,1.932751465566366
5.940397350993377,1.932450798078344
5.960264900662251,1.9303455271452699
5.980132450331126,1.9264379798274056
6.0,1.9207326375785188
6.0198675496688745,1.9132361394154733
6.039735099337749,1.9039572866999868
6.059602649006623,1.8929070497536695
6.079470198675497,1.8800985766086111
6.099337748344371,1.8655472042875336
6.119205298013245,1.8492704731115275
6.139072847682119,1.8312881446545066
6.158940397350993,1.8116222241055542
6.178807947019867,1.7902969879694037
6.198675496688741,1.7673390182383797
6.218543046357616,1.7427772444147842
6.23841059602649,1.716642995062327
6.258278145695365,1.6889700609331608
6.2781456953642385,1.6597947721705077
6.298013245033113,1.6291560926508208
6.317880794701987,1.5970957352314623
6.337748344370861,1.563658302551205
6.357615894039735,1.5288914591400622
6.377483443708609,1.4928461419985763
6.397350993377484,1.4555768185900577
6.417218543046357,1.4171418034640924
6.437086092715232,1.3776036476427524
6.456953642384105,1.3370296186419344
6.47682119205298,1.2954922938182512
6.496688741721854,1.2530702959438054
6.516556291390729,1.2098492079236132
6.5364238410596025,1.1659227138829642
6.556291390728477,1.1213940270610698
6.5761589403973515,1.0763776817058268
6.596026490066225,1.031001787074346
6.6158940397351,0.9854108669930269
6.635761589403973,0.9397694376244542
6.655629139072848,0.8942665065041848
6.675496688741721,0.8491212006802868
6.695364238410596,0.8045897357223569
6.715231788079469,0.7609738898724759
6.735099337748344,0.7186309914858634
6.754966887417219,0.6779850644030797
6.774834437086093,0.6395380526912687
6.794701986754967,0.6038787719662522
6.814569536423841,0.571685278576157
6.8344370860927155,0.5437139251390337
6.854304635761589,0.5207665762878084
6.874172185430464,0.5036287776125151
6.894039735099337,0.49297937607500775
6.913907284768212,0.48928697632685164
6.933774834437086,0.49272410944771344
6.95364238410596,0.5031326575595123
6.973509933774834,0.5200557568211861
6.993377483443709,0.5428220836782681
7.013245033112583,0.5706493254315157
7.033112582781457,0.6027355042855733
7.052980132450331,0.6383220692063375
7.072847682119205,0.6767277689637838
7.0927152317880795,0.7173603373387525
7.112582781456954,0.7597145408566999
7.132450331125828,0.803363415457857
7.152317880794702,0.8479470933584567
7.172185430463576,0.8931616392197351
7.19205298013245,0.9387490145835153
7.211920529801324,0.9844885477731552
7.231788079470198,1.0301899115837718
7.251655629139073,1.0756874486706174
7.271523178807947,1.1208356338658951
7.291390728476822,1.1655054651388697
7.311258278145695,1.2095815991383385
7.33112582781457,1.2529600775641123
7.3509933774834435,1.295546519890141
7.370860927152318,1.3372546834601755
7.390728476821192,1.3780053130456806
7.410596026490066,1.4177252188581884
7.430463576158941,1.4563465353384717
7.450331125827814,1.4938061234560305
7.470198675496689,1.530045087342223
7.490066225165562,1.5650083823535075
7.509933774834438,1.5986444965260105
7.52980132450331,1.6309051911602659
7.549668874172186,1.6617452892159215
7.569536423841059,1.691122502492755
7.589403973509934,1.7189972903743704
7.6092715231788075,1.7453327443272773
7.629139072847682,1.7700944934676002
7.649006622516557,1.7932506273960895
7.66887417218543,1.8147716332108217
7.6887417218543055,1.8346303441751215
7.708609271523178,1.852801897975332
7.728476821192054,1.8692637028740977
7.748344370860927,1.8839954103661851
7.768211920529802,1.896978893191401
7.788079470198675,1.9081982277634457
7.80794701986755,1.9176396802432467
7.827814569536423,1.9252916956283133
7.847682119205298,1.9311448893506933
7.8675496688741715,1.9351920409804169
7.887417218543046,1.9374280897229585
7.907284768211921,1.9378501314801484
7.927152317880795,1.9364574173185323
7.9470198675496695,1.9332513532586388
7.966887417218543,1.9282355013651353
7.986754966887418,1.9214155821846313
8.006622516556291,1.9127994786453273
8.026490066225167,1.9023972416044994
8.046357615894038,1.8902210973068496
8.066225165562914,1.876285457102928
8.086092715231787,1.8606069298737167
8.105960264900663,1.8432043377199643
8.125827814569536,1.8240987356058034
8.14569536423841,1.8033134358018592
8.165562913907285,1.7808740381594417
8.185430463576159,1.7568084674721873
8.205298013245034,1.7311470194556198
8.225165562913906,1.7039224172107594
8.245033112582782,1.6751698804519064
8.264900662251655,1.644927210292064
8.28476821192053,1.6132348930198408
8.304635761589404,1.5801362271039112
8.324503311258278,1.5456774786714893
8.344370860927151,1.5099080719863958
8.364238410596027,1.472880823077901
8.3841059602649,1.4346522267477195
8.403973509933774,1.395282809844475
8.42384105960265,1.3548375671210469
8.443708609271523,1.3133865004137646
8.463576158940398,1.271005287608338
8.483443708609272,1.2277761152781526
8.503311258278146,1.183788718497901
8.52317880794702,1.139141683766203
8.543046357615895,1.0939440869450496
8.562913907284768,1.0483175584212376
8.582781456953642,1.0023988929826155
8.602649006622515,0.9563433523341127
8.62251655629139,0.910328842554731
8.642384105960264,0.8645611828395342
8.66225165562914,0.819280704921096
8.682119205298013,0.774770411524088
8.701986754966887,0.731365831189242
8.721854304635762,0.6894664514092144
8.741721854304636,0.6495480506815944
8.76158940397351,0.6121741772825875
8.781456953642383,0.578003219234275
8.801324503311259,0.5477849497032062
8.821192052980132,0.5223377733705222
8.841059602649008,0.5024972121840867
8.86092715231788,0.48903110941063843
8.880794701986755,0.48253059008727256
8.90066225165563,0.4833047196522212
8.920529801324504,0.4913178303900733
8.940397350993377,0.5061971482026051
8.960264900662251,0.5273071835580989
8.980132450331126,0.5538588624803346
9.0,0.5850152162991065
9.019867549668875,0.6199694923604522
9.039735099337747,0.6579901198493352
9.059602649006623,0.6984387133445645
9.079470198675496,0.7407707508177992
9.099337748344372,0.7845272159458251
9.119205298013245,0.8293227463966109
9.139072847682119,0.8748334055524031
9.158940397350994,0.9207855563687454
9.178807947019868,0.9669463678087584
9.198675496688743,1.013116000733011
9.218543046357615,1.0591213078696309
9.23841059602649,1.1048108131495318
9.258278145695364,1.1500507343494841
9.27814569536424,1.1947218395605022
9.298013245033111,1.2387169626305088
9.317880794701987,1.2819390364530494
9.33774834437086,1.3242995323434403
9.357615894039736,1.3657172179375867
9.37748344370861,1.4061171653737023
9.397350993377483,1.4454299566839564
9.417218543046358,1.4835910451077086
9.437086092715232,1.5205402401489174
9.456953642384107,1.5562212912294844
9.47682119205298,1.5905815502154304
9.496688741721854,1.6235716972851015
9.516556291390728,1.655145517858754
9.536423841059603,1.685259720834961
9.556291390728477,1.713873790351861
9.57615894039735,1.7409498648369113
9.596026490066224,1.7664526383258652
9.6158940397351,1.7903492799942964
9.635761589403973,1.8126093686100502
9.655629139072847,1.8332048392257787
9.675496688741722,1.8521099399215437
9.695364238410596,1.8693011968030022
9.715231788079471,1.8847573857822946
9.735099337748345,1.8984595099310155
9.754966887417218,1.9103907814106584
9.774834437086092,1.9205366071645875
9.794701986754967,1.928884577705349
9.814569536423841,1.935424458457199
9.834437086092716,1.940148183222158
9.854304635761588,1.9430498494314765
9.874172185430464,1.944125714927613
9.894039735099337,1.9433741960967597
9.913907284768213,1.9407958672414753
9.933774834437086,1.9363934611489781
9.95364238410596,1.9301718708755444
9.973509933774835,1.9221381528331294
9.993377483443709,1.912301531332532
10.013245033112582,1.900673404810828
10.033112582781456,1.8872673540513853
10.052980132450331,1.8720991527957744
10.072847682119205,1.8551867812507343
10.09271523178808,1.8365504431150663
10.112582781456952,1.816212586894502
10.132450331125828,1.7941979324441766
10.152317880794701,1.770533503884738
10.172185430463577,1.745248670289391
10.192052980132452,1.7183751958469433
10.211920529801324,1.689947301584885
10.2317880794702,1.6600017412067596
10.251655629139073,1.6285778941842974
10.271523178807948,1.5957178799797591
10.29139072847682,1.5614666981998993
10.311258278145695,1.525872400656409
10.331125827814569,1.488986302800421
10.350993377483444,1.450863243908593
10.370860927152318,1.4115619078520167
10.390728476821192,1.3711452194450098
10.410596026490065,1.3296808354730902
10.43046357615894,1.2872417548306319
10.450331125827816,1.243907079147215
10.470198675496688,1.1997629643488452
10.490066225165563,1.1549038154284972
10.509933774834437,1.1094337920861694
10.529801324503312,1.0634687127754168
10.549668874172186,1.0171384700449735
10.56953642384106,0.9705901016652186
10.589403973509933,0.9239916998443699
10.609271523178808,0.877537382710965
10.629139072847682,0.8314535912279766
10.649006622516556,0.7860069939284514
10.66887417218543,0.7415142450776031
10.688741721854305,0.6983536776329854
