Time (s),Filtered Signal
0.0,-0.04158980543295384
0.033370165745856356,-0.1987592219766292
0.06674033149171271,-0.3270496564520396
0.10011049723756907,-0.4063594826278646
0.13348066298342542,-0.4302101313693854
0.16685082872928178,-0.40557739682249305
0.20022099447513814,-0.3478606234282011
0.2335911602209945,-0.2735543151330823
0.26696132596685085,-0.19408331810772209
0.30033149171270723,-0.1134977174283118
0.33370165745856356,-0.0306566954271785
0.3670718232044199,0.055804509182259425
0.4004419889502763,0.14281967317731728
0.43381215469613266,0.22134095696764952
0.467182320441989,0.27885772529181957
0.5005524861878453,0.3046275371673489
0.5339226519337017,0.29475997581168045
0.5672928176795581,0.25443778813814694
0.6006629834254145,0.19619047417342672
0.6340331491712707,0.13523215486488405
0.6674033149171271,0.08422228291399494
0.7007734806629835,0.04975065037379462
0.7341436464088398,0.03163381497646813
0.7675138121546962,0.02461647658984208
0.8008839779005525,0.021174756158211894
0.8342541436464089,0.014154632118364884
0.8676243093922653,-0.0013660706751077677
0.9009944751381216,-0.026963730444931132
0.934364640883978,-0.06031010593180874
0.9677348066298344,-0.09526620897769002
1.0011049723756906,-0.12303934608261992
1.0344751381215471,-0.13467397754344326
1.0678453038674034,-0.1244373865810274
1.1012154696132597,-0.0927740136074724
1.1345856353591162,-0.047122285192219594
1.1679558011049724,0.0004772250208854294
1.201325966850829,0.038496572007732335
1.2346961325966852,0.06156298766843982
1.2680662983425415,0.07363344742442739
1.301436464088398,0.08651360754539197
1.3348066298342542,0.11376700023241094
1.3681767955801105,0.16262861219274555
1.401546961325967,0.22799434356737772
1.4349171270718233,0.29194240099879004
1.4682872928176796,0.32969370388668734
1.501657458563536,0.31967408405120384
1.5350276243093923,0.2530965865312707
1.5683977900552488,0.13847426752349876
1.601767955801105,-0.0012014346905069103
1.6351381215469614,-0.1373570485088207
1.6685082872928179,-0.24662196724574767
1.7018784530386741,-0.31850590247701843
1.7352486187845306,-0.3566864346504888
1.768618784530387,-0.3739183103343156
1.8019889502762432,-0.38368186201959376
1.8353591160220997,-0.39300243538416246
1.868729281767956,-0.3998346311263257
1.9020994475138122,-0.395745461255803
1.9354696132596687,-0.3718812842943157
1.968839779005525,-0.3247921595905449
2.0022099447513813,-0.25917147572664195
2.0355801104972375,-0.1864418282000375
2.0689502762430942,-0.1202356961740917
2.1023204419889505,-0.0711120779847043
2.135690607734807,-0.04286284692983912
2.169060773480663,-0.031744952362793094
2.2024309392265193,-0.028579767364509265
2.235801104972376,-0.02253419845271704
2.2691712707182323,-0.004917188809008159
2.3025414364640886,0.028443682365547247
2.335911602209945,0.07691096515431316
2.369281767955801,0.13652403964515483
2.402651933701658,0.20219934219806737
2.436022099447514,0.2693993697141487
2.4693922651933704,0.33452840506121984
2.5027624309392267,0.3942289186289716
2.536132596685083,0.4445327965295209
2.5695027624309392,0.4809515849918708
2.602872928176796,0.4999342310981463
2.636243093922652,0.501050986724756
2.6696132596685085,0.4884603037605342
2.7029834254143648,0.4702657274609822
2.736353591160221,0.4553874499420022
2.7697237569060777,0.4490871787431829
2.803093922651934,0.4494412317706383
2.8364640883977903,0.44705880425422667
2.8698342541436466,0.4289304857495522
2.903204419889503,0.38501056178965837
2.936574585635359,0.3141871678079069
2.969944751381216,0.225956123000326
3.003314917127072,0.1359692211530759
3.0366850828729284,0.057025994875079686
3.0700552486187846,-0.00975057935833389
3.103425414364641,-0.07790717706884147
3.1367955801104976,-0.16961688387645008
3.170165745856354,-0.30242307399124924
3.20353591160221,-0.4756609441493605
3.2369060773480665,-0.6653869942891538
3.2702762430939227,-0.8334754541800603
3.3036464088397794,-0.9489543873834125
3.3370165745856357,-1.0112543047644684
3.370386740331492,-1.060834625959056
3.4037569060773483,-1.166312400542549
3.4371270718232045,-1.3885061321471106
3.4704972375690613,-1.7357941021774665
3.5038674033149175,-2.1341611700010987
3.537237569060774,-2.432826027670173
3.57060773480663,-2.4513870445031563
3.6039779005524863,-2.0531587595555476
3.6373480662983426,-1.2128343216261164
3.6707182320441993,-0.0449419397103511
3.7040883977900556,1.224325404298457
3.737458563535912,2.332606450715668
3.770828729281768,3.07160139254955
3.8041988950276244,3.3524463575175387
3.837569060773481,3.2197320957247646
3.8709392265193374,2.8132097568707044
3.9043093922651937,2.3000888076202965
3.93767955801105,1.810994239291395
3.9710497237569062,1.4057354199409762
4.0044198895027625,1.0769932393039208
4.037790055248619,0.7814807877684949
4.071160220994475,0.4780355562751245
4.104530386740332,0.1535561311977023
4.1379005524861885,-0.17235944123176133
4.171270718232044,-0.46120871227811616
4.204640883977901,-0.6769170192439562
4.238011049723757,-0.8026762016867524
4.271381215469614,-0.8460877011683473
4.30475138121547,-0.8326085650644937
4.338121546961326,-0.7928792370814067
4.371491712707183,-0.751119591696554
4.404861878453039,-0.7195282071284297
4.438232044198895,-0.699500069881147
4.471602209944752,-0.686954042454459
4.504972375690608,-0.6777513084641945
4.538342541436465,-0.6702553674694676
4.5717127071823205,-0.6644718820569439
4.605082872928177,-0.6593843327195764
4.638453038674034,-0.6509157628479117
4.67182320441989,-0.6321564962552497
4.7051933701657465,-0.5957921456930888
4.738563535911602,-0.5371902562690533
4.771933701657459,-0.45625217635589493
4.805303867403316,-0.3570265219726972
4.8386740331491715,-0.24552946685810256
4.872044198895028,-0.1272419946069929
4.905414364640884,-0.005747599857443273
4.938784530386741,0.1169260914846997
4.972154696132597,0.2387939242601992
5.005524861878453,0.35634923893889014
5.03889502762431,0.46391365206217944
5.072265193370166,0.5542356536032481
5.105635359116023,0.6200412850503505
5.1390055248618784,0.6559112258139119
5.172375690607735,0.6598459916123267
5.205745856353592,0.6340334376006337
5.239116022099448,0.5845326126429055
5.272486187845304,0.5198347874771768
5.30585635359116,0.44860151316941954
5.339226519337017,0.3772701978242718
5.372596685082874,0.30847343801344457
5.4059668508287295,0.241091012912178
5.439337016574586,0.1721255975367475
5.472707182320442,0.09965087007711508
5.506077348066299,0.025314294429715466
5.5394475138121555,-0.045162629897957635
5.572817679558011,-0.10413391148237597
5.606187845303868,-0.1459846917576983
5.639558011049724,-0.1708154154230932
5.672928176795581,-0.18561135516451663
5.706298342541437,-0.2017923464797187
5.739668508287293,-0.22993399646727036
5.77303867403315,-0.2740712147448399
5.806408839779006,-0.32841629401800276
5.839779005524862,-0.37828060264446617
5.873149171270718,-0.40502138422322287
5.906519337016575,-0.39296664873256165
5.939889502762432,-0.33542217698000354
5.9732596685082875,-0.23737076869277207
6.006629834254144,-0.11397853089505684
6.04,0.014249440772337684
6.073370165745857,0.12763197003366525
6.1067403314917135,0.21251577160605473
6.140110497237569,0.2638850502240706
6.173480662983426,0.2848685139641696
6.206850828729282,0.2837452195855051
6.240220994475139,0.26977580160438824
6.273591160220995,0.24939809202503133
6.306961325966851,0.22407922385999146
6.340331491712708,0.19052581849981082
6.373701657458564,0.14314640734093184
6.40707182320442,0.07781557577018165
6.440441988950277,-0.004618176379167889
6.473812154696133,-0.09670309629609167
6.50718232044199,-0.1856097401188659
6.5405524861878455,-0.2569789328692674
6.573922651933702,-0.2998839363440226
6.607292817679559,-0.3107116344225827
6.640662983425415,-0.29412580834532864
6.674033149171271,-0.2606141604369888
6.707403314917127,-0.22179920968601624
6.740773480662984,-0.1858036068129594
6.774143646408841,-0.1548559721070519
6.8075138121546965,-0.1260440004519503
6.840883977900553,-0.09441053970785147
6.874254143646409,-0.05644650988580367
6.907624309392266,-0.012090868049595362
6.9409944751381225,0.03552917485256158
6.974364640883978,0.08197345000560462
7.007734806629835,0.12353158429569043
7.041104972375691,0.15821385442230582
7.074475138121548,0.18543811557235051
7.107845303867403,0.20510661748378217
7.14121546961326,0.21703241655632416
7.174585635359117,0.22116578634776887
7.207955801104973,0.21827072906971098
7.241325966850829,0.21026083767853299
7.274696132596685,0.19964290051064942
7.308066298342542,0.18822386337142674
7.341436464088399,0.17587033592239912
7.3748066298342545,0.1602095786876952
7.408176795580111,0.1376556638320536
7.441546961325967,0.10536227453261554
7.474917127071824,0.06312208255913715
7.5082872928176805,0.014176029970999744
7.541657458563536,-0.03562011512115944
7.575027624309393,-0.08004539770259034
7.608397790055249,-0.11523023209218661
7.641767955801106,-0.1415386444002015
7.675138121546962,-0.16352106721502646
7.708508287292818,-0.18760303185967753
7.741878453038675,-0.21824926777527032
7.775248618784531,-0.25427715720667615
7.808618784530387,-0.28727610325951347
7.841988950276244,-0.30341205989358133
7.8753591160221,-0.2884003555780631
7.908729281767957,-0.23376027818416367
7.9420994475138125,-0.14152208774560157
7.975469613259669,-0.02499955966285685
8.008839779005525,0.09499161693697993
8.042209944751383,0.1968741103184215
8.075580110497238,0.2649883475152111
8.108950276243094,0.29338325727790604
8.14232044198895,0.28554648523113735
8.175690607734808,0.25098464428894146
8.209060773480664,0.20084952555648386
8.24243093922652,0.1446830116832429
8.275801104972377,0.08915064635387868
8.309171270718233,0.038291584068701194
8.342541436464089,-0.005812877714171224
8.375911602209946,-0.04273526701094281
8.409281767955802,-0.07374441763938178
8.442651933701658,-0.10159349303195898
8.476022099447514,-0.12950990940602528
8.509392265193371,-0.1594377274502544
8.542762430939227,-0.19024899600366446
8.576132596685083,-0.21691815753460472
8.60950276243094,-0.23136248159139589
8.642872928176796,-0.2249339141081253
8.676243093922652,-0.19174397752913033
8.709613259668508,-0.1314874066991104
8.742983425414366,-0.05047176803724525
8.776353591160222,0.03978562762995575
8.809723756906077,0.12598931709398653
8.843093922651935,0.19714600120456005
8.87646408839779,0.24750565980544137
8.909834254143647,0.2770198302012575
8.943204419889504,0.28915098003260964
8.97657458563536,0.28724918734619687
9.009944751381216,0.2715725861248986
9.043314917127072,0.23880951060713926
9.07668508287293,0.18463802533843007
9.110055248618785,0.1080620238592827
9.143425414364641,0.01500504176093059
9.176795580110499,-0.08125434332872485
9.210165745856354,-0.16366632511582502
9.24353591160221,-0.21764492755037318
9.276906077348068,-0.2369410975017487
9.310276243093924,-0.22608935938088517
9.34364640883978,-0.19804077993983882
9.377016574585635,-0.16812080617982458
9.410386740331493,-0.1474017776385772
9.443756906077349,-0.13881855328152856
9.477127071823205,-0.1377261866596418
9.510497237569062,-0.13605718653029936
9.543867403314918,-0.12729781977421725
9.577237569060774,-0.10931574388736318
9.610607734806631,-0.08369214498837804
9.643977900552487,-0.05257072543568986
9.677348066298343,-0.0156256935485138
9.710718232044199,0.03041305248115995
9.744088397790057,0.0890155895092378
9.777458563535912,0.15947340385317013
9.810828729281768,0.23378091864491343
9.844198895027626,0.297220068830076
9.877569060773482,0.33309924668875435
9.910939226519337,0.329676722733484
9.944309392265193,0.2858225067755138
9.97767955801105,0.21233332149883466
10.011049723756907,0.12791999738733997
10.044419889502763,0.05165267566062849
10.07779005524862,-0.004450857379268734
10.111160220994476,-0.0390836021419706
10.144530386740332,-0.059989849349938215
10.17790055248619,-0.07827176289945835
10.211270718232045,-0.10196161239524625
10.244640883977901,-0.13223884411089545
10.278011049723757,-0.16389598599557015
10.311381215469615,-0.1891775272099179
10.34475138121547,-0.20238968757581824
10.378121546961326,-0.20259464109647465
10.411491712707184,-0.1931287530411618
10.44486187845304,-0.17865896039723972
10.478232044198895,-0.1618515635302789
10.511602209944753,-0.1417664713555462
10.544972375690609,-0.11489385630797944
10.578342541436465,-0.07808817300248697
10.61171270718232,-0.03151544861374608
10.645082872928178,0.020240764195269725
10.678453038674034,0.06963076878674024
10.71182320441989,0.10932855686513618
10.745193370165747,0.13533336207256866
10.778563535911603,0.14824908557253974
10.811933701657459,0.15210208640875603
10.845303867403315,0.15148019577364596
10.878674033149172,0.14870394508593218
10.912044198895028,0.1426756785373061
10.945414364640884,0.13006668471135574
10.978784530386742,0.10816038658798253
11.012154696132598,0.07769643251034268
11.045524861878453,0.04396880036603677
11.078895027624311,0.015284418395715487
11.112265193370167,-0.0007156899506737996
11.145635359116023,-0.0011227482391956232
11.179005524861878,0.009967562084527882
11.212375690607736,0.022458345627220804
11.245745856353592,0.024430240567554794
11.279116022099448,0.007697408979877865
11.312486187845305,-0.02795484731600463
11.345856353591161,-0.0740776588462272
11.379226519337017,-0.1169521352274398
11.412596685082875,-0.14354514848545524
11.44596685082873,-0.14715830185593465
11.479337016574586,-0.13002143822669257
11.512707182320442,-0.10162852972514391
11.5460773480663,-0.07377013617142328
11.579447513812156,-0.054844515445152016
11.612817679558011,-0.04629401893662184
11.646187845303869,-0.04281947086466546
11.679558011049725,-0.03604029762730852
11.71292817679558,-0.019544296840266626
11.746298342541436,0.00732000745478474
11.779668508287294,0.038771714799812014
11.81303867403315,0.06523667629776345
11.846408839779006,0.0778382566841376
11.879779005524863,0.07248499152784377
11.91314917127072,0.05167581137931912
11.946519337016575,0.02338019646787502
11.979889502762433,-0.0022560898650898667
12.013259668508288,-0.016765064418505574
12.046629834254144,-0.01614292653843225
12.08,-0.0016392492257908701
12.113370165745858,0.02141625869602977
12.146740331491714,0.04595525471013928
12.18011049723757,0.06560736292680423
12.213480662983427,0.07636658303855191
12.246850828729283,0.07712005863609979
12.280220994475139,0.06919051819224926
12.313591160220996,0.055366708965153756
12.346961325966852,0.03893322863463745
12.380331491712708,0.02301065706123948
12.413701657458564,0.010226857723791801
12.447071823204421,0.0025353668574149054
12.480441988950277,0.0009875795711433602
12.513812154696133,0.0054305386933225465
12.54718232044199,0.014299321917072385
12.580552486187846,0.024741012040404388
12.613922651933702,0.033184230547028036
12.64729281767956,0.03623259971956221
12.680662983425416,0.031568828539005535
12.714033149171271,0.018533265804430876
12.747403314917127,-0.0018011092192149693
12.780773480662985,-0.026999575871822692
12.81414364640884,-0.05385630609634114
12.847513812154697,-0.07896671423100049
12.880883977900554,-0.09917109440316596
12.91425414364641,-0.1119242660253495
12.947624309392266,-0.11572587193805868
12.980994475138122,-0.11066324433676655
13.01436464088398,-0.09889319685806425
13.047734806629835,-0.08466126997611634
13.081104972375691,-0.07344223227758881
13.114475138121549,-0.07013167414229511
13.147845303867404,-0.0768347852032538
13.18121546961326,-0.09131868988654061
13.214585635359118,-0.10717933340319417
13.247955801104974,-0.11605134930418268
13.28132596685083,-0.1110674700446903
13.314696132596685,-0.08991176106271793
13.348066298342543,-0.05580484817921508
13.381436464088399,-0.015732403229753594
13.414806629834255,0.023290543631909782
13.448176795580112,0.05795353461085723
13.481546961325968,0.09025334132385857
13.514917127071824,0.12586521330884376
13.548287292817681,0.16993589241461263
13.581657458563537,0.22251486279569294
13.615027624309393,0.27631068815998017
13.648397790055249,0.3184407810025707
13.681767955801106,0.33573551830578924
13.715138121546962,0.3210468712327755
13.748508287292818,0.27713593005038817
13.781878453038676,0.21574092067046519
13.815248618784532,0.15196433986451166
13.848618784530387,0.09681092029999737
13.881988950276245,0.05196395162615287
13.9153591160221,0.00983667974763958
13.948729281767957,-0.04095445611033577
13.982099447513813,-0.10765437364266967
14.01546961325967,-0.18741825100608095
14.048839779005526,-0.2667506424347409
14.082209944751382,-0.3267754281169764
14.11558011049724,-0.3516189291789233
14.148950276243095,-0.3356115070599933
14.182320441988951,-0.2857879215802166
14.215690607734807,-0.2187061708492206
14.249060773480664,-0.153429192462386
14.28243093922652,-0.1041558057903729
14.315801104972376,-0.07576435214528969
14.349171270718234,-0.06379359870886192
14.38254143646409,-0.05817982648972398
14.415911602209945,-0.04851169951334881
14.449281767955803,-0.02828461779907988
14.482651933701659,0.003436112357430207
14.516022099447515,0.043022000308890126
14.54939226519337,0.08475748630134586
14.582762430939228,0.12315348008588137
14.616132596685084,0.154008695106372
14.64950276243094,0.17422311925812273
14.682872928176797,0.18127502242679602
14.716243093922653,0.17338516956380012
14.749613259668509,0.15064480455985754
14.782983425414367,0.11633750337681659
14.816353591160222,0.07716018227877453
14.849723756906078,0.041531359123478176
14.883093922651934,0.01641830273973476
14.916464088397792,0.004269002953489835
14.949834254143648,0.0018469371205603292
14.983204419889503,0.0018131236198406894
15.016574585635361,-0.003635553606765225
15.049944751381217,-0.01890921858673857
15.083314917127073,-0.04286716228849378
15.116685082872928,-0.06932742115068886
15.150055248618786,-0.08985963264078851
15.183425414364642,-0.09746375908190628
15.216795580110498,-0.08948250738598042
15.250165745856355,-0.06857271838751888
15.283535911602211,-0.04145164332884985
15.316906077348067,-0.016049518482831034
15.350276243093925,0.001681986903569347
15.38364640883978,0.009946023149446153
15.417016574585636,0.011360297585034422
15.450386740331492,0.011269662844440026
15.48375690607735,0.01498679661057244
15.517127071823205,0.025323648060288275
15.550497237569061,0.041572144891314465
15.583867403314919,0.06029691407537633
15.617237569060775,0.07735217350489522
15.65060773480663,0.08994463948343248
15.683977900552488,0.09762842311989119
15.717348066298344,0.10176400761737885
15.7507182320442,0.10383363126555335
15.784088397790056,0.10362921970157384
15.817458563535913,0.09841032773556598
15.85082872928177,0.08364163752263756
15.884198895027625,0.05510822499328929
15.917569060773483,0.011463335479895061
15.950939226519338,-0.04405155458822074
15.984309392265194,-0.10368557519393211
16.01767955801105,-0.15723238381993393
16.051049723756908,-0.1952922818165063
16.084419889502765,-0.21235693174488818
16.11779005524862,-0.20837821535903525
16.151160220994477,-0.18819329802082793
16.18453038674033,-0.15918443280637007
16.21790055248619,-0.12833043201026126
16.251270718232046,-0.09997733550282205
16.2846408839779,-0.0751788878036363
16.318011049723758,-0.05262208519299195
16.351381215469615,-0.030399259048130782
16.38475138121547,-0.007577253820582829
16.418121546961327,0.015240788155061758
16.451491712707185,0.036537362096516014
16.48486187845304,0.05519981682108546
16.518232044198896,0.0716836220980903
16.551602209944754,0.08824742785884837
16.584972375690608,0.10795076020013386
16.618342541436466,0.13273910978289394
16.651712707182323,0.1614851584498981
16.685082872928177,0.1890646091516913
16.718453038674035,0.20725653759262194
16.751823204419892,0.20748899143251084
16.785193370165747,0.1844836655694873
16.818563535911604,0.13917829754583969
16.851933701657458,0.07937186488102954
16.885303867403316,0.017453976596267108
16.918674033149173,-0.034027527924981184
16.952044198895027,-0.0670458076986809
16.985414364640885,-0.0808442912267598
17.018784530386743,-0.08144406865117362
17.052154696132597,-0.07819126036121729
17.085524861878454,-0.07910234947622999
17.118895027624312,-0.08730746536198057
17.152265193370166,-0.10021122886224983
