Time (s),Filtered Signal
0.0,0.04176321862902407
0.03337008452774715,-0.37565322924017464
0.0667401690554943,-0.665755657488848
0.10011025358324147,-0.7436797729790685
0.1334803381109886,-0.5931771296227766
0.16685042263873576,-0.2654632884805461
0.20022050716648293,0.14665608294596263
0.23359059169423008,0.5464513354876301
0.2669606762219772,0.865229597719272
0.30033076074972437,1.07529317059649
0.3337008452774715,1.1814945348490882
0.36707092980521866,1.2005452762161177
0.40044101433296586,1.1428242801068245
0.433811098860713,1.0079547790767713
0.46718118338846015,0.7953463140464312
0.5005512679162073,0.5206501794945099
0.5339213524439544,0.22494505508233337
0.5672914369717016,-0.032192038421727145
0.6006615214994487,-0.19454513351403377
0.6340316060271959,-0.23519985850742656
0.667401690554943,-0.17214354445083202
0.7007717750826902,-0.06377811537124055
0.7341418596104373,0.015032360677451614
0.7675119441381845,0.005425374517123565
0.8008820286659317,-0.11009280079857205
0.8342521131936789,-0.3015152313255455
0.867622197721426,-0.5069564655748094
0.9009922822491732,-0.6619067994207782
0.9343623667769203,-0.7277513457370879
0.9677324513046675,-0.7062279485370345
1.0011025358324146,-0.6339243172982107
1.0344726203601617,-0.5607740414022447
1.0678427048879089,-0.5239505769191327
1.101212789415656,-0.5301860148170838
1.1345828739434032,-0.5548794681620748
1.1679529584711503,-0.5578488146693945
1.2013230429988975,-0.5073174660796149
1.2346931275266446,-0.39960053952549546
1.2680632120543918,-0.2639242992887273
1.301433296582139,-0.14902491751303193
1.334803381109886,-0.09728842072922109
1.3681734656376332,-0.11888302160449618
1.4015435501653803,-0.17929243749151166
1.4349136346931275,-0.20817249822581285
1.4682837192208746,-0.12778035017895376
1.5016538037486218,0.11035394456630372
1.535023888276369,0.4968522531954436
1.568393972804116,0.9581027858258455
1.6017640573318634,1.3771375846402079
1.6351341418596106,1.6347683730673788
1.6685042263873577,1.6543249524216102
1.7018743109151049,1.4308712666038335
1.735244395442852,1.0321026742699837
1.7686144799705992,0.5706551546565459
1.8019845644983463,0.1604447655901304
1.8353546490260935,-0.1234134854410222
1.8687247335538406,-0.2641092881167097
1.9020948180815878,-0.2958071993299332
1.935464902609335,-0.27654555396583147
1.968834987137082,-0.25731686624850153
2.002205071664829,-0.26319540776843314
2.0355751561925763,-0.2937826247013184
2.0689452407203235,-0.3383698235861033
2.1023153252480706,-0.3930479412853808
2.1356854097758178,-0.46717929578520695
2.169055494303565,-0.5747710656366247
2.202425578831312,-0.7171175346623664
2.235795663359059,-0.8697044606057274
2.2691657478868064,-0.9844581710958562
2.3025358324145535,-1.0089587017914392
2.3359059169423007,-0.9130391722318658
2.369276001470048,-0.7073711400690132
2.402646085997795,-0.4421249050233784
2.436016170525542,-0.18480575501852467
2.4693862550532892,0.011588017407751153
2.5027563395810364,0.13306618652270044
2.5361264241087835,0.20858773850076942
2.5694965086365307,0.29143657694201563
2.602866593164278,0.42814442526785573
2.636236677692025,0.6313347312701825
2.669606762219772,0.8701608749331159
2.7029768467475193,1.0823949717781924
2.7363469312752664,1.201286466445595
2.7697170158030135,1.1837690752105092
2.8030871003307607,1.0272312644749664
2.836457184858508,0.7686849310427225
2.869827269386255,0.46877236714848125
2.903197353914002,0.1892390384493637
2.9365674384417493,-0.02628171044350006
2.9699375229694964,-0.16173163559345288
3.0033076074972436,-0.22729538536574356
3.0366776920249907,-0.2505190301008883
3.070047776552738,-0.2645966565528457
3.103417861080485,-0.29757325293649595
3.136787945608232,-0.3644561363952708
3.1701580301359793,-0.4631093497399963
3.203528114663727,-0.5745522642149608
3.236898199191474,-0.6681058891926761
3.270268283719221,-0.7108838182506414
3.3036383682469683,-0.6793745793605139
3.3370084527747155,-0.569222999304842
3.3703785373024626,-0.3990460018424792
3.4037486218302098,-0.20591011973502044
3.437118706357957,-0.03348133101921399
3.470488790885704,0.08273397579852076
3.503858875413451,0.12707017028484174
3.5372289599411983,0.1076274129370397
3.5705990444689455,0.05138570964472048
3.6039691289966926,-0.006572215482435464
3.63733921352444,-0.03467941337139678
3.670709298052187,-0.013029341160573074
3.704079382579934,0.06347687828656241
3.7374494671076812,0.18570476787165446
3.7708195516354284,0.3323620078393274
3.8041896361631755,0.47263161811404275
3.8375597206909227,0.5704974354868775
3.87092980521867,0.5925715247401555
3.904299889746417,0.5192448132341612
3.937669974274164,0.35529226126948366
3.9710400588019112,0.1335797510147403
4.004410143329658,-0.0929120427002212
4.0377802278574055,-0.2696481018031185
4.071150312385153,-0.36167717236766106
4.1045203969129,-0.3663702070460032
4.137890481440647,-0.31063438209170136
4.171260565968394,-0.2343071993872897
4.204630650496141,-0.16956147626347373
4.238000735023888,-0.12809461886124285
4.2713708195516356,-0.10237422535654349
4.304740904079383,-0.07808226967798385
4.33811098860713,-0.04820515122589679
4.371481073134877,-0.01907512037057624
4.404851157662624,-0.004728684162809343
4.438221242190371,-0.013989813941580003
4.471591326718118,-0.039557236225457204
4.504961411245866,-0.05717562272837256
4.538331495773613,-0.0366075042472572
4.57170158030136,0.04143750194024195
4.605071664829107,0.1723970207900494
4.638441749356854,0.32706822770650573
4.671811833884601,0.4640852428004165
4.7051819184123485,0.5488930464695162
4.738552002940096,0.5684497665255965
4.771922087467843,0.5334390405720786
4.80529217199559,0.4674109898098016
4.838662256523337,0.39020247585241014
4.872032341051084,0.3061762276719592
4.905402425578831,0.20432676139089223
4.9387725101065785,0.06953741620334022
4.972142594634326,-0.10272232395820084
5.005512679162073,-0.29789091056146394
5.03888276368982,-0.4855544870061061
5.072252848217567,-0.6326748191695126
5.105622932745314,-0.719016496809272
5.138993017273061,-0.7457410743452141
5.1723631018008085,-0.7322494742632208
5.205733186328556,-0.7032992203069988
5.239103270856303,-0.6741141108964372
5.27247335538405,-0.6423203073110465
5.305843439911797,-0.5914209502383214
5.339213524439544,-0.5035812875019856
5.372583608967291,-0.3738707937331698
5.4059536934950385,-0.21717491550167203
5.439323778022786,-0.06328984366701741
5.472693862550533,0.05737050077052974
5.50606394707828,0.12961832953757899
5.539434031606027,0.16222925790511877
5.572804116133774,0.18493261477946557
5.606174200661521,0.23532345137412977
5.6395442851892685,0.34231370846489995
5.672914369717016,0.513772398049264
5.706284454244763,0.7330332418960539
5.73965453877251,0.9641549657089695
5.773024623300257,1.1621315730823032
5.806394707828004,1.2835057101836491
5.839764792355751,1.2947610416820543
5.873134876883499,1.1784339579002243
5.906504961411246,0.9378527078391748
5.939875045938993,0.6000790903757794
5.97324513046674,0.2144948950968798
6.006615214994487,-0.1558893888895585
6.039985299522234,-0.45052871652567955
6.073355384049981,-0.6302624037192426
6.106725468577729,-0.691082720590894
6.140095553105476,-0.6654759158767941
6.173465637633223,-0.6091083117056231
6.20683572216097,-0.577528040298214
6.240205806688717,-0.6026487008051756
6.273575891216464,-0.6794072865043048
6.3069459757442115,-0.7687610852130907
6.340316060271959,-0.8160038786456466
6.373686144799706,-0.7764479845336653
6.407056229327454,-0.6369857729026593
6.440426313855201,-0.42367676688708533
6.473796398382948,-0.19177891845375297
6.507166482910695,-0.00274361303196634
6.540536567438442,0.10127036610601288
6.5739066519661895,0.11382603286411586
6.607276736493937,0.06454755990731025
6.640646821021684,0.003977836682474609
6.674016905549431,-0.01945946487613527
6.707386990077178,0.020284266260047836
6.740757074604925,0.1181388624755122
6.774127159132672,0.24365378953755146
6.8074972436604195,0.35744436637579147
6.840867328188167,0.4299331262368425
6.874237412715914,0.45344620855859985
6.907607497243661,0.4423789483825993
6.940977581771408,0.42213913848640255
6.974347666299155,0.41304920962938513
7.007717750826902,0.41777838035267034
7.0410878353546495,0.4190571308703997
7.074457919882397,0.3892107923953314
7.107828004410144,0.3068730246116423
7.141198088937891,0.17212960188550377
7.174568173465638,0.011527390924371066
7.207938257993385,-0.13087269725827358
7.241308342521132,-0.2129941058294845
7.27467842704888,-0.21534000648617985
7.308048511576627,-0.15181703179353742
7.341418596104374,-0.06438421899512849
7.374788680632121,-0.0034648740690907546
7.408158765159868,-0.003846025383053104
7.441528849687615,-0.06859240415218493
7.4748989342153624,-0.16950634816860613
7.50826901874311,-0.26385152047921556
7.541639103270857,-0.31818409467496245
7.575009187798604,-0.32612025578396103
7.608379272326351,-0.3100578438089601
7.641749356854098,-0.3056675968282721
7.675119441381845,-0.3376287494550669
7.7084895259095925,-0.40027684442371664
7.74185961043734,-0.45460492045870404
7.775229694965087,-0.44449827107630396
7.808599779492834,-0.32474257661514094
7.841969864020581,-0.08677762326024618
7.875339948548328,0.2310877397118551
7.908710033076075,0.5546301929770991
7.9420801176038225,0.801017596895188
7.97545020213157,0.9099241203333376
8.008820286659317,0.8647414242750381
8.042190371187063,0.6956305719361308
8.075560455714811,0.46483584291888247
8.108930540242557,0.24196593993576782
8.142300624770305,0.07973141963006652
8.175670709298052,-0.0013388175141658114
8.2090407938258,-0.015369021270547525
8.242410878353546,-0.0018006071456414714
8.275780962881294,-0.008587093861972208
8.30915104740904,-0.0737293759887348
8.342521131936788,-0.2109100808227523
8.375891216464534,-0.4037136308831331
8.409261300992283,-0.6104855866642273
8.442631385520029,-0.7785033340759622
8.476001470047777,-0.8626324294410584
8.509371554575523,-0.8414557756872968
8.542741639103271,-0.7243357863952438
8.57611172363102,-0.5463384949328345
8.609481808158765,-0.3531953901042406
8.642851892686513,-0.18307778487900406
8.67622197721426,-0.05346456515500133
8.709592061742008,0.041237358493617274
8.742962146269754,0.12122003209369296
8.776332230797502,0.20737219618799124
8.809702315325248,0.30974029611943416
8.843072399852996,0.4240311663208297
8.876442484380743,0.5366194917423007
8.90981256890849,0.6334848453222628
8.943182653436237,0.7067386342120032
8.976552737963985,0.7548501949121933
9.009922822491731,0.7775366144346223
9.04329290701948,0.7701779629252697
9.076662991547225,0.7228774292456152
9.110033076074973,0.6257515883675931
9.14340316060272,0.4772337988373943
9.176773245130468,0.28955281851374065
9.210143329658214,0.08702215883728132
9.243513414185962,-0.1026501049701614
9.276883498713708,-0.2592983402548659
9.310253583241456,-0.37730534410435984
9.343623667769203,-0.46494452276549536
9.37699375229695,-0.5368639636719053
9.410363836824697,-0.6041903190746636
9.443733921352445,-0.667491954247136
9.477104005880191,-0.7157372440499006
9.51047409040794,-0.731128567504885
9.543844174935685,-0.6972112773433229
9.577214259463434,-0.6068392875335454
9.61058434399118,-0.46710797951642047
9.643954428518928,-0.2994835850765095
9.677324513046674,-0.1346748568612549
9.710694597574422,-0.003367186001396295
9.744064682102168,0.07430124296538043
9.777434766629916,0.09640493241491316
9.810804851157663,0.08029065792304751
9.84417493568541,0.0557626869927618
9.877545020213157,0.05283563618411846
9.910915104740905,0.08940703623113196
9.944285189268651,0.16444196617595105
9.9776552737964,0.2595389264551911
10.011025358324146,0.34764418563408495
10.044395442851894,0.40455552146114226
10.07776552737964,0.4182212855173054
10.111135611907388,0.3925409204860477
10.144505696435134,0.34502943576698686
10.177875780962882,0.29987949371642486
10.211245865490628,0.27901414774927263
10.244615950018376,0.29388718122617696
10.277986034546123,0.34049276665514044
10.31135611907387,0.39936094714395315
10.344726203601617,0.4409780468545208
10.378096288129365,0.43510997876114244
10.411466372657111,0.36072890934097634
10.44483645718486,0.21285542998982718
10.478206541712606,0.004141325927617712
10.511576626240354,-0.2384549027739027
10.5449467107681,-0.4797219387515452
10.578316795295848,-0.6827774387938458
10.611686879823594,-0.8152885108833227
10.645056964351342,-0.8555211168293533
10.678427048879088,-0.7980484375067636
10.711797133406836,-0.6574511404172118
10.745167217934583,-0.4673159378584869
10.77853730246233,-0.2727778164859594
10.811907386990077,-0.11772987130711587
10.845277471517825,-0.030948042317128673
10.878647556045571,-0.016639971729571542
10.91201764057332,-0.05338605086401269
10.945387725101066,-0.10193613883716157
10.978757809628814,-0.1187795602309347
11.01212789415656,-0.07051023485043552
11.045497978684308,0.0557004643170293
11.078868063212054,0.2483646022172
11.112238147739802,0.47520970211398783
11.145608232267548,0.6925458101005276
11.178978316795297,0.8576086612421732
11.212348401323043,0.9401450101627901
11.24571848585079,0.9294369401985809
11.279088570378537,0.834219154169741
11.312458654906285,0.6756802935865965
11.345828739434031,0.4770512136896943
11.37919882396178,0.255301423315693
11.412568908489526,0.019513575259379627
11.445938993017274,-0.2234379066580245
11.47930907754502,-0.46009802521894344
11.512679162072768,-0.6653134370656031
11.546049246600514,-0.8059212552800791
11.579419331128262,-0.853132661937306
11.612789415656009,-0.7977030668945392
11.646159500183757,-0.6592588192838981
11.679529584711503,-0.48341092148843334
11.71289966923925,-0.32646013920129224
11.746269753766997,-0.2341228376121748
11.779639838294745,-0.22400740569897662
11.813009922822491,-0.2797380624159414
11.84638000735024,-0.3588491272368331
11.879750091877986,-0.41019698892755024
11.913120176405734,-0.39299428739295356
11.94649026093348,-0.2900379057651528
11.979860345461228,-0.11123720396045764
12.013230429988974,0.11216852031305123
12.046600514516722,0.339239955809792
12.079970599044469,0.5321899304655032
12.113340683572217,0.6662713036322102
12.146710768099963,0.7339756953006182
12.180080852627711,0.7428975263141897
12.213450937155457,0.7089191777233399
12.246821021683205,0.6481724780908635
12.280191106210951,0.5715937932191217
12.3135611907387,0.4843433634788874
12.346931275266446,0.3895225335562954
12.380301359794194,0.2930620219890686
12.41367144432194,0.20592864974564898
12.447041528849688,0.1414045911899197
12.480411613377434,0.10824065658557586
12.513781697905182,0.10327098976138116
12.547151782432929,0.10806277756186512
12.580521866960677,0.09273023333248875
12.613891951488423,0.026697880382239123
12.647262036016171,-0.10754097665752788
12.680632120543917,-0.30385851195131425
12.714002205071665,-0.5306383295146728
12.747372289599411,-0.7395488314646352
12.78074237412716,-0.8819080339032883
12.814112458654908,-0.9258166159136044
12.847482543182654,-0.8666989781992787
12.880852627710402,-0.7270096326530211
12.914222712238148,-0.54600256857266
12.947592796765896,-0.36484174718166934
12.980962881293642,-0.21369351037991913
13.01433296582139,-0.10541744395429288
13.047703050349137,-0.03664944727956512
13.081073134876885,0.0062351656267505395
13.114443219404631,0.04004491995762547
13.147813303932379,0.07948226741602724
13.181183388460125,0.1345793980217519
13.214553472987873,0.21002230860111662
13.24792355751562,0.3048306730815696
13.281293642043368,0.4114820330868178
13.314663726571114,0.5150191614588983
13.348033811098862,0.5939044146222219
13.381403895626608,0.624295968294344
13.414773980154356,0.5876973414760636
13.448144064682102,0.4794769190362144
13.48151414920985,0.31423336487670295
13.514884233737597,0.12464472433461914
13.548254318265345,-0.04684627437508745
13.581624402793091,-0.16085605623825625
13.614994487320839,-0.19365918762930784
13.648364571848585,-0.14496411267414663
13.681734656376333,-0.03828041946402576
13.71510474090408,0.08604729602586063
13.748474825431828,0.18291666199810014
13.781844909959574,0.21621788041060097
13.815214994487322,0.17035351525307582
13.848585079015068,0.05579938704512826
13.881955163542816,-0.09385443007104026
13.915325248070562,-0.2333882163806102
13.94869533259831,-0.32244502975821604
13.982065417126057,-0.3406117749792454
14.015435501653805,-0.294370676457353
14.048805586181551,-0.21238059735626302
14.082175670709299,-0.1309939667899799
14.115545755237045,-0.0768252496844001
14.148915839764793,-0.054847493118568826
14.18228592429254,-0.04792776550924319
14.215656008820288,-0.02816977156141964
14.249026093348034,0.025403862289739922
14.282396177875782,0.1116776735685701
14.315766262403528,0.20291858401698878
14.349136346931276,0.2543708419443469
14.382506431459023,0.22471660428264442
14.41587651598677,0.09840605196943342
14.449246600514517,-0.10101672860008977
14.482616685042265,-0.3142062665325211
14.515986769570011,-0.46630700839365696
14.54935685409776,-0.49662856792856014
14.582726938625505,-0.3851097316475629
14.616097023153253,-0.16353180310547347
14.649467107681,0.09443071476169632
14.682837192208748,0.30106849578870654
14.716207276736494,0.3889899484372595
14.749577361264242,0.3372029730479429
14.782947445791988,0.17744897162107282
14.816317530319736,-0.021932603006543667
14.849687614847483,-0.18700646818651712
14.88305769937523,-0.2695802300010026
14.916427783902977,-0.2644078108733819
14.949797868430725,-0.20501173760840094
14.983167952958471,-0.14166603424643795
15.01653803748622,-0.11378783323478935
15.049908122013965,-0.1310136490462476
15.083278206541713,-0.1716812602411347
15.11664829106946,-0.19763960576361841
15.150018375597208,-0.17587184745263773
15.183388460124954,-0.09487622502819884
15.216758544652702,0.03202940401912537
15.250128629180448,0.17637734568260371
15.283498713708196,0.31025649487521406
15.316868798235943,0.41897068380968566
15.35023888276369,0.5045529969670469
15.383608967291437,0.5796838127919344
15.416979051819185,0.6563950808054494
15.450349136346931,0.7357259681406945
15.48371922087468,0.803169146479925
15.517089305402425,0.8317672272495835
15.550459389930174,0.7916542118609632
15.58382947445792,0.662538996788703
15.617199558985668,0.44440410327937513
15.650569643513414,0.16184549063084935
15.683939728041162,-0.14064026966461637
15.717309812568908,-0.41167203245694134
15.750679897096656,-0.609736872013135
15.784049981624403,-0.7168467972357777
15.81742006615215,-0.7430978994288915
15.850790150679897,-0.7200621313351261
15.884160235207645,-0.6861498465697822
15.917530319735391,-0.6708403980693387
15.95090040426314,-0.6849375097257675
15.984270488790886,-0.7206073343862416
16.017640573318634,-0.7597603414835914
16.05101065784638,-0.7852022141874301
16.084380742374126,-0.7881578850152453
16.117750826901876,-0.768600255894452
16.151120911429622,-0.7294678810362367
16.18449099595737,-0.6694523188907092
16.217861080485115,-0.5794608362183374
16.251231165012864,-0.44510422839337643
16.28460124954061,-0.25362598156125704
16.317971334068357,-0.0011564647360446068
16.351341418596103,0.30353101716458464
16.384711503123853,0.6400233199922419
16.4180815876516,0.9804357896066819
16.451451672179346,1.2939349380752376
16.484821756707092,1.549795507293082
16.51819184123484,1.7192952379321795
16.551561925762588,1.7781708439025012
16.584932010290334,1.710881274486759
16.61830209481808,1.5159105014733374
16.65167217934583,1.2094533755514263
16.685042263873576,0.8247362176298871
16.718412348401323,0.406232278001174
16.75178243292907,0.0007370396478538787
16.78515251745682,-0.3513508952887591
16.818522601984565,-0.622070767770645
16.85189268651231,-0.7989169285588416
16.885262771040058,-0.8858262098881838
16.918632855567807,-0.9025209062691789
16.952002940095554,-0.8809475049526163
16.9853730246233,-0.8570902900005971
17.018743109151046,-0.8585647831937319
17.052113193678796,-0.8921210086339207
17.085483278206542,-0.9376260972642068
17.11885336273429,-0.9537034069021844
17.15222344726204,-0.8949084941118061
17.185593531789785,-0.7338557966415131
17.21896361631753,-0.47794599737465265
17.252333700845277,-0.1718442175546571
17.285703785373027,0.11676643317583156
