Time (s),Filtered Signal
0.0,-0.13533887740395312
0.03337004405286344,-0.13255874331101253
0.06674008810572687,-0.13438604851088212
0.10011013215859031,-0.14448079907525951
0.13348017621145375,-0.16221790821124438
0.16685022026431717,-0.18205249209220553
0.20022026431718062,-0.19449692126778628
0.23359030837004408,-0.1887273752069572
0.2669603524229075,-0.15620603711243394
0.3003303964757709,-0.09410417995598948
0.33370044052863435,-0.00711301537445392
0.3670704845814978,0.09330271742089978
0.40044052863436125,0.1920954472439005
0.43381057268722467,0.27498634660848836
0.46718061674008815,0.3320789477557933
0.5005506607929515,0.3592290890102646
0.533920704845815,0.3569520167703084
0.5672907488986785,0.3281047780164778
0.6006607929515418,0.27626216457589886
0.6340308370044053,0.20605993406200432
0.6674008810572687,0.12512694482663636
0.7007709251101322,0.04566713809646885
0.7341409691629956,-0.01651910051822639
0.767511013215859,-0.04634614338077596
0.8008810572687225,-0.03549753342206718
0.834251101321586,0.013069080625012395
0.8676211453744493,0.08518743378079792
0.9009911894273128,0.16081465412006482
0.9343612334801763,0.2222703741959101
0.9677312775330397,0.2611429160111868
1.001101321585903,0.28016298015535873
1.0344713656387665,0.28908004700758444
1.06784140969163,0.2969462108263076
1.1012114537444935,0.3052793915072769
1.134581497797357,0.30615829072993256
1.1679515418502202,0.2865893865949601
1.2013215859030837,0.2368880621222135
1.2346916299559472,0.15820219634407906
1.2680616740088106,0.06414352168018093
1.3014317180616741,-0.0258029533444522
1.3348017621145374,-0.09878473838559058
1.3681718061674009,-0.1602996225536997
1.4015418502202643,-0.23694380308735413
1.4349118942731278,-0.36525993338571894
1.4682819383259913,-0.5691803618451221
1.5016519823788548,-0.83669236143159
1.535022026431718,-1.1101273596490084
1.5683920704845815,-1.3002001709745858
1.601762114537445,-1.322200569388405
1.6351321585903085,-1.1391870906074952
1.668502202643172,-0.7896993250281581
1.7018722466960352,-0.38206839461763664
1.7352422907488987,-0.05307676486453138
1.7686123348017622,0.09221319568182414
1.8019823788546256,0.030803428238781624
1.8353524229074891,-0.1636983344580861
1.8687224669603526,-0.35168170109649727
1.9020925110132159,-0.3903732006577178
1.9354625550660793,-0.1996582107295529
1.9688325991189428,0.20030069627140232
2.002202643171806,0.697262842944839
2.0355726872246698,1.1363239929424762
2.068942731277533,1.3863785074329014
2.1023127753303967,1.392381565033782
2.13568281938326,1.1907143777158973
2.1690528634361232,0.8840172644003057
2.202422907488987,0.5911415268084073
2.23579295154185,0.3977639953389071
2.269162995594714,0.32976350773197505
2.302533039647577,0.35781727711702416
2.3359030837004404,0.42562265122806175
2.369273127753304,0.48374876089519697
2.4026431718061674,0.5108723255038586
2.436013215859031,0.5132444991071301
2.4693832599118943,0.5063044941637059
2.5027533039647576,0.4922612705903677
2.5361233480176213,0.4489594149297277
2.5694933920704845,0.33788466984127946
2.6028634361233483,0.127242010397969
2.6362334801762115,-0.18336327221957124
2.6696035242290748,-0.5515963407096124
2.7029735682819385,-0.9022590119444654
2.7363436123348017,-1.1547561832966682
2.7697136563876654,-1.2552773440842977
2.8030837004405287,-1.1985045386446225
2.8364537444933924,-1.0290275494973193
2.8698237885462556,-0.8223642470896874
2.903193832599119,-0.6544981655285012
2.9365638766519826,-0.5731381482267012
2.969933920704846,-0.5821687594356263
3.0033039647577096,-0.6444493742387688
3.036674008810573,-0.7003232861271842
3.070044052863436,-0.6931620734855812
3.1034140969162998,-0.591205149353977
3.136784140969163,-0.39738582239679227
3.1701541850220267,-0.14452239538854167
3.20352422907489,0.12035196684921876
3.2368942731277532,0.3545115500420412
3.270264317180617,0.5327034212252383
3.30363436123348,0.6504202591400042
3.337004405286344,0.7180785762693056
3.370374449339207,0.7508948248918507
3.4037444933920704,0.7599817577148092
3.437114537444934,0.7479639916343591
3.4704845814977974,0.709354107163164
3.503854625550661,0.6342129419792586
3.5372246696035243,0.5137636951444505
3.5705947136563876,0.34729288021660076
3.6039647577092513,0.14914295911315545
3.6373348017621145,-0.047277225003496105
3.6707048458149782,-0.19286954827301564
3.7040748898678415,-0.23639220821645204
3.737444933920705,-0.14583635930920683
3.7708149779735685,0.07085086089257923
3.8041850220264317,0.3571467825123322
3.8375550660792954,0.6195909697440006
3.8709251101321587,0.7587754350404771
3.9042951541850224,0.7082910850201898
3.9376651982378856,0.4642350220220519
3.971035242290749,0.09043628974511303
4.004405286343612,-0.3047912457598182
4.037775330396476,-0.6109468016001469
4.0711453744493395,-0.7578563038266967
4.104515418502203,-0.7394546106640626
4.137885462555066,-0.6091096660947509
4.171255506607929,-0.4503397683414969
4.2046255506607935,-0.337744131866353
4.237995594713657,-0.30622958097522096
4.27136563876652,-0.3413095267936295
4.304735682819383,-0.39263516445837543
4.3381057268722465,-0.40232366162852756
4.371475770925111,-0.33380049081756197
4.404845814977974,-0.18791319418692945
4.438215859030837,1.433562284938126e-05
4.4715859030837,0.1791622482196155
4.504955947136564,0.3077432524246893
4.538325991189428,0.3705113944454611
4.571696035242291,0.3810097498891378
4.605066079295154,0.36883513018455094
4.638436123348018,0.36027855909200013
4.671806167400881,0.3637715891265611
4.705176211453745,0.36794279233154764
4.738546255506608,0.3521416147155594
4.7719162995594715,0.3019693855763371
4.805286343612335,0.21998926681117184
4.838656387665198,0.1253815742435305
4.872026431718062,0.043220538260350015
4.905396475770925,-0.01004131833579451
4.938766519823789,-0.0365953502416939
4.972136563876652,-0.05744998205000547
5.005506607929515,-0.10281547070682441
5.038876651982379,-0.1975699065577813
5.072246696035243,-0.34861960822012306
5.105616740088106,-0.5395789950852496
5.138986784140969,-0.7346508830384074
5.172356828193832,-0.8897833477813746
5.2057268722466965,-0.9666684731377173
5.23909691629956,-0.9445309395867643
5.272466960352423,-0.8256677742027173
5.305837004405286,-0.6327863007262647
5.3392070484581495,-0.3989276385275465
5.372577092511014,-0.1537306261329279
5.405947136563877,0.08795211640448357
5.43931718061674,0.3290095061804415
5.4726872246696034,0.5817302133906819
5.506057268722468,0.8511200074770369
5.539427312775331,1.1184860068207074
5.572797356828194,1.335766428061155
5.606167400881057,1.4370990026133117
5.639537444933921,1.3654633486903038
5.672907488986785,1.1031525567487153
5.706277533039648,0.6905065671460068
5.739647577092511,0.22096018329692976
5.7730176211453745,-0.18887822454882294
5.806387665198238,-0.4426825499010519
5.839757709251102,-0.5019272287334042
5.873127753303965,-0.39948099432137907
5.9064977973568284,-0.22225257009344623
5.939867841409692,-0.07094030561455177
5.973237885462555,-0.01615316419043436
6.006607929515419,-0.0714603846920833
6.039977973568282,-0.19472859569277343
6.073348017621146,-0.3146832090959812
6.106718061674009,-0.3678473957246673
6.140088105726872,-0.32765911458821995
6.173458149779736,-0.2133338498789186
6.2068281938325995,-0.07686906245386539
6.240198237885463,0.023347736159718673
6.273568281938326,0.048917692961847316
6.306938325991189,-0.004118791676988641
6.3403083700440535,-0.10816445288674648
6.373678414096917,-0.2212509378514858
6.40704845814978,-0.30880772928443223
6.440418502202643,-0.3584441849527674
6.4737885462555065,-0.3802924223516424
6.507158590308371,-0.3936765402177573
6.540528634361234,-0.4088075315577738
6.573898678414097,-0.4152312610560567
6.60726872246696,-0.3848626599322645
6.640638766519824,-0.28867720500697835
6.674008810572688,-0.11759230612210263
6.707378854625551,0.1050994380653648
6.740748898678414,0.32810360003613903
6.774118942731278,0.4922480101445713
6.807488986784141,0.5561836798083443
6.840859030837005,0.5140332117973311
6.874229074889868,0.3956675736984885
6.9075991189427315,0.24992991250545293
6.940969162995595,0.12052751816147343
6.974339207048458,0.028033340587294904
7.007709251101322,-0.03268114816194406
7.041079295154185,-0.07976560120951406
7.074449339207049,-0.12580882304594387
7.107819383259912,-0.16590877463470666
7.141189427312775,-0.18023032460755858
7.174559471365639,-0.1492626865233969
7.207929515418503,-0.07159803227600209
7.241299559471366,0.027803314558165978
7.274669603524229,0.10515559633338982
7.308039647577092,0.11789580162429225
7.3414096916299565,0.0464567921446964
7.37477973568282,-0.09400227991282181
7.408149779735683,-0.2579451015596577
7.441519823788546,-0.38716953186918995
7.47488986784141,-0.43249071285823415
7.508259911894274,-0.3689195298735001
7.541629955947137,-0.1985124087826467
7.575,0.05752881572060469
7.608370044052863,0.3701222170896587
7.641740088105728,0.7087089279547293
7.675110132158591,1.0392266423595617
7.708480176211454,1.317443541102099
7.741850220264317,1.4866393701408134
7.775220264317181,1.487568732858959
7.808590308370045,1.2809819790197265
7.841960352422908,0.873054709360716
7.875330396475771,0.3286310376720904
7.9087004405286345,-0.23917512624566736
7.942070484581498,-0.7028801208064369
7.975440528634362,-0.9649236307338571
8.008810572687224,-0.99272351725378
8.042180616740088,-0.8287029080685987
8.075550660792953,-0.5713902068830702
8.108920704845815,-0.336895874067175
8.142290748898679,-0.21775589137322837
8.175660792951541,-0.2551897702072074
8.209030837004406,-0.4329967126567609
8.24240088105727,-0.6914680365334466
8.275770925110132,-0.9526681217800934
8.309140969162996,-1.1465511702828737
8.342511013215859,-1.2298747813758635
8.375881057268723,-1.1941859878445569
8.409251101321587,-1.062903458948417
8.44262114537445,-0.8797755267806263
8.475991189427313,-0.6922389823892727
8.509361233480176,-0.5342441825144633
8.54273127753304,-0.4139521077426545
8.576101321585904,-0.31131918550439425
8.609471365638766,-0.18781283730869341
8.64284140969163,-0.005469083577740029
8.676211453744493,0.2526733658802258
8.709581497797357,0.5708075851541833
8.742951541850221,0.9040961181261424
8.776321585903084,1.19709824940042
8.809691629955948,1.4079651083064249
8.84306167400881,1.5257601985944835
8.876431718061674,1.5714983752381846
8.909801762114538,1.5821731721572687
8.9431718061674,1.5863652946544193
8.976541850220265,1.5847639240591986
9.009911894273127,1.546471742743434
9.043281938325991,1.4237098508180224
9.076651982378856,1.1779477563779468
9.110022026431718,0.8044851106015647
9.143392070484582,0.34296512305937843
9.176762114537445,-0.13216128488671125
9.210132158590309,-0.5376971665126173
9.243502202643173,-0.8126910575513062
9.276872246696035,-0.9400041425050083
9.3102422907489,-0.9483402484279856
9.343612334801762,-0.8942399629261542
9.376982378854626,-0.8338100821741387
9.41035242290749,-0.7991816445460158
9.443722466960352,-0.791510400285853
9.477092511013216,-0.792285076357854
9.510462555066079,-0.7838250422672796
9.543832599118943,-0.765036568516686
9.577202643171807,-0.7528473042667868
9.61057268722467,-0.7701400531368844
9.643942731277534,-0.8300809708087802
9.677312775330396,-0.9280485228049324
9.71068281938326,-1.0452466433586534
9.744052863436124,-1.1583238958671713
9.777422907488987,-1.2448844794366183
9.81079295154185,-1.2795167901006514
9.844162995594713,-1.225246182943797
9.877533039647577,-1.0325033984918996
9.910903083700441,-0.6548825353522648
9.944273127753304,-0.07879861311177543
9.977643171806168,0.6489565167693192
10.01101321585903,1.415644356641343
10.044383259911895,2.06929156471738
10.077753303964759,2.4700786489371986
10.111123348017621,2.54367749004767
10.144493392070485,2.3108420287043097
10.177863436123348,1.8784479806479446
10.211233480176212,1.3956020153805226
10.244603524229076,0.9945837787826232
10.277973568281938,0.7425624798259496
10.311343612334802,0.6240618071698467
10.344713656387665,0.5595559583401271
10.378083700440529,0.4494510356796995
10.411453744493393,0.22238958327665032
10.444823788546255,-0.1333491535641083
10.47819383259912,-0.5671953701677942
10.511563876651982,-0.9903787128641229
10.544933920704846,-1.3133151025946168
10.57830396475771,-1.4788826216087363
10.611674008810573,-1.4785989659017535
10.645044052863437,-1.3482079122359791
10.678414096916299,-1.1484560406093782
10.711784140969163,-0.9416115792652296
10.745154185022027,-0.773293316305723
10.77852422907489,-0.6642747471494743
10.811894273127754,-0.611451896941966
10.845264317180618,-0.5939302591467965
10.87863436123348,-0.5801506862300406
10.912004405286345,-0.5341343335905689
10.945374449339207,-0.42129162605363224
10.978744493392071,-0.21514713041091252
11.012114537444935,0.09466149476153458
11.045484581497798,0.4948139872617224
11.078854625550662,0.9445383754898804
11.112224669603524,1.3790572090254698
11.145594713656388,1.7216956223888829
11.178964757709252,1.902725817566067
11.212334801762115,1.8796329091885131
11.245704845814979,1.65174607660968
11.279074889867841,1.263288741338073
11.312444933920705,0.7928051926873303
11.34581497797357,0.33202387220473956
11.379185022026432,-0.03887890917146179
11.412555066079296,-0.27170566175850025
11.445925110132158,-0.36052858548251865
11.479295154185023,-0.33973042275966814
11.512665198237887,-0.27134768951396393
11.546035242290749,-0.22593480163169824
11.579405286343613,-0.2625929642093662
11.612775330396476,-0.41383497795403096
11.64614537444934,-0.6792694330557032
11.679515418502204,-1.028784273965843
11.712885462555066,-1.4121949197596428
11.74625550660793,-1.770231760983177
11.779625550660793,-2.0427357395090606
11.812995594713657,-2.173477315707324
11.846365638766521,-2.1145804590342396
11.879735682819383,-1.8342807887597392
11.913105726872248,-1.3287259219681107
11.94647577092511,-0.6336209101781555
11.979845814977974,0.17169644043240084
12.013215859030838,0.9739142253565414
12.0465859030837,1.6496105596503488
12.079955947136565,2.09662895249245
12.113325991189427,2.261701468959848
12.146696035242291,2.153730197614718
12.180066079295155,1.837749631516695
12.213436123348018,1.4122582021750978
12.246806167400882,0.9786956621760544
12.280176211453744,0.6139400084460179
12.313546255506608,0.3545179481527053
12.346916299559473,0.19621596144904146
12.380286343612335,0.10707364541273541
12.413656387665199,0.047274613573549236
12.447026431718061,-0.012418819094697617
12.480396475770926,-0.08073138608737754
12.51376651982379,-0.14745151818624924
12.547136563876652,-0.19435128382714748
12.580506607929516,-0.20920400692653768
12.613876651982379,-0.19558624031751196
12.647246696035243,-0.17362809980022445
12.680616740088107,-0.17162868144340954
12.71398678414097,-0.2129953172673464
12.747356828193833,-0.3049860320466823
12.780726872246696,-0.4344315188990547
12.81409691629956,-0.5720345076160995
12.847466960352424,-0.683032744096704
12.880837004405286,-0.7396733384148438
12.91420704845815,-0.7306647817497078
12.947577092511013,-0.6641748843585317
12.980947136563877,-0.563333437962887
13.014317180616741,-0.4559149841148178
13.047687224669604,-0.36217666363203116
13.081057268722468,-0.28580202712508435
13.11442731277533,-0.21187858018265054
13.147797356828194,-0.11300396630924334
13.181167400881058,0.03879551148613712
13.21453744493392,0.25898526536350297
13.247907488986785,0.5411155094334478
13.281277533039647,0.8540868197138699
13.314647577092511,1.1464373081899593
13.348017621145376,1.356011048351568
13.381387665198238,1.4228292179637807
13.414757709251102,1.303429886996358
13.448127753303964,0.9849908542538524
13.481497797356829,0.49621208353414503
13.514867841409693,-0.09005735309715432
13.548237885462555,-0.6676762285936619
13.58160792951542,-1.1229755530093264
13.614977973568282,-1.3694634186798993
13.648348017621146,-1.3784062362652427
13.68171806167401,-1.1905770833771074
13.715088105726872,-0.900908148624952
13.748458149779736,-0.6200331288516535
13.781828193832599,-0.4285432538899747
13.815198237885463,-0.344706512816861
13.848568281938327,-0.3213022283435239
13.88193832599119,-0.27402577104163556
13.915308370044054,-0.12870602935102132
13.948678414096916,0.1352044158728325
13.98204845814978,0.46655678244196874
14.015418502202644,0.7599125291063368
14.048788546255507,0.9014429818267087
14.08215859030837,0.8222646476921389
14.115528634361233,0.5341640242959564
14.148898678414097,0.1307701735059646
14.182268722466961,-0.24671011823182531
14.215638766519824,-0.46402146946400424
14.249008810572688,-0.44493779114805343
14.28237885462555,-0.1976244939106716
14.315748898678414,0.19330613647549388
14.349118942731279,0.6034734709751836
14.382488986784141,0.9168296437988123
14.415859030837005,1.0645920130028423
14.449229074889868,1.0405015316082529
14.482599118942732,0.8897803400236144
14.515969162995596,0.6807271793180921
14.549339207048458,0.4737881987846987
14.582709251101322,0.30125260984728597
14.616079295154185,0.1635023714883991
14.649449339207049,0.039379565159707995
14.682819383259913,-0.09715612329665738
14.716189427312775,-0.2624912020717301
14.74955947136564,-0.4560725709013868
14.782929515418502,-0.6610086151994498
14.816299559471366,-0.8500388964626667
14.84966960352423,-0.9935510969041036
14.883039647577093,-1.0671790167362847
14.916409691629957,-1.057642004233732
14.94977973568282,-0.9660429761566762
14.983149779735683,-0.8079876391407647
15.016519823788547,-0.6102694572005521
15.04988986784141,-0.4047925110141372
15.083259911894274,-0.22145977075417633
15.116629955947138,-0.08212619866979905
15.15,0.003027795735325527
15.183370044052865,0.03670621080816339
15.216740088105727,0.03410910932141395
15.250110132158591,0.02126768469769096
15.283480176211455,0.031155983949049896
15.316850220264318,0.0961899837598307
15.350220264317182,0.23733031232362012
15.383590308370044,0.4531174131431394
15.416960352422908,0.7143079771098402
15.450330396475772,0.9689454285076249
15.483700440528635,1.1581404532397188
15.517070484581499,1.2366889697836425
15.550440528634361,1.1886941819292156
15.583810572687225,1.0296974774009953
15.61718061674009,0.793647264700476
15.650550660792952,0.5119141849834781
15.683920704845816,0.19709391367051063
15.717290748898678,-0.15753054768781044
15.750660792951543,-0.5610347552965002
15.784030837004407,-0.9998512778262528
15.817400881057269,-1.4207754064784166
15.850770925110133,-1.7353935422305313
15.884140969162996,-1.8482519116825145
15.91751101321586,-1.6974659305446986
15.950881057268724,-1.2880443634486551
15.984251101321586,-0.7000228356630216
16.01762114537445,-0.06506923725527834
16.050991189427315,0.4793339453872198
16.084361233480177,0.8378280803658904
16.11773127753304,0.9859246305188282
16.151101321585905,0.9678840931760903
16.184471365638768,0.8670897118641692
16.21784140969163,0.7647816293373038
16.251211453744492,0.7068285486775362
16.284581497797358,0.692166812691407
16.31795154185022,0.6846689348005476
16.351321585903083,0.639095827295689
16.38469162995595,0.5267977270602554
16.41806167400881,0.3494479417413218
16.451431718061674,0.1367472324403434
16.48480176211454,-0.06790261314545341
16.518171806167402,-0.22521884447871918
16.551541850220264,-0.3131679519614005
16.584911894273127,-0.33114867100347223
16.618281938325993,-0.2957629749005252
16.651651982378855,-0.23197036172038746
16.685022026431717,-0.16412437856949205
16.718392070484583,-0.10995874322976527
16.751762114537446,-0.07828046318970633
16.785132158590308,-0.06928339024002027
16.818502202643174,-0.07587703558250557
16.851872246696036,-0.0852727875621185
16.8852422907489,-0.08147636846611649
16.91861233480176,-0.050044173298979124
16.951982378854627,0.014473028737765388
16.98535242290749,0.10042348135105031
17.01872246696035,0.17482519843491856
17.052092511013218,0.18801956884852897
17.08546255506608,0.08923670759918782
17.118832599118942,-0.1506428801756199
17.152202643171808,-0.5184509302542673
17.18557268722467,-0.9513234961830936
17.218942731277533,-1.3494602628036816
17.2523127753304,-1.6069939577019214
17.28568281938326,-1.6493720071971263
17.319052863436124,-1.460915863155259
17.352422907488986,-1.0895985425233807
17.385792951541852,-0.6265101652749858
