Frequency (Hz),Amplitude
0.0,1.3139279731552638
0.01993355481727575,1.3133627702521689
0.0398671096345515,1.3116679983844624
0.059800664451827246,1.3088461695959248
0.079734219269103,1.3049014757261226
0.09966777408637874,1.299839796190113
0.11960132890365449,1.2936687091328782
0.13953488372093023,1.2863975062287951
0.159468438538206,1.278037211484429
0.17940199335548174,1.2686006045000395
0.19933554817275748,1.2581022487525662
0.21926910299003324,1.2465585255845382
0.23920265780730898,1.2339876747217153
0.25913621262458475,1.2204098423005953
0.27906976744186046,1.20584713756996
0.29900332225913623,1.1903236996426376
0.318936877076412,1.1738657759193358
0.3388704318936877,1.1565018140926884
0.3588039867109635,1.1382625699720312
0.37873754152823924,1.1191812337550422
0.39867109634551495,1.0992935778186708
0.4186046511627907,1.078638129614378
0.4385382059800665,1.0572563738376988
0.4584717607973422,1.0351929887004259
0.47840531561461797,1.0124961218618198
0.49833887043189373,0.9892177123596453
0.5182724252491695,0.9654138656904914
0.5382059800664452,0.9411452899673025
0.5581395348837209,0.9164778017308184
0.5780730897009968,0.8914829103533719
0.5980066445182725,0.866238489796679
0.6179401993355482,0.8408295453867763
0.637873754152824,0.8153490806775012
0.6578073089700996,0.789899064562278
0.6777408637873754,0.764591490401516
0.6976744186046512,0.7395495055029047
0.717607973421927,0.7149085688466438
0.7375415282392027,0.6908175652009745
0.7574750830564785,0.6674397624943627
0.7774086378737541,0.6449534451561777
0.7973421926910299,0.6235519902075292
0.8172757475083057,0.6034430812124549
0.8372093023255814,0.5848466920735342
0.8571428571428572,0.5679914438423326
0.877076411960133,0.5531089811972066
0.8970099667774087,0.5404261753504139
0.9169435215946844,0.5301552705260676
0.9368770764119602,0.5224825458361898
0.9568106312292359,0.5175565867516804
0.9767441860465116,0.5154776936126906
0.9966777408637875,0.5162901012634439
1.0166112956810631,0.5199783985442418
1.036544850498339,0.5264688280747453
1.0564784053156147,0.5356352140470028
1.0764119601328903,0.5473084177567713
1.0963455149501662,0.5612877239387655
1.1162790697674418,0.5773525156679976
1.1362126245847177,0.5952729181182972
1.1561461794019936,0.6148185951193545
1.176079734219269,0.635765382981392
1.196013289036545,0.6578998281381528
1.2159468438538206,0.6810219230056006
1.2358803986710964,0.7049464272349523
1.255813953488372,0.72950316141423
1.275747508305648,0.7545366094512456
1.2956810631229239,0.7799050959893618
1.3156146179401993,0.8054797355811447
1.3355481727574752,0.8311432904255339
1.3554817275747508,0.8567890263071173
1.3754152823920267,0.8823196215243505
1.3953488372093024,0.9076461591096275
1.4152823920265782,0.9326872162063127
1.435215946843854,0.9573680539358148
1.4551495016611296,0.9816199047070602
1.4750830564784054,1.0053793503563153
1.495016611295681,1.0285877827831922
1.514950166112957,1.0511909381896094
1.5348837209302328,1.0731384961681245
1.5548172757475083,1.0943837354181145
1.5747508305647842,1.114883238595273
1.5946843853820598,1.1345966395983234
1.6146179401993357,1.1534864073939701
1.6345514950166113,1.171517661234041
1.6544850498338872,1.1886580128083903
1.6744186046511629,1.204877431493926
1.6943521594684385,1.2201481294042598
1.7142857142857144,1.2344444634196554
1.73421926910299,1.2477428517886529
1.754152823920266,1.2600217032485053
1.7740863787375416,1.2712613569175966
1.7940199335548175,1.281444031476332
1.8139534883720931,1.290553782379793
1.8338870431893688,1.2985764660408934
1.8538205980066447,1.3054997100919215
1.8737541528239203,1.311312888979634
1.893687707641196,1.3160071042778452
1.9136212624584719,1.3195751692152822
1.9335548172757475,1.3220115970181707
1.9534883720930232,1.3233125927590985
1.9734219269102993,1.3234760484882202
1.993355481727575,1.3225015415024464
2.0132890365448506,1.3203903356839033
2.0332225913621262,1.3171453859136102
2.0531561461794023,1.3127713456404404
2.073089700996678,1.3072745777621577
2.0930232558139537,1.3006631690550492
2.1129568106312293,1.2929469484747682
2.132890365448505,1.284137509744114
2.1528239202657806,1.274248238747281
2.1727574750830567,1.2632943463657538
2.1926910299003324,1.251292907523058
2.212624584717608,1.2382629073555695
2.2325581395348837,1.2242252955999522
2.25249169435216,1.209203050487654
2.2724252491694354,1.1932212536689946
2.292358803986711,1.1763071779590517
2.312292358803987,1.1584903900107333
2.332225913621263,1.139802870384187
2.352159468438538,1.1202791539030734
2.3720930232558137,1.099956493673534
2.39202657807309,1.0788750526970423
2.4119601328903655,1.057078127637441
2.431893687707641,1.034612410003657
2.4518272425249172,1.011528290774015
2.471760797342193,0.9878802152934862
2.4916943521594686,0.9637270960772769
2.511627906976744,0.9391327918753265
2.5315614617940203,0.9141666618637808
2.551495016611296,0.8889042039247695
2.5714285714285716,0.8634277853357656
2.5913621262458477,0.8378274723344608
2.611295681063123,0.8122019612495925
2.6312292358803986,0.7866596071924652
2.6511627906976742,0.7613195353160115
2.6710963455149503,0.7363128025819663
2.691029900332226,0.7117835526655576
2.7109634551495017,0.687890070758667
2.7308970099667778,0.6648055967334792
2.7508305647840534,0.6427186941567203
2.770764119601329,0.6218329024235546
2.7906976744186047,0.6023653298669451
2.810631229235881,0.5845437972108569
2.8305647840531565,0.5686021456070891
2.850498338870432,0.5547734242423884
2.870431893687708,0.5432809103893197
2.8903654485049834,0.5343273062025068
2.910299003322259,0.5280829612261624
2.9302325581395348,0.5246744675359765
2.950166112956811,0.5241752798379967
2.9700996677740865,0.5265999431654916
2.990033222591362,0.5319029920790426
3.0099667774086383,0.5399827276042422
3.029900332225914,0.5506891523281334
3.0498338870431896,0.5638346547809556
3.0697674418604657,0.5792057701536916
3.089700996677741,0.5965745058552022
3.1096345514950166,0.6157081586835178
3.129568106312292,0.6363770699089338
3.1495016611295683,0.6583602127386007
3.169435215946844,0.6814488104772805
3.1893687707641196,0.7054483391374691
3.2093023255813957,0.7301793092521108
3.2292358803986714,0.7554771920331523
3.249169435215947,0.7811917920829398
3.2691029900332227,0.8071862978016441
3.289036544850499,0.8333361753778921
3.3089700996677744,0.859528018668231
3.32890365448505,0.885658426413105
3.3488372093023258,0.911632948766917
3.3687707641196014,0.9373651248386888
3.388704318936877,0.9627756195934173
3.4086378737541527,0.9877914601056933
3.428571428571429,1.012345366248082
3.4485049833887045,1.0363751682923679
3.46843853820598,1.059823302783657
3.4883720930232562,1.0826363778489991
3.508305647840532,1.1047647994433887
3.5282392026578075,1.1261624506674845
3.548172757475083,1.1467864170539985
3.5681063122923593,1.1665967515168931
3.588039867109635,1.185556273431864
3.60797342192691,1.2036303970371272
3.6279069767441863,1.2207869849964326
3.647840531561462,1.23699622354651
3.6677740863787376,1.2522305161611302
3.6877076411960132,1.2664643931075603
3.7076411960132893,1.27967443465569
3.727574750830565,1.29183920603138
3.7475083056478407,1.302939202491373
3.7674418604651168,1.3129568031425412
3.787375415282392,1.3218762323405266
3.807308970099668,1.3296835276859513
3.8272425249169437,1.3363665137951803
3.8471760797342194,1.3419147811619674
3.867109634551495,1.3463196695481878
3.887043189368771,1.3495742554506842
3.9069767441860463,1.3516733432890895
3.9269102990033224,1.3526134600486945
3.9468438538205985,1.3523928531957192
3.9667774086378738,1.3510114917606701
3.98671096345515,1.348471070562279
4.0066445182724255,1.344775017619687
4.026578073089701,1.3399285048778014
4.046511627906977,1.3339384624500519
4.0664451827242525,1.3268135966677932
4.086378737541528,1.318564412316761
4.106312292358805,1.3092032395416362
4.1262458471760795,1.298744266012069
4.146179401993356,1.2872035750695248
4.166112956810632,1.2745991907188674
4.186046511627907,1.2609511304931347
4.205980066445183,1.246281467410708
4.225913621262459,1.2306144024640184
4.245847176079734,1.2139763493347553
4.26578073089701,1.1963960333269428
4.2857142857142865,1.1779046068537087
4.305647840531561,1.1585357842123263
4.325581395348838,1.1383259988419865
4.345514950166113,1.1173145867863292
4.365448504983389,1.0955440006820314
4.385382059800665,1.0730600592668063
4.40531561461794,1.049912238139313
4.425249169435216,1.0261540082930927
4.445182724252492,1.0018432297531081
4.465116279069767,0.9770426084036608
4.485049833887043,0.9518202247065002
4.50498338870432,0.926250143297255
4.524916943521594,0.9004131121520595
4.544850498338871,0.8743973587316458
4.5647840531561465,0.8482994876419984
4.584717607973422,0.8222254790424436
4.604651162790698,0.796291778095167
4.624584717607974,0.770626451599509
4.644518272425249,0.7453703666063197
4.664451827242526,0.7206783150041709
4.6843853820598005,0.6967199656800119
4.704318936877076,0.6736804707483631
4.724252491694353,0.6517604859737202
4.7441860465116275,0.6311752944285642
4.764119601328904,0.6121526615147951
4.78405315614618,0.5949290249513647
4.803986710963455,0.5797436730989967
4.823920265780731,0.5668307322949635
4.8438538205980075,0.5564091000214292
4.863787375415282,0.5486709167409534
4.883720930232559,0.5437696863815591
4.9036544850498345,0.5418095778976028
4.92358803986711,0.5428375754632149
4.943521594684386,0.5468398538766832
4.963455149501661,0.5537430513163766
4.983388704318937,0.563420189385185
5.003322259136213,0.5757001518195448
5.023255813953488,0.5903791380760459
5.043189368770764,0.6072324552277462
5.063122923588041,0.6260253223292238
5.083056478405315,0.646521855179469
5.102990033222592,0.6684918957806407
5.122923588039868,0.6917157345887802
5.142857142857143,0.7159870068756291
5.162790697674419,0.7411141436696416
5.182724252491695,0.7669207630900824
5.20265780730897,0.7932453408169633
5.222591362126246,0.8199404305734727
5.242524916943522,0.8468716365387006
5.262458471760797,0.8739164794894835
5.282392026578074,0.9009632506492691
5.3023255813953485,0.9279099115521027
5.322259136212625,0.9546630729363478
5.342192691029901,0.981137068532814
5.362126245847176,1.007253128495897
5.382059800664452,1.0329386503912363
5.4019933554817285,1.0581265617469044
5.421926910299003,1.0827547662059644
5.44186046511628,1.106765664584028
5.4617940199335555,1.1301057421560285
5.48172757475083,1.1527252139495319
5.501661129568107,1.1745777204992849
5.5215946843853825,1.1956200672870911
5.541528239202658,1.215812001872843
5.561461794019934,1.235116023469893
5.5813953488372094,1.25349722040789
5.601328903654485,1.2709231315469012
5.621262458471762,1.287363628257495
5.641196013289036,1.3027908140635847
5.661129568106313,1.317178939465009
5.681063122923589,1.3305043298199897
5.700996677740864,1.3427453244815288
5.72093023255814,1.3538822256521816
5.740863787375416,1.3638972556554791
5.760797342192691,1.3727745215232192
5.780730897009967,1.3804999859737492
5.800664451827243,1.3870614440079196
5.820598006644518,1.3924485044837007
5.840531561461795,1.3966525761486703
5.8604651162790695,1.3996668577155484
5.880398671096346,1.4014863316621389
5.900332225913622,1.4021077615256037
5.920265780730897,1.4015296925443965
5.940199335548173,1.3997524555808216
5.960132890365449,1.396778174335703
5.980066445182724,1.3926107759449864
6.0,1.38725600512898
6.0199335548172765,1.38072144214962
6.039867109634551,1.3730165249215998
6.059800664451828,1.3641525757223851
6.0797342192691035,1.35414283305522
6.099667774086379,1.343002489342092
6.119601328903655,1.3307487352621379
6.139534883720931,1.3174008117097178
6.159468438538206,1.3029800705280845
6.179401993355482,1.2875100453846873
6.1993355481727574,1.2710165343969306
6.219269102990033,1.253527696398628
6.23920265780731,1.2350741630634143
6.259136212624584,1.2156891694787806
6.279069767441861,1.1954087061992986
6.299003322259137,1.1742716963068225
6.318936877076412,1.1523202015735452
6.338870431893688,1.1295996624628122
6.3588039867109645,1.1061591774095108
6.378737541528239,1.082051827584477
6.398671096345516,1.057335054138969
6.418604651162791,1.0320710956963268
6.438538205980066,1.006327494522674
6.458471760797343,0.9801776802272297
6.4784053156146175,0.9537016397974164
6.498338870431894,0.9269866819275314
6.51827242524917,0.9001283014551307
6.538205980066445,0.8732311455543441
6.558139534883721,0.8464100761346768
6.578073089700998,0.8197913112872764
6.598006644518272,0.7935136108441218
6.617940199335549,0.7677294450749479
6.6378737541528245,0.7426060490651155
6.6578073089701,0.718326216746683
6.677740863787376,0.6950886279600886
6.6976744186046515,0.6731074330637774
6.717607973421927,0.6526107527489297
6.737541528239203,0.6338377057680371
6.7574750830564785,0.6170335857072514
6.777408637873754,0.6024429102693738
6.797342192691031,0.5903003014668735
6.8172757475083055,0.5808195373010065
6.837209302325582,0.5741816061341148
6.857142857142858,0.5705230808176207
6.877076411960133,0.5699264354705105
6.897009966777409,0.5724138792977516
6.9169435215946855,0.5779458024162399
6.93687707641196,0.5864241119710124
6.956810631229236,0.5976998313171346
6.9767441860465125,0.6115836319775774
6.996677740863787,0.6278576612830697
7.016611295681064,0.6462871380690303
7.036544850498339,0.6666305869101417
7.056478405315615,0.6886480837264654
7.076411960132891,0.7121073384827301
7.096345514950166,0.7367877626080003
7.116279069767442,0.7624828460459145
7.136212624584719,0.7890012288383995
7.156146179401993,0.8161668358030654
7.17607973421927,0.8438183873747539
7.196013289036546,0.8718085315249409
7.21594684385382,0.9000027763861008
7.235880398671097,0.9282783480253822
7.2558139534883725,0.9565230547385469
7.275747508305648,0.9846342075103781
7.295681063122924,1.0125176240016072
7.3156146179402,1.0400867284296245
7.335548172757475,1.0672617500704653
7.355481727574752,1.0939690172429097
7.3754152823920265,1.1201403403391161
7.395348837209303,1.145712475861738
7.415282392026579,1.1706266628988022
7.435215946843854,1.1948282235904097
7.45514950166113,1.2182662196354246
7.475083056478406,1.2408931575674964
7.495016611295681,1.2626647362833843
7.514950166112956,1.2835396310628813
7.5348837209302335,1.30347930903845
7.554817275747508,1.3224478717339057
7.574750830564784,1.340411920885824
7.5946843853820605,1.3573404442885477
7.614617940199336,1.3732047188655456
7.634551495016611,1.3879782285724387
7.6544850498338874,1.4016365950862566
7.674418604651163,1.4141575195371276
7.694352159468439,1.4255207337998432
7.714285714285715,1.4357079600884084
7.73421926910299,1.4447028777925246
7.754152823920266,1.452491096665438
7.774086378737542,1.459060135621588
7.794019933554818,1.4643994065345292
7.813953488372093,1.4685002025422103
7.83388704318937,1.4713556904730232
7.853820598006645,1.4729609071020953
7.8737541528239205,1.4733127590376562
7.893687707641197,1.4724100261223025
7.913621262458472,1.4702533683168915
7.9335548172757475,1.4668453361163776
7.953488372093024,1.4621903846305437
7.9734219269103,1.4562948915479914
7.9933554817275745,1.4491671792935907
8.013289036544851,1.4408175417875082
8.033222591362128,1.4312582763219899
8.053156146179402,1.420503721191831
8.073089700996679,1.4085702998493363
8.093023255813954,1.3954765725073712
8.11295681063123,1.3812432962888548
8.132890365448505,1.3658934952217645
8.152823920265782,1.3494525416095708
8.172757475083056,1.331948250574522
8.192691029900331,1.3134109898790762
8.21262458471761,1.2938738074873837
8.232558139534884,1.2733725797380184
8.252491694352159,1.2519461834692516
8.272425249169435,1.2296366959723517
8.292358803986712,1.2064896272498413
8.312292358803987,1.1825541897231708
8.332225913621263,1.1578836112578204
8.352159468438538,1.1325354981329925
8.372093023255815,1.1065722553371684
8.392026578073091,1.080061572249942
8.411960132890366,1.0530769822605066
8.43189368770764,1.0256985049920162
8.451827242524917,0.9980133792736244
8.471760797342194,0.9701168934126155
8.491694352159469,0.9421133160696968
8.511627906976745,0.9141169252795333
8.53156146179402,0.8862531237271309
8.551495016611296,0.8586596137716673
8.571428571428573,0.8314875840420481
8.591362126245848,0.8049028286584957
8.611295681063122,0.7790866784114985
8.6312292358804,0.7542365697542794
8.651162790697676,0.7305660139608793
8.67109634551495,0.7083036617756392
8.691029900332227,0.6876911024581452
8.710963455149502,0.6689790145934704
8.730897009966778,0.652421333937896
8.750830564784053,0.6382672600148322
8.77076411960133,0.6267512168102964
8.790697674418604,0.6180813074102225
8.81063122923588,0.6124272906226692
8.830564784053157,0.6099095232978737
8.850498338870432,0.6105904810887599
8.870431893687707,0.6144702561494932
8.890365448504983,0.6214868210270434
8.91029900332226,0.6315209961328533
8.930232558139535,0.6444052280065098
8.950166112956811,0.6599347306133928
8.970099667774086,0.6778793893533416
8.990033222591363,0.6979950415677882
9.00996677740864,0.7200331803972347
9.029900332225914,0.7437486098968356
9.049833887043189,0.7689049830252906
9.069767441860467,0.7952784244130581
9.089700996677742,0.8226595773751296
9.109634551495017,0.850854450569575
9.129568106312293,0.8796844125406211
9.14950166112957,0.9089856248089395
9.169435215946844,0.9386081385318014
9.189368770764121,0.968414818709578
9.209302325581396,0.998280209057286
9.22923588039867,1.028089411252721
9.249169435215949,1.0577370233475187
9.269102990033224,1.087126161828505
9.289036544850498,1.1161675781559743
9.308970099667773,1.1447788718119114
9.328903654485051,1.1728837965320038
9.348837209302326,1.200411653381842
9.368770764119601,1.2272967628736857
9.388704318936878,1.253478007845043
9.408637873754152,1.278898438947925
9.428571428571429,1.3035049350700774
9.448504983388705,1.3272479116577276
9.46843853820598,1.3500810706264743
9.488372093023255,1.371961186268253
9.508305647840533,1.3928479222494774
9.528239202657808,1.4127036754293185
9.548172757475083,1.4314934427988986
9.56810631229236,1.449184708350405
9.588039867109636,1.4657473471324858
9.60797342192691,1.4811535441391728
9.627906976744187,1.4953777260194052
9.647840531561462,1.508396503889919
9.667774086378738,1.5201886257898463
9.687707641196015,1.5307349375383041
9.70764119601329,1.5400183509496326
9.727574750830565,1.5480238185305464
9.747508305647841,1.554738313932489
9.767441860465118,1.5601508175646888
9.787375415282392,1.5642523068921543
9.807308970099669,1.5670357510502595
9.827242524916944,1.5684961095070558
9.84717607973422,1.5686303345974726
9.867109634551497,1.5674373778428026
9.887043189368772,1.5649182000560062
9.906976744186046,1.561075785320726
9.926910299003321,1.555915159021077
9.9468438538206,1.5494434101922796
9.966777408637874,1.5416697185617918
9.986710963455149,1.532605386758022
10.006644518272426,1.5222638782821305
10.026578073089702,1.5106608619705002
10.046511627906977,1.4978142638239915
10.066445182724253,1.4837443272485369
10.086378737541528,1.4684736829442948
10.106312292358805,1.4520274299007154
10.126245847176081,1.4344332292086
10.146179401993356,1.4157214126916406
10.16611295681063,1.3959251086948528
10.186046511627907,1.3750803877521072
10.205980066445184,1.3532264312937377
10.225913621262459,1.330405727053959
10.245847176079735,1.3066642953978773
10.26578073089701,1.2820519514088946
10.285714285714286,1.256622608251548
10.305647840531563,1.2304346280354397
10.325581395348838,1.2035512271181887
10.345514950166113,1.1760409434427908
10.36544850498339,1.1479781740108397
10.385382059800666,1.1194437907991193
10.40531561461794,1.0905258431033586
10.425249169435217,1.0613203530998812
10.445182724252492,1.0319322088567802
10.465116279069768,1.0024761544023517
10.485049833887045,0.9730778688058855
10.50498338870432,0.9438751142763836
10.524916943521594,0.9150189154496638
10.544850498338871,0.8866747064873463
10.564784053156147,0.8590233475453547
10.584717607973422,0.8322618663641329
10.604651162790697,0.8066037246120549
10.624584717607974,0.7822783459270725
10.64451827242525,0.7595295827464638
10.664451827242525,0.7386127595246086
10.684385382059801,0.7197899378862697
10.704318936877076,0.7033231391643264
