Time (s),Filtered Signal
0.0,-0.019293994974301554
0.03337028824833703,0.10705725425552534
0.06674057649667406,0.24333411911637867
0.10011086474501109,0.3830419420960943
0.13348115299334812,0.4973606783892613
0.16685144124168516,0.5424793223399572
0.20022172949002218,0.4778526420906244
0.2335920177383592,0.2866001040664044
0.26696230598669624,-0.012180302589811976
0.3003325942350333,-0.36559640200525756
0.3337028824833703,-0.7029749569746966
0.3670731707317073,-0.9584624046554286
0.40044345898004435,-1.0903871612610203
0.4338137472283814,-1.0900921384805708
0.4671840354767184,-0.9787289964495187
0.5005543237250555,-0.7959471060466247
0.5339246119733925,-0.586600740578702
0.5672949002217295,-0.39009774633629846
0.6006651884700666,-0.23378385514418468
0.6340354767184035,-0.12944149486808626
0.6674057649667406,-0.07192529164712916
0.7007760532150776,-0.040414308581266815
0.7341463414634146,-0.0037510765437672707
0.7675166297117517,0.06963027684903589
0.8008869179600887,0.19935151959622185
0.8342572062084257,0.3829923218192701
0.8676274944567628,0.5932417723915052
0.9009977827050998,0.7847216074789375
0.9343680709534368,0.9086463146090538
0.9677383592017739,0.9298400666666901
1.001108647450111,0.8394975745377824
1.0344789356984478,0.6588737872970685
1.067849223946785,0.43272923238864447
1.101219512195122,0.21510606307986224
1.134589800443459,0.05245865788779489
1.167960088691796,-0.030277901785922576
1.2013303769401331,-0.036290464555857715
1.23470066518847,0.005822365581834716
1.268070953436807,0.053125868894857486
1.3014412416851442,0.06414158038998953
1.3348115299334813,0.01400915795545634
1.3681818181818182,-0.0963688087584718
1.4015521064301553,-0.24069816813346046
1.4349223946784924,-0.3772758186943171
1.4682926829268292,-0.4649081947479352
1.5016629711751663,-0.4785034348955412
1.5350332594235034,-0.4179558929010135
1.5684035476718403,-0.3066277541404973
1.6017738359201774,-0.18027466160598946
1.6351441241685145,-0.07165926745217545
1.6685144124168514,0.001866895766157223
1.7018847006651885,0.04211444258990498
1.7352549889135256,0.0640361574073626
1.7686252771618625,0.08403183730611373
1.8019955654101996,0.10952580627758056
1.8353658536585367,0.13558911258308376
1.8687361419068735,0.1499048521458406
1.9021064301552106,0.14233188025222945
1.9354767184035477,0.11272748124556896
1.9688470066518848,0.07201468503074379
2.002217294900222,0.03582598440520308
2.035587583148559,0.01474146016178432
2.0689578713968957,0.007307530652537052
2.102328159645233,0.00036229752787117746
2.13569844789357,-0.02323602056848583
2.1690687361419068,-0.07382597292346979
2.202439024390244,-0.14724964267515042
2.235809312638581,-0.22462414753796203
2.269179600886918,-0.2798491918131252
2.302549889135255,-0.291092277797824
2.335920177383592,-0.25061985076080456
2.369290465631929,-0.1683551345506442
2.4026607538802662,-0.06769596741753542
2.436031042128603,0.024221944539311195
2.46940133037694,0.08718580127901918
2.5027716186252773,0.11467642988549781
2.536141906873614,0.11400652317126751
2.569512195121951,0.10036106711801492
2.6028824833702884,0.08814402504848373
2.6362527716186253,0.08409970272587208
2.6696230598669626,0.08545788004738246
2.7029933481152995,0.0835356673694059
2.7363636363636363,0.07032553205658795
2.7697339246119737,0.044169735499565134
2.8031042128603105,0.011433269623731404
2.8364745011086474,-0.01638158420634149
2.8698447893569847,-0.027969547268591622
2.9032150776053216,-0.01677736327851113
2.9365853658536585,0.01738731853621393
2.969955654101996,0.06952552204134499
3.0033259423503327,0.13142345547143466
3.0366962305986696,0.19253230947502273
3.070066518847007,0.23962325216794525
3.1034368070953438,0.25701704971686923
3.1368070953436806,0.22953027081169924
3.170177383592018,0.14850085618583503
3.203547671840355,0.018504728666307313
3.2369179600886917,-0.1393008776568323
3.270288248337029,-0.29041230435226395
3.303658536585366,-0.39682431266025203
3.337028824833703,-0.429854493804878
3.37039911308204,-0.38040227621759637
3.403769401330377,-0.2621116588582891
3.437139689578714,-0.10624189357488029
3.470509977827051,0.04922451739860961
3.503880266075388,0.17156695523697973
3.537250554323725,0.24202049095999845
3.5706208425720622,0.2588910882607587
3.603991130820399,0.2352798634627032
3.637361419068736,0.19322171862186746
3.6707317073170733,0.15643415167551417
3.70410199556541,0.14346885719371283
3.737472283813747,0.16252276038662647
3.7708425720620844,0.2088380210614954
3.8042128603104213,0.2653937926083373
3.8375831485587586,0.30715403266395974
3.8709534368070955,0.3082970449087505
3.9043237250554323,0.25073610368631144
3.9376940133037697,0.13128900535130414
3.9710643015521065,-0.035325529527919404
4.004434589800444,-0.2194483390781782
4.037804878048781,-0.3850277820859208
4.071175166297118,-0.5009447951134641
4.1045454545454545,-0.5508171430485932
4.137915742793791,-0.537385386619444
4.171286031042128,-0.4798379113158061
4.204656319290466,-0.40546129438571255
4.238026607538803,-0.33929072384433767
4.27139689578714,-0.29591961429838537
4.304767184035477,-0.27625582961746564
4.3381374722838135,-0.26965780485835583
4.371507760532151,-0.25975461631386676
4.404878048780488,-0.2312204567619253
4.438248337028825,-0.17501810985851127
4.471618625277162,-0.09072841248225032
4.504988913525499,0.014116033690258397
4.538359201773836,0.12681211374207305
4.571729490022173,0.23311472246170498
4.60509977827051,0.32058432862830516
4.638470066518847,0.3809682979673177
4.671840354767184,0.41140698908191503
4.705210643015521,0.41456153971919907
4.738580931263858,0.39783965229760876
4.771951219512196,0.3718442106581336
4.8053215077605325,0.3481488385106926
4.838691796008869,0.3366274277516168
4.872062084257206,0.34282423746185514
4.905432372505543,0.3661104162987701
4.93880266075388,0.39941134527199973
4.972172949002218,0.43092288983595906
5.005543237250555,0.4474847444996833
5.0389135254988915,0.4384630534399672
5.072283813747228,0.39859903805502633
5.105654101995565,0.32864448496146015
5.139024390243902,0.23364026377513644
5.17239467849224,0.11987651641050118
5.205764966740577,-0.007761666871555232
5.239135254988914,-0.14660974914703945
5.2725055432372505,-0.2947920288027418
5.305875831485587,-0.4483958234642292
5.339246119733925,-0.5988923435156404
5.372616407982262,-0.7323629067174023
5.405986696230599,-0.8312451027037512
5.439356984478936,-0.8782113787428538
5.472727272727273,-0.8609980159778355
5.5060975609756095,-0.7768024969886933
5.539467849223947,-0.635134937234493
5.572838137472284,-0.45836573496460775
5.606208425720621,-0.27938166002625225
5.639578713968958,-0.13585861806331803
5.672949002217295,-0.061139019319251094
5.706319290465632,-0.07296353235935224
5.7396895787139695,-0.16317760456840996
5.773059866962306,-0.2930525471759715
5.806430155210643,-0.3986503794030306
5.83980044345898,-0.40779775756034164
5.873170731707317,-0.2651590146788884
5.906541019955654,0.04328347002060013
5.939911308203992,0.4773026911147191
5.9732815964523285,0.9491016591532334
6.006651884700665,1.3497667424856363
6.040022172949002,1.5861867243768262
6.073392461197339,1.61308568242582
6.106762749445676,1.4460955643747795
6.140133037694014,1.1503525191243544
6.173503325942351,0.8106120807680903
6.2068736141906875,0.4971888411986167
6.240243902439024,0.24288122070654364
6.273614190687361,0.03952260553034044
6.306984478935698,-0.14706242074273942
6.340354767184036,-0.35285589102464887
6.373725055432373,-0.5939302296961458
6.40709534368071,-0.8560268404557551
6.4404656319290465,-1.0982989434876407
6.473835920177383,-1.2682633725058674
6.507206208425721,-1.3213898280511058
6.540576496674058,-1.2379188440947864
6.573946784922395,-1.0310155791058233
6.607317073170732,-0.7435033942599605
6.640687361419069,-0.4343657892480373
6.674057649667406,-0.15989868304231064
6.707427937915743,0.043482804546967034
6.74079822616408,0.1683122313042955
6.774168514412417,0.23381555324003644
6.807538802660754,0.27386039012122737
6.840909090909091,0.32067314235932703
6.874279379157428,0.3913374417830437
6.9076496674057655,0.482374916893864
6.941019955654102,0.5738154516195034
6.974390243902439,0.6400104085350102
7.007760532150776,0.6618519426024192
7.041130820399113,0.6349618133358832
7.07450110864745,0.5706147557667982
7.107871396895788,0.48960442126039916
7.1412416851441245,0.4124524737388669
7.174611973392461,0.35089149723879615
7.207982261640798,0.3046600528282798
7.241352549889135,0.26469824156902066
7.274722838137472,0.22032355211560892
7.30809312638581,0.16584467215284984
7.341463414634147,0.10260277848428674
7.3748337028824835,0.03535956152997793
7.40820399113082,-0.03443061836340387
7.441574279379157,-0.11377732300017128
7.474944567627494,-0.21767907901541667
7.508314855875832,-0.3620611310842815
7.541685144124169,-0.5530533919608451
7.575055432372506,-0.7780727634442661
7.6084257206208425,-1.0039494672342806
7.641796008869179,-1.1843434754536706
7.675166297117517,-1.2743023617375147
7.708536585365854,-1.2461026637756487
7.741906873614191,-1.0993595725097836
7.775277161862528,-0.860574019951929
7.808647450110865,-0.5720457966671827
7.842017738359202,-0.2752430750578807
7.875388026607539,0.003391478256291113
7.908758314855876,0.25736218171284075
7.942128603104213,0.4937879586432102
7.97549889135255,0.719911712680901
8.008869179600888,0.9304872503791561
8.042239467849225,1.1036154187894416
8.075609756097561,1.2079363083968346
8.108980044345898,1.2177756021992008
8.142350332594235,1.1282978875626337
8.175720620842572,0.9623108303378032
8.209090909090909,0.7642667084792361
8.242461197339246,0.5832578841782473
8.275831485587583,0.45235825272577446
8.30920177383592,0.3738613660216969
8.342572062084257,0.3177291415101709
8.375942350332595,0.23485285699025146
8.409312638580932,0.08007024041430054
8.442682926829269,-0.16476912266033553
8.476053215077606,-0.47794180842189693
8.509423503325943,-0.8014910130624495
8.54279379157428,-1.0607269084570048
8.576164079822616,-1.191908119692632
8.609534368070953,-1.1664695336611204
8.64290465631929,-1.001321289262588
8.676274944567627,-0.7507762387446022
8.709645232815964,-0.4839099698919402
8.743015521064303,-0.2577049942888654
8.77638580931264,-0.09796680524251788
8.809756097560976,0.004091786879552058
8.843126385809313,0.07945990607591648
8.87649667405765,0.1605061062159934
8.909866962305987,0.26261832041661504
8.943237250554324,0.37710205724462503
8.97660753880266,0.4777535576415494
9.009977827050998,0.5363906799454317
9.043348115299334,0.5384711986119718
9.076718403547671,0.49066244720401414
9.110088691796008,0.41703060778635814
9.143458980044347,0.3465600199685632
9.176829268292684,0.2988632092858974
9.21019955654102,0.2753703768131913
9.243569844789358,0.26012631546607023
9.276940133037694,0.2293370050027274
9.310310421286031,0.16446832155321145
9.343680709534368,0.062098497885443
9.377050997782705,-0.06435522315447892
9.410421286031042,-0.19146453243503694
9.443791574279379,-0.2970109259827991
9.477161862527716,-0.3692887872612758
9.510532150776053,-0.4097288265406122
9.543902439024391,-0.42838651754123835
9.577272727272728,-0.43621530707108175
9.610643015521065,-0.43967659908242884
9.644013303769402,-0.4410307824342931
9.677383592017739,-0.4430612283866549
9.710753880266076,-0.4531978142937636
9.744124168514412,-0.4818871118136934
9.77749445676275,-0.5340992593931698
9.810864745011086,-0.5986021558283057
9.844235033259423,-0.6430455531339354
9.87760532150776,-0.6210531888508631
9.910975609756099,-0.4908083116522658
9.944345898004435,-0.23689590192158033
9.977716186252772,0.11649907498116759
10.01108647450111,0.5096177816691542
10.044456762749446,0.8680549360423445
10.077827050997783,1.130893301856329
10.11119733924612,1.27216512489088
10.144567627494457,1.3053095885748915
10.177937915742794,1.2694320512752857
10.21130820399113,1.205541252578844
10.244678492239467,1.1353909912335738
10.278048780487804,1.053100953713725
10.311419068736143,0.9323469020070416
10.34478935698448,0.7439577327110551
10.378159645232817,0.4743347160455956
10.411529933481154,0.13592059120535924
10.44490022172949,-0.23422072336012606
10.478270509977827,-0.5858196991488193
10.511640798226164,-0.8710294406651041
10.545011086474501,-1.057903155779415
10.578381374722838,-1.1374974431315363
10.611751662971175,-1.1234953786681803
10.645121951219512,-1.0457226977720153
10.67849223946785,-0.9401521614605295
10.711862527716187,-0.8382746256429952
10.745232815964524,-0.7585957766905432
10.778603104212861,-0.702609257839655
10.811973392461198,-0.656591714715648
10.845343680709535,-0.598773791113727
10.878713968957872,-0.5093050439969594
10.912084257206208,-0.3789915118065655
10.945454545454545,-0.21306374371889625
10.978824833702882,-0.0284489716012392
11.012195121951219,0.1537807109158031
11.045565410199556,0.3166670700848109
11.078935698447895,0.4520201690385355
11.112305986696231,0.5594519252654316
11.145676274944568,0.6412430242778299
11.179046563192905,0.6970230735379755
11.212416851441242,0.7222227612309726
11.245787139689579,0.7116426302453689
11.279157427937916,0.6658565693831545
11.312527716186253,0.5958134888586187
11.34589800443459,0.5215377395465434
11.379268292682926,0.46417945862612037
11.412638580931263,0.434972159350494
11.4460088691796,0.4272792146362587
11.479379157427939,0.41701137676395567
11.512749445676276,0.3724455678865777
11.546119733924613,0.26912749441590456
11.57949002217295,0.10223708344013761
11.612860310421286,-0.11028246681256067
11.646230598669623,-0.3355936029694079
11.67960088691796,-0.5403499747412208
11.712971175166297,-0.7033290895209124
11.746341463414634,-0.8192122096726631
11.77971175166297,-0.8920338938579687
11.813082039911308,-0.923467851693483
11.846452328159646,-0.9045132875454642
11.879822616407983,-0.8169990884083186
11.91319290465632,-0.6449047004039177
11.946563192904657,-0.38888252867983547
11.979933481152994,-0.07480232504887165
12.01330376940133,0.24970459508490478
12.046674057649668,0.5298116290037614
12.080044345898004,0.721938949150588
12.113414634146341,0.8069220940012041
12.146784922394678,0.7921954755997214
12.180155210643015,0.7035888572933728
12.213525498891352,0.5724847635907497
12.24689578713969,0.4252399787558414
12.280266075388028,0.27894385090695906
12.313636363636364,0.14316929430516345
12.347006651884701,0.02424390242425964
12.380376940133038,-0.07176244653633354
12.413747228381375,-0.1391410022023385
12.447117516629712,-0.17496387534511848
12.480487804878049,-0.18158026255827006
12.513858093126386,-0.16724407264411242
12.547228381374723,-0.14437385016058024
12.58059866962306,-0.12632335241156079
12.613968957871396,-0.12398283986083072
12.647339246119735,-0.14309201650561215
12.680709534368072,-0.18256364272251732
12.714079822616409,-0.23402498398633265
12.747450110864746,-0.2831055252614456
12.780820399113082,-0.3130580100781758
12.81419068736142,-0.31050789147605035
12.847560975609756,-0.27162830601167154
12.880931263858093,-0.20578139005938226
12.91430155210643,-0.133819280366279
12.947671840354767,-0.08031263213975577
12.981042128603104,-0.062244766177621424
13.014412416851442,-0.07938526205287157
13.04778270509978,-0.11176657707740367
13.081152993348116,-0.12674991514535025
13.114523281596453,-0.09329779809797697
13.14789356984479,0.003088887536937292
13.181263858093127,0.15220918348027776
13.214634146341464,0.3220357966763848
13.2480044345898,0.47123322619293184
13.281374722838137,0.564996464016168
13.314745011086474,0.586521973821427
13.348115299334811,0.5393393202734232
13.381485587583148,0.4410436161963512
13.414855875831487,0.3134056371576678
13.448226164079824,0.1748357945924172
13.48159645232816,0.038472910557929695
13.514966740576497,-0.08515027296511786
13.548337028824834,-0.18486301679057338
13.581707317073171,-0.24875188342173066
13.615077605321508,-0.2678806257859622
13.648447893569845,-0.24113888160194616
13.681818181818182,-0.17734920353394332
13.715188470066519,-0.09262240468742061
13.748558758314855,-0.004370496504065374
13.781929046563192,0.07424921757663412
13.815299334811531,0.13612414455013178
13.848669623059868,0.17772284545403694
13.882039911308205,0.19499445573368784
13.915410199556542,0.1813558493233867
13.948780487804878,0.12986664812145274
13.982150776053215,0.03854840054834392
14.015521064301552,-0.08464349096390869
14.048891352549889,-0.22079076486189783
14.082261640798226,-0.3442762546469713
14.115631929046563,-0.43061775075095593
14.1490022172949,-0.46418003355698156
14.182372505543238,-0.4422838290931915
14.215742793791575,-0.3742842858928014
14.249113082039912,-0.27674346742188577
14.282483370288249,-0.1674416474014716
14.315853658536586,-0.06094592619239637
14.349223946784923,0.032950116201936004
14.38259423503326,0.10841914873008557
14.415964523281596,0.1620940750498352
14.449334811529933,0.19246875354706122
14.48270509977827,0.20070337728484144
14.516075388026607,0.19196036266035024
14.549445676274944,0.17564132658267473
14.582815964523283,0.1632323765248103
14.61618625277162,0.16373980760905907
14.649556541019956,0.1782723929470029
14.682926829268293,0.1964198436892603
14.71629711751663,0.19707967111790534
14.749667405764967,0.15504086244175025
14.783037694013304,0.052172198472488614
14.81640798226164,-0.11068670146799162
14.849778270509978,-0.3067316855121289
14.883148558758315,-0.48601071144431307
14.916518847006651,-0.5894389015290451
14.949889135254988,-0.5701469276278146
14.983259423503327,-0.41381631761156007
15.016629711751664,-0.14862553551336
15.05,0.16094798545419647
15.083370288248338,0.43525708185012524
15.116740576496674,0.6073789990934614
15.150110864745011,0.6462686797932495
15.183481152993348,0.5657007411609326
15.216851441241685,0.41586871405711395
15.250221729490022,0.26195184191218224
15.283592017738359,0.15901521752651376
15.316962305986696,0.13327471688839163
15.350332594235034,0.17625489932565955
15.383702882483371,0.2526681294700624
15.417073170731708,0.31749433975685903
15.450443458980045,0.33471574977158924
15.483813747228382,0.2902463737549849
15.517184035476719,0.19441258033618694
15.550554323725056,0.07372314660784225
15.583924611973393,-0.04392892644738991
15.61729490022173,-0.14366158388710157
15.650665188470066,-0.23062390254810586
15.684035476718403,-0.3258401628979474
15.71740576496674,-0.452364288744935
15.750776053215079,-0.6182956680248233
15.784146341463416,-0.8054211685432131
15.817516629711752,-0.9701637589783931
15.85088691796009,-1.057857966035676
15.884257206208426,-1.0248029096081657
15.917627494456763,-0.8583237528780961
15.9509977827051,-0.5853836812877605
15.984368070953437,-0.26514375377292654
16.017738359201775,0.031919858146530505
16.05110864745011,0.24954625649325338
16.08447893569845,0.36489109829440197
16.117849223946784,0.3933321907287865
16.151219512195123,0.37741806739196215
16.184589800443458,0.36559566728407783
16.217960088691797,0.39057311192552774
16.251330376940132,0.45668026516011867
16.28470066518847,0.5409158132780881
16.31807095343681,0.6059902179467805
16.351441241685144,0.6186438042404018
16.384811529933483,0.5649523564268267
16.418181818181818,0.45650406273613287
16.451552106430157,0.3257825615586341
16.48492239467849,0.21356317554024787
16.51829268292683,0.15375626251015734
16.551662971175165,0.16124424753281993
16.585033259423504,0.22643967123734213
16.61840354767184,0.3177490744001103
16.651773835920178,0.3908730872376477
16.685144124168513,0.40227744231095786
16.71851441241685,0.32315172995478786
16.75188470066519,0.14973115528879996
16.785254988913525,-0.0936443465651438
16.818625277161864,-0.36049394682366526
16.8519955654102,-0.5958732366345217
16.885365853658538,-0.75327922342428
16.918736141906873,-0.8086320681319491
16.95210643015521,-0.7661495772781752
16.985476718403547,-0.6542737481929037
17.018847006651885,-0.5138974529567021
17.05221729490022,-0.38394414665787924
17.08558758314856,-0.2896901974015483
17.118957871396898,-0.2373412993385565
17.152328159645233,-0.21556569057492347
17.18569844789357,-0.20231058478573322
17.219068736141907,-0.17399687304601388
17.252439024390245,-0.1140794607529694
17.28580931263858,-0.01860831578043801
17.31917960088692,0.10250869390416162
