Time (s),Filtered Signal
0.0,0.055319907379660894
0.033370535714285714,0.01075879568294082
0.06674107142857143,0.046864459307721866
0.10011160714285713,0.21132050242938222
0.13348214285714285,0.4976126763872893
0.16685267857142858,0.846374556195856
0.20022321428571427,1.1675387797189882
0.23359375,1.3740261054181382
0.2669642857142857,1.4132445665006967
0.30033482142857143,1.2838722822495956
0.33370535714285715,1.0317552994621189
0.36707589285714287,0.7277362726654563
0.40044642857142854,0.4380799794685619
0.43381696428571426,0.20123519327810943
0.4671875,0.0211685973332567
0.5005580357142857,-0.1212031564868189
0.5339285714285714,-0.24650253688043772
0.5672991071428571,-0.3584614202816676
0.6006696428571429,-0.4394397114999296
0.6340401785714286,-0.46224764385969824
0.6674107142857143,-0.41081679100872187
0.70078125,-0.2968811295596871
0.7341517857142857,-0.16197573979683277
0.7675223214285715,-0.06241261610765377
0.8008928571428571,-0.04456201524209682
0.8342633928571428,-0.12323889417148148
0.8676339285714285,-0.27434459908471887
0.9010044642857142,-0.4453799518903561
0.934375,-0.5784353468517213
0.9677455357142857,-0.6345658683870432
1.0011160714285714,-0.6085505742262322
1.0344866071428571,-0.5281388970241274
1.0678571428571428,-0.43902885775343686
1.1012276785714286,-0.3827336161171877
1.1345982142857143,-0.37702534581289365
1.16796875,-0.40720132797421743
1.2013392857142857,-0.4317799941201397
1.2347098214285714,-0.40022918737209995
1.2680803571428572,-0.27531969481117996
1.3014508928571429,-0.05077228888626926
1.3348214285714286,0.24310953372879998
1.3681919642857143,0.5480463706011258
1.4015625,0.7970123326793285
1.4349330357142858,0.9364350569061725
1.4683035714285715,0.9430427405814911
1.5016741071428572,0.8296403929905708
1.535044642857143,0.6385702030056193
1.5684151785714286,0.42609214131651757
1.6017857142857141,0.2438734239115031
1.6351562499999999,0.12433381071216015
1.6685267857142856,0.07466005794172785
1.7018973214285713,0.08058850032853329
1.735267857142857,0.11698312454827428
1.7686383928571427,0.15952925494579706
1.8020089285714285,0.19184515752895315
1.8353794642857142,0.20520419072027563
1.86875,0.19260504400573233
1.9021205357142856,0.14271851025517998
1.9354910714285714,0.039830283546604735
1.968861607142857,-0.1276588922322426
2.002232142857143,-0.35373982635379797
2.0356026785714287,-0.6048792003243194
2.0689732142857142,-0.822427944393744
2.10234375,-0.9403229974778782
2.1357142857142857,-0.9120688818842495
2.169084821428571,-0.734121133797533
2.202455357142857,-0.4526875920023738
2.2358258928571426,-0.14845385955849275
2.2691964285714286,0.09497490016231222
2.302566964285714,0.22437478008248699
2.3359375,0.23625639028110956
2.3693080357142855,0.17370938308860573
2.4026785714285714,0.10346850946308062
2.436049107142857,0.08507854726039336
2.469419642857143,0.14642821459615615
2.5027901785714284,0.27519957852032634
2.5361607142857143,0.4274558727719478
2.56953125,0.5473749512136465
2.6029017857142858,0.589048915368543
2.6362723214285713,0.5324528407423524
2.669642857142857,0.38923873128086833
2.7030133928571427,0.19779163893788274
2.7363839285714286,0.009878680122150013
2.769754464285714,-0.12684079674788504
2.803125,-0.18504503057540655
2.8364955357142856,-0.16728068361071322
2.8698660714285715,-0.1049662385155962
2.903236607142857,-0.04641668720514801
2.936607142857143,-0.037701198451545646
2.9699776785714285,-0.10354774114599535
3.0033482142857144,-0.23623463982442508
3.03671875,-0.39761227843338603
3.070089285714286,-0.5339102962868706
3.1034598214285714,-0.5972045016696376
3.1368303571428573,-0.564233989883882
3.170200892857143,-0.44446606393014415
3.2035714285714283,-0.27442793594138615
3.2369419642857142,-0.10171836175227564
3.2703124999999997,0.03354825487267318
3.3036830357142857,0.1118840822214294
3.337053571428571,0.13771455785478753
3.370424107142857,0.1333600665628635
3.4037946428571426,0.12798734028702566
3.4371651785714286,0.14670881315082426
3.470535714285714,0.20335175237266356
3.50390625,0.2977897502594346
3.5372767857142855,0.41686897934939204
3.5706473214285714,0.5376579000710653
3.604017857142857,0.6324610100349531
3.637388392857143,0.6754865378969542
3.6707589285714284,0.6503672807610562
3.7041294642857143,0.5562608824701596
3.7375,0.4094257993496003
3.7708705357142858,0.2383244046106213
3.8042410714285713,0.07340955430914713
3.837611607142857,-0.06395142657670742
3.8709821428571427,-0.16786616585681124
3.9043526785714286,-0.2463725505359237
3.937723214285714,-0.31324714809478776
3.97109375,-0.3783015191672015
4.004464285714286,-0.44185634145319647
4.0378348214285715,-0.4960180967668219
4.0712053571428575,-0.5309018788007742
4.1045758928571425,-0.5411133496000055
4.1379464285714285,-0.5283193907599412
4.171316964285714,-0.4988690578080235
4.2046875,-0.45879569674443094
4.238058035714285,-0.4099254429581115
4.271428571428571,-0.3496127895787557
4.304799107142857,-0.2739387693410197
4.338169642857142,-0.18193602559058766
4.371540178571428,-0.07793784864646094
4.404910714285714,0.029412950304744966
4.43828125,0.13070924354321314
4.471651785714285,0.21952038849331165
4.505022321428571,0.2940051477948855
4.538392857142857,0.355570456455935
4.571763392857143,0.40567373779320587
4.605133928571428,0.4429931365025142
4.638504464285714,0.462867984834099
4.671875,0.45942552978834816
4.705245535714286,0.4291399903274642
4.738616071428571,0.37373158387514377
4.771986607142857,0.30072971993872694
4.805357142857143,0.22134158493397038
4.838727678571429,0.14667076886563135
4.872098214285714,0.08408251846998414
4.90546875,0.03532599241546228
4.938839285714286,-0.0028959411125097203
4.972209821428572,-0.03637633190930597
5.005580357142857,-0.07019954880147676
5.038950892857143,-0.10639807748085664
5.072321428571429,-0.14343762558301432
5.105691964285715,-0.17749400498078224
5.1390625,-0.20455697893009944
5.172433035714286,-0.2220577928124879
5.2058035714285715,-0.22915997378663003
5.2391741071428575,-0.22579364601074217
5.2725446428571425,-0.2113505239672612
5.3059151785714285,-0.1841638516915869
5.339285714285714,-0.14236482237206716
5.3726562499999995,-0.08578599697986285
5.406026785714285,-0.017847208997910122
5.439397321428571,0.053740281192898476
5.472767857142857,0.11802769878731795
5.506138392857142,0.16332238564087292
5.539508928571428,0.18015380104555154
5.572879464285714,0.1636726065094781
5.60625,0.11485093311580093
5.639620535714285,0.04035806731752987
5.672991071428571,-0.04871473424514994
5.706361607142857,-0.13900341259774787
5.739732142857143,-0.21748826985325162
5.773102678571428,-0.27392806247647045
5.806473214285714,-0.3023355355081632
5.83984375,-0.3010410356933836
5.873214285714286,-0.27161794312406146
5.906584821428571,-0.21754671393141156
5.939955357142857,-0.14342148863744622
5.973325892857143,-0.05478677966453394
6.006696428571429,0.041994596814186005
6.040066964285714,0.1404144269292575
6.0734375,0.23487238557971854
6.106808035714286,0.3212445593747467
6.140178571428572,0.3961970199714671
6.173549107142857,0.4554333325673909
6.206919642857143,0.49214851264645354
6.240290178571429,0.4972445594624419
6.273660714285715,0.46198978898190995
6.30703125,0.3822634259480665
6.340401785714286,0.262292321353071
6.3737723214285715,0.11567512208203301
6.407142857142857,-0.03733679026889188
6.4405133928571425,-0.17547010249039913
6.4738839285714285,-0.28262259547400165
6.507254464285714,-0.3519581362203238
6.5406249999999995,-0.386300444948697
6.573995535714285,-0.3950158392996989
6.607366071428571,-0.38910959819887614
6.640736607142857,-0.37679799868777014
6.674107142857142,-0.3612498529981047
6.707477678571428,-0.34097117384235903
6.740848214285714,-0.3120996968335419
6.77421875,-0.2712098881186522
6.807589285714285,-0.21730353456488943
6.840959821428571,-0.15231776284357174
6.874330357142857,-0.08030611764838053
6.907700892857143,-0.0059874667957257885
6.941071428571428,0.06661388622016248
6.974441964285714,0.1350579753644491
7.0078125,0.19886665147056615
7.041183035714286,0.2593801422166793
7.074553571428571,0.31889057084484146
7.107924107142857,0.3788357500385859
7.141294642857143,0.4373320236521718
7.174665178571429,0.487158203700557
7.208035714285714,0.5157931738789431
7.24140625,0.5085820428639349
7.274776785714286,0.45451992151175546
7.308147321428572,0.3522984427901476
7.341517857142857,0.21337057095216216
7.374888392857143,0.059692856950666125
7.408258928571429,-0.08366779326281798
7.441629464285715,-0.197966580037729
7.475,-0.27757727038273144
7.508370535714286,-0.3304046701909374
7.5417410714285715,-0.3714026411947414
7.575111607142857,-0.41257223202726356
7.6084821428571425,-0.4550562865308637
7.6418526785714285,-0.4879964242047388
7.675223214285714,-0.4949518243311333
7.7085937499999995,-0.4640515191860493
7.741964285714285,-0.3955367818725758
7.775334821428571,-0.3017475276651055
7.808705357142857,-0.19931655914766158
7.842075892857142,-0.09849247523342958
7.875446428571428,0.0032809554189302884
7.908816964285714,0.11877439003945744
7.9421875,0.260207836250374
7.975558035714285,0.42643259658287713
8.008928571428571,0.5958225501978359
8.042299107142856,0.7296531682150013
8.075669642857143,0.7850356511209097
8.109040178571428,0.7314505558829895
8.142410714285715,0.5633368594529183
8.17578125,0.30356121838653394
8.209151785714285,-0.00282974407005203
8.242522321428572,-0.3010964278718142
8.275892857142857,-0.5404493198382988
8.309263392857142,-0.6848124944160202
8.342633928571429,-0.7189778091691089
8.376004464285714,-0.6502064910511101
8.409375,-0.5057493660451496
8.442745535714286,-0.3263641326274278
8.47611607142857,-0.1560292889199316
8.509486607142858,-0.02948603188262553
8.542857142857143,0.038627386489401706
8.576227678571428,0.05819792572415172
8.609598214285715,0.05831043417637371
8.64296875,0.07304459888879711
8.676339285714285,0.12409487759456476
8.709709821428572,0.20846383354945489
8.743080357142857,0.29783400271400134
8.776450892857143,0.3508553573572498
8.809821428571428,0.33320035359344236
8.843191964285714,0.23616393738754202
8.8765625,0.08487839957813859
8.909933035714285,-0.06831557609423687
8.94330357142857,-0.1632640337371799
8.976674107142857,-0.15638202176195823
9.010044642857142,-0.039809711054219654
9.04341517857143,0.15298976584473084
9.076785714285714,0.358053277905427
9.11015625,0.5042176221051081
9.143526785714286,0.5396821321668971
9.176897321428571,0.4511403988706896
9.210267857142856,0.26775842422264545
9.243638392857143,0.04849924605426456
9.277008928571428,-0.14179497112030223
9.310379464285715,-0.2574767560878885
9.34375,-0.28787151435025377
9.377120535714285,-0.25749772315156433
9.410491071428572,-0.21138539522836663
9.443861607142857,-0.19267161130512195
9.477232142857142,-0.22280540445701313
9.510602678571429,-0.2930747136995454
9.543973214285714,-0.37062535544229813
9.57734375,-0.4153811080380323
9.610714285714286,-0.3995189932319552
9.64408482142857,-0.3205252713684511
9.677455357142858,-0.2023497114415074
9.710825892857143,-0.08481516110640343
9.744196428571428,-0.00648135118104774
9.777566964285715,0.011476516458590366
9.8109375,-0.02626041930465652
9.844308035714285,-0.09152422958292433
9.877678571428572,-0.14461402280464813
9.911049107142857,-0.150758747736136
9.944419642857143,-0.09419938740460602
9.977790178571428,0.01602393192853131
10.011160714285714,0.15092008454289418
10.04453125,0.27458453775688196
10.077901785714285,0.359204187756276
10.11127232142857,0.3950335662420516
10.144642857142857,0.39110207613741277
10.178013392857142,0.36724658150675993
10.21138392857143,0.34231306824910734
10.244754464285714,0.324781432099225
10.278125,0.3101451319919688
10.311495535714286,0.2855180634339809
10.344866071428571,0.23836085911664265
10.378236607142856,0.16459030492434445
10.411607142857143,0.07207165404638992
10.444977678571428,-0.02208281693777718
10.478348214285715,-0.09904616120142912
10.51171875,-0.14699617651327895
10.545089285714285,-0.1666687811249009
10.578459821428572,-0.17068027797746832
10.611830357142857,-0.1764965126078503
10.645200892857142,-0.19629842041982576
10.678571428571429,-0.22905066115932327
10.711941964285714,-0.2594508352717474
10.745312499999999,-0.2650772035709399
10.778683035714286,-0.22857179768529187
10.81205357142857,-0.14861725545607485
10.845424107142858,-0.04372263340427936
10.878794642857143,0.05354603972606083
10.912165178571428,0.10929426230773139
10.945535714285715,0.10193564160921832
10.97890625,0.030595781999371036
11.012276785714285,-0.08483544754307273
11.045647321428572,-0.21102023024605235
11.079017857142857,-0.31202129237807136
11.112388392857143,-0.3593909911836296
11.145758928571428,-0.33868389482247935
11.179129464285714,-0.25159798156603613
11.2125,-0.11433044621773465
11.245870535714285,0.04685096279074007
11.27924107142857,0.20190707899643323
11.312611607142857,0.32420385040576705
11.345982142857142,0.39707432738110365
11.37935267857143,0.41775655372444614
11.412723214285714,0.3969216496520353
11.44609375,0.35343229626775224
11.479464285714286,0.3061911102927832
11.512834821428571,0.2666886720715216
11.546205357142856,0.23579491739554623
11.579575892857143,0.20610730855763143
11.612946428571428,0.1679638125529301
11.646316964285715,0.1151567768173776
11.6796875,0.04697877457835188
11.713058035714285,-0.03382375704289788
11.746428571428572,-0.12444941228146916
11.779799107142857,-0.22310983665540626
11.813169642857142,-0.3261965922274873
11.846540178571429,-0.4236067720526902
11.879910714285714,-0.49660981573632973
11.913281249999999,-0.5216946756899438
11.946651785714286,-0.48004425315332844
11.98002232142857,-0.368154917803504
12.013392857142858,-0.20348576074435337
12.046763392857143,-0.021113343870300765
12.080133928571428,0.13796898866196797
12.113504464285715,0.24176858767631268
12.146875,0.278518481622652
12.180245535714285,0.2591365422648061
12.213616071428572,0.2101400745559907
12.246986607142857,0.16069037791347177
12.280357142857143,0.1299273514134072
12.313727678571428,0.12027362142858834
12.347098214285714,0.11933098475695979
12.38046875,0.10883133927415413
12.413839285714285,0.07576297986101081
12.44720982142857,0.01986798650290211
12.480580357142857,-0.046269495211172934
12.513950892857142,-0.10427604447075994
12.54732142857143,-0.1399435004755548
12.580691964285714,-0.1502054360120697
12.6140625,-0.1430355838149161
12.647433035714286,-0.13048732477928515
12.680803571428571,-0.11943299875204434
12.714174107142856,-0.10619359238241674
12.747544642857143,-0.07896809123849827
12.780915178571428,-0.02701270786311199
12.814285714285713,0.04906574851923155
12.84765625,0.13277716413322088
12.881026785714285,0.19678962031420416
12.914397321428572,0.21573003563595294
12.947767857142857,0.18008818094369022
12.981138392857142,0.10342595736884476
13.014508928571429,0.01838082625566498
13.047879464285714,-0.03715596114148384
13.081249999999999,-0.037072562116280294
13.114620535714286,0.021083551488505384
13.14799107142857,0.1151630038660689
13.181361607142858,0.20875714962178465
13.214732142857143,0.2677440232296551
13.248102678571428,0.2751805162709233
13.281473214285715,0.23769063291394946
13.31484375,0.18055909675178888
13.348214285714285,0.1339014324112932
13.381584821428572,0.11638103019599084
13.414955357142857,0.12434546098889324
13.448325892857143,0.13222610991666653
13.481696428571428,0.10503579861341858
13.515066964285714,0.017653031956131708
13.5484375,-0.12877609457139963
13.581808035714285,-0.3028039037370617
13.61517857142857,-0.45497681682434016
13.648549107142857,-0.5417863955083065
13.681919642857142,-0.549378125749867
13.71529017857143,-0.5036990118072118
13.748660714285714,-0.45968752731445195
13.78203125,-0.4728360238161604
13.815401785714286,-0.5664789236941349
13.848772321428571,-0.7119126803504575
13.882142857142856,-0.8334016941181243
13.915513392857143,-0.838316112529455
13.948883928571428,-0.6598313617086782
13.982254464285713,-0.292365487303474
14.015625,0.1977689867118529
14.048995535714285,0.692925802665246
14.082366071428572,1.067716931450961
14.115736607142857,1.2365274453968584
14.149107142857142,1.18401454052316
14.182477678571429,0.9657665677687265
14.215848214285714,0.6802547338829641
14.249218749999999,0.42611953973054434
14.282589285714286,0.26453585702533
14.31595982142857,0.20251258445936965
14.349330357142858,0.2019571332549796
14.382700892857143,0.20701428712478495
14.416071428571428,0.17465852846315094
14.449441964285715,0.09397764814981809
14.4828125,-0.013074456924793641
14.516183035714285,-0.10690870578764203
14.549553571428572,-0.15190386541034298
14.582924107142857,-0.13344575472541537
14.616294642857143,-0.0634960968505901
14.649665178571428,0.025863983649742087
14.683035714285714,0.0963057943385055
14.71640625,0.1179412989539123
14.749776785714285,0.0792919610480258
14.78314732142857,-0.010292829986973345
14.816517857142857,-0.1256855442402423
14.849888392857142,-0.2360744728023503
14.88325892857143,-0.31620543565550474
14.916629464285714,-0.3545555597590784
14.95,-0.35538590412434623
14.983370535714286,-0.3341692959079694
15.016741071428571,-0.3088920119814335
15.050111607142856,-0.29167206808110185
15.083482142857143,-0.2848478212284469
15.116852678571428,-0.28318796996818973
15.150223214285713,-0.28047163114684803
15.18359375,-0.2762433637382055
15.216964285714285,-0.2784001662137742
15.250334821428572,-0.299516776160219
15.283705357142857,-0.3483087239918448
15.317075892857142,-0.4205711133348383
15.350446428571429,-0.49477333427009856
15.383816964285714,-0.5357111805107667
15.417187499999999,-0.5059620636557307
15.450558035714286,-0.3810081000324155
15.48392857142857,-0.16159701505408658
15.517299107142858,0.12260397067704094
15.550669642857143,0.42069999582834133
15.584040178571428,0.6773616780076205
15.617410714285715,0.8521477283797443
15.65078125,0.9331359642465228
15.684151785714285,0.9387149005188984
15.717522321428572,0.906493822483866
15.750892857142857,0.874188743506562
15.784263392857143,0.8612419873205984
15.817633928571428,0.8598208588453715
15.851004464285714,0.8395347555418649
15.884375,0.7636062714106583
15.917745535714285,0.6085217942404438
15.95111607142857,0.3773264372711881
15.984486607142857,0.09987598909789164
16.017857142857142,-0.17990320634965679
16.05122767857143,-0.42284477736266946
16.084598214285712,-0.6093819647942051
16.11796875,-0.7427154206763513
16.151339285714286,-0.8393500955321536
16.18470982142857,-0.9132426409739062
16.218080357142856,-0.9633060398860123
16.251450892857143,-0.9718403583360442
16.28482142857143,-0.9149525813217131
16.318191964285713,-0.7790047566389502
16.3515625,-0.5735699266610992
16.384933035714287,-0.3331869066971055
16.41830357142857,-0.10627069700350791
16.451674107142857,0.06354529925815139
16.485044642857144,0.15436250694230447
16.518415178571427,0.17302943253331637
16.551785714285714,0.14934841782743755
16.58515625,0.1212097291427755
16.618526785714284,0.11850157158447153
16.65189732142857,0.15320923874960393
16.685267857142858,0.21889980088963282
16.71863839285714,0.2976946769251607
16.752008928571428,0.3698132697600092
16.785379464285715,0.4209602358480604
16.81875,0.44522552285849254
16.852120535714285,0.4438259068599404
16.88549107142857,0.42155175554599256
16.91886160714286,0.38299598242074595
16.95223214285714,0.3301022358813804
16.98560267857143,0.26183090390782887
17.018973214285715,0.17597673708886333
17.05234375,0.07236337005359281
17.085714285714285,-0.0440712428260702
17.119084821428572,-0.1620219938853099
17.152455357142856,-0.265539177422624
17.185825892857142,-0.3385221086200007
17.21919642857143,-0.3702543576112993
17.252566964285712,-0.359426046023856
17.2859375,-0.3146007522387004
17.319308035714286,-0.2508346474664799
17.35267857142857,-0.1842120734688825
17.386049107142856,-0.12714501919549248
17.419419642857143,-0.08661703066650073
17.45279017857143,-0.06549694745497654
17.486160714285713,-0.06497000852500315
17.51953125,-0.08548856430397098
17.552901785714287,-0.12492812989897494
17.58627232142857,-0.17499851224045918
17.619642857142857,-0.21878608964209015
17.653013392857144,-0.23231023418844124
