Frequency (Hz),Amplitude
0.0,7.200978767905384
0.04,7.203514105783467
0.08,7.211104764163121
0.12,7.223704877925264
0.16,7.241238667699561
0.19999999999999998,7.263601411854854
0.24,7.290660765085854
0.27999999999999997,7.322258384315601
0.32,7.358211815284516
0.36,7.39831658827637
0.39999999999999997,7.44234846902343
0.44,7.49006581084029
0.48,7.541211956205986
0.52,7.595517639981444
0.5599999999999999,7.652703351780289
0.6,7.712481621248082
0.64,7.774559196707566
0.6799999999999999,7.838639094401111
0.72,7.904422502078907
0.76,7.971610526692183
0.7999999999999999,8.03990578128286
0.84,8.10901381071509
0.88,8.178644359633655
0.9199999999999999,8.248512488972684
0.96,8.31833954952705
1.0,8.387854022613446
1.04,8.456792238779355
1.0799999999999998,8.52489898596046
1.1199999999999999,8.591928018535441
1.1600000000000001,8.657642478468787
1.2,8.721815239246784
1.24,8.784229182667103
1.28,8.844677417796387
1.3199999999999998,8.902963450608846
1.3599999999999999,8.95890131199949
1.4,9.012315651055818
1.44,9.063041799691963
1.48,9.110925814013555
1.52,9.155824497098994
1.5599999999999998,9.197605407257644
1.5999999999999999,9.236146855260383
1.64,9.271337893531129
1.68,9.303078299838349
1.72,9.331278557628258
1.76,9.355859834793641
1.7999999999999998,9.376753962367793
1.8399999999999999,9.393903414368282
1.88,9.40726128978397
1.92,9.416791297497106
1.9599999999999997,9.422467744754135
2.0,9.424275529641
2.0399999999999996,9.42221013787463
2.08,9.416277644089593
2.12,9.406494717671114
2.1599999999999997,9.39288863306019
2.2,9.375497284327688
2.2399999999999998,9.354369203678756
2.28,9.329563583401361
2.3200000000000003,9.301150300609322
2.36,9.269209943945736
2.4,9.233833841202664
2.44,9.19512408657214
2.48,9.153193565967095
2.5199999999999996,9.108165978533352
2.56,9.060175852110715
2.6,9.009368549987324
2.6399999999999997,8.955900265822674
2.68,8.899938003087952
2.7199999999999998,8.841659534784961
2.76,8.78125333855726
2.8,8.71891850160101
2.84,8.654864589024479
2.88,8.589311468503945
2.92,8.522489083255456
2.96,8.454637164509151
2.9999999999999996,8.386004873864808
3.04,8.316850365164862
3.08,8.247440254892629
3.1199999999999997,8.17804898965076
3.16,8.108958099069401
3.1999999999999997,8.04045532261821
3.2399999999999998,7.972833599342121
3.28,7.9063899106044975
3.32,7.841423967599327
3.36,7.778236737776233
3.4,7.717128807480371
3.44,7.658398582089093
3.4799999999999995,7.602340329731361
3.52,7.549242080254567
3.5599999999999996,7.499383397338492
3.5999999999999996,7.453033048355466
3.64,7.410446603465484
3.6799999999999997,7.371864002165668
3.7199999999999998,7.337507131670287
3.76,7.30757746662581
3.7999999999999994,7.282253823301611
3.84,7.26169028311261
3.88,7.2460143397769174
3.9199999999999995,7.23532532136824
3.96,7.229693132932304
4.0,7.229157357333198
4.04,7.233726741907551
4.079999999999999,7.2433790868413395
4.12,7.258061538594802
4.16,7.277691278920884
4.199999999999999,7.3021565878035135
4.24,7.331318247684438
4.28,7.36501124723571
4.319999999999999,7.4030467360921355
4.36,7.445214177615317
4.4,7.491283644955854
4.4399999999999995,7.541008206269557
4.4799999999999995,7.594126347638375
4.5200000000000005,7.65036438665351
4.56,7.709438835286586
4.6,7.771058677142647
4.640000000000001,7.834927531018061
4.68,7.900745679494726
4.72,7.968211947776963
4.76,8.037025423886544
4.8,8.106887016520812
4.84,8.17750085126561
4.88,8.248575509416915
4.92,8.319825116427975
4.96,8.390970289021451
5.0,8.46173895137114
5.039999999999999,8.531867031557898
5.08,8.601099049836654
5.12,8.669188610209837
5.159999999999999,8.73589880647359
5.2,8.801002553364354
5.24,8.864282852750648
5.279999999999999,8.925533004043233
5.319999999999999,8.9845567671807
5.36,9.04116848572157
5.3999999999999995,9.095193176763884
5.4399999999999995,9.146466593638142
5.48,9.1948352665918
5.52,9.240156526010834
5.56,9.282298512110724
5.6,9.321140174475904
5.64,9.356571264332388
5.68,9.388492322000486
5.72,9.416814661588667
5.76,9.441460354652225
5.8,9.462362214245745
5.84,9.479463780541888
5.879999999999999,9.492719308965599
5.92,9.502093761597243
5.96,9.50756280242566
5.999999999999999,9.509112796878133
6.04,9.506740815913465
6.08,9.50045464483322
6.119999999999999,9.490272796839303
6.16,9.476224531239628
6.2,9.458349876072951
6.239999999999999,9.436699654784753
6.279999999999999,9.411335516433375
6.32,9.382329968735345
6.359999999999999,9.349766413065431
6.3999999999999995,9.313739180305888
6.44,9.27435356618528
6.4799999999999995,9.23172586445464
6.52,9.18598339591268
6.56,9.137264530906531
6.6,9.08571870249572
6.64,9.031506406969783
6.68,8.974799187851243
6.72,8.915779598893346
6.76,8.854641140895883
6.8,8.791588166415925
6.84,8.726835745649359
6.88,8.660609485915344
6.92,8.593145296306547
6.959999999999999,8.524689088197396
7.0,8.455496401464396
7.04,8.385831945509336
7.08,8.315969043542694
7.119999999999999,8.246188968146141
7.16,8.176780155968144
7.199999999999999,8.108037289603379
7.239999999999999,8.040260235362597
7.28,7.97375282685678
7.32,7.908821486198775
7.359999999999999,7.845773677258416
7.3999999999999995,7.784916188865486
7.4399999999999995,7.726553250177782
7.4799999999999995,7.670984485612938
7.52,7.618502722715165
7.5600000000000005,7.569391672953339
7.599999999999999,7.523923512503234
7.64,7.482356397249796
7.68,7.444931953170518
7.719999999999999,7.411872789481207
7.76,7.383380086957242
7.800000000000001,7.359631317205069
7.839999999999999,7.340778149915672
7.88,7.326944603946968
7.92,7.318225494261885
7.959999999999999,7.314685220282791
8.0,7.316356932302463
8.040000000000001,7.323242101614103
8.08,7.335310507563928
8.12,7.352500641501279
8.159999999999998,7.374720514385206
8.2,7.401848842383741
8.24,7.433736573879049
8.28,7.470208712437779
8.32,7.511066383909023
8.36,7.556089092056343
8.399999999999999,7.6050371059966055
8.44,7.657653924008279
8.48,7.713668761645149
8.52,7.772799017113095
8.56,7.834752673057775
8.6,7.89923060078985
8.639999999999999,7.965928740099252
8.68,8.034540134801603
8.72,8.104756810718408
8.76,8.1762714887011
8.8,8.248779130431917
8.84,8.321978319007476
8.879999999999999,8.39557247972869
8.92,8.46927094912301
8.959999999999999,8.542789902083785
9.0,8.615853148216942
9.040000000000001,8.688192809137638
9.079999999999998,8.759549888659032
9.12,8.829674747658569
9.16,8.898327494980789
9.2,8.96527830511691
9.24,9.03030767265459
9.280000000000001,9.093206612670242
9.32,9.15377681538299
9.36,9.211830762536971
9.399999999999999,9.267191812151017
9.44,9.319694257488871
9.48,9.369183365370457
9.52,9.415515398271362
9.559999999999999,9.458557624046685
9.6,9.498188316566944
9.639999999999999,9.534296750065467
9.68,9.566783189565912
9.72,9.595558879380443
9.76,9.620546031338996
9.8,9.641677814123069
9.84,9.65889834482793
9.879999999999999,9.67216268366001
9.92,9.681436832486401
9.959999999999999,9.686697737785684
10.0,9.68793329839896
10.04,9.685142378342109
10.079999999999998,9.678334824810378
10.12,9.667531491379911
10.16,9.652764266282883
10.2,9.634076105499144
10.24,9.611521070263121
10.280000000000001,9.585164368424886
10.319999999999999,9.555082398924242
10.36,9.521362798430962
10.4,9.484104488967514
10.44,9.44341772505728
10.48,9.3994241386256
10.52,9.352256779516884
10.559999999999999,9.302060149073611
10.6,9.24899022374591
10.639999999999999,9.193214465159652
10.68,9.134911812462807
10.72,9.074272652091462
10.76,9.011498759349802
10.799999999999999,8.946803205384633
10.84,8.880410222263126
10.879999999999999,8.812555017944561
10.92,8.743483531993263
10.96,8.673452121937574
11.0,8.602727169276863
11.04,8.531584593323343
11.08,8.460309260398796
11.12,8.389194275462655
11.16,8.318540143113212
11.2,8.248653785177979
11.24,8.17984740289885
11.28,8.112437173135945
11.319999999999999,8.04674177016934
11.36,7.983080707668536
11.4,7.921772499297979
11.44,7.863132641268664
11.48,7.807471425911657
11.52,7.755091601951558
11.559999999999999,7.70628590442606
11.6,7.66133448487023
11.64,7.620502280107622
11.68,7.584036365326356
11.72,7.552163343565916
11.759999999999998,7.525086828767751
11.799999999999999,7.502985082631217
11.84,7.486008866214686
11.879999999999999,7.4742795651978655
11.92,7.467887642816642
11.96,7.466891466744442
11.999999999999998,7.47131654589972
12.04,7.481155200802187
12.08,7.496366677360464
12.12,7.516877699659007
12.16,7.542583443283399
12.200000000000001,7.57334889781418
12.239999999999998,7.609010576057315
12.28,7.649378518922739
12.32,7.694238538958664
12.36,7.743354642519918
12.4,7.796471570299421
12.44,7.853317398205076
12.479999999999999,7.913606144904186
12.52,7.977040338286606
12.559999999999999,8.04331350008747
12.6,8.112112515450143
12.64,8.18311986184315
12.68,8.256015679091577
12.719999999999999,8.330479669054862
12.76,8.406192819480513
12.799999999999999,8.482838951674175
12.84,8.560106095809699
12.88,8.637687700976459
12.92,8.715283689485263
12.959999999999999,8.792601366617495
12.999999999999998,8.8693561980091
13.04,8.945272467321296
13.08,9.020083826871481
13.12,9.093533753580763
13.16,9.16537592202817
13.2,9.235374505663648
13.239999999999998,9.303304416385695
13.28,9.36895149178785
13.32,9.432112638460882
13.36,9.492595938835821
13.4,9.55022072818826
13.44,9.604817647612306
13.479999999999999,9.656228678021693
13.52,9.704307159551504
13.559999999999999,9.748917800117239
13.6,9.789936676338138
13.64,9.827251229545306
13.68,9.8607602591681
13.719999999999999,9.890373915419975
13.76,9.916013692881286
13.799999999999999,9.937612426296432
13.84,9.955114289660415
13.88,9.968474799459553
13.919999999999998,9.977660822747596
13.959999999999999,9.982650590576444
14.0,9.983433717154846
14.04,9.980011224974174
14.08,9.972395576012316
14.120000000000001,9.96061070900054
14.16,9.944692082608467
14.2,9.924686724264504
14.239999999999998,9.900653284177993
14.28,9.872662093959576
14.32,9.840795229042389
14.36,9.805146573883004
14.399999999999999,9.76582188866122
14.44,9.722938875895693
14.479999999999999,9.676627245041525
14.52,9.627028772729242
14.56,9.574297355836224
14.6,9.518599054044433
14.64,9.460112117927709
14.68,9.399026997922613
14.719999999999999,9.335546328767155
14.76,9.26988488314098
14.799999999999999,9.202269487313446
14.84,9.13293889061014
14.879999999999999,9.06214357945947
14.919999999999998,8.990145525701646
14.959999999999999,8.917217857764925
15.0,8.843644442282987
15.04,8.769719362799815
15.079999999999998,8.695746281456012
15.120000000000001,8.622037669061111
15.159999999999998,8.548913888831974
15.199999999999998,8.476702119434707
15.24,8.405735103932434
15.28,8.33634971294531
15.319999999999999,8.268885312897934
15.36,8.203681933773963
15.399999999999999,8.141078235396668
15.439999999999998,8.081409276939908
15.48,8.025004101109728
15.52,7.972183152103857
15.559999999999999,7.9232555548339025
15.600000000000001,7.8785162916558305
15.639999999999999,7.838243321562024
15.679999999999998,7.8026946949136855
15.72,7.77210572373878
15.76,7.746686272770343
15.799999999999999,7.726618239165423
15.84,7.712053288738024
15.879999999999999,7.703110913231444
15.919999999999998,7.699876866536076
15.96,7.702402027971721
16.0,7.71070172820917
16.04,7.72475555876092
16.080000000000002,7.744507670077322
16.12,7.769867547112943
16.16,7.800711235775003
16.200000000000003,7.83688297985546
16.24,7.878197216649218
16.279999999999998,7.924440871016295
16.319999999999997,7.9753758824430685
16.36,8.030741897718839
16.4,8.09025906295564
16.439999999999998,8.153630852434777
16.48,8.220546877628845
16.52,8.290685627121109
16.56,8.363717096420032
16.6,8.439305275282809
16.64,8.51711046863656
16.68,8.596791435137174
16.72,8.678007334559815
16.759999999999998,8.760419481400294
16.799999999999997,8.843692907203728
16.84,8.927497738221597
16.88,9.011510398083152
16.919999999999998,9.095414647343683
16.96,9.178902473156501
17.0,9.261674843032187
17.04,9.343442336825019
17.080000000000002,9.423925670840132
17.12,9.502856127394894
17.16,9.579975902386092
17.2,9.655038382490604
17.24,9.727808362624284
17.279999999999998,9.798062213252312
17.32,9.865588006122552
17.36,9.93018560600894
17.4,9.991666735123822
17.44,10.049855015998906
17.48,10.104585997849833
17.52,10.155707170732708
17.56,10.203077971170488
17.6,10.246569782370546
17.64,10.286065931667306
17.68,10.321461687399598
17.72,10.352664257066143
17.759999999999998,10.379592788286976
17.799999999999997,10.402178373828109
17.84,10.420364061714618
17.88,10.434104871257635
17.919999999999998,10.443367815647624
17.96,10.448131931613945
18.0,10.448388316513851
18.04,10.444140173087215
18.080000000000002,10.435402861991006
18.12,10.4222039621049
18.159999999999997,10.404583338470701
18.2,10.38259321758818
18.24,10.356298269632559
18.279999999999998,10.32577569697837
18.32,10.29111532820401
18.36,10.252419716504418
18.4,10.209804241148609
18.44,10.163397210276171
18.48,10.11333996292492
18.52,10.059786967711258
18.560000000000002,10.002905915038093
18.6,9.942877799073207
18.64,9.879896985016856
18.679999999999996,9.814171256354474
18.72,9.745921835864472
18.759999999999998,9.67538337312111
18.799999999999997,9.602803890101704
18.84,9.528444675284543
18.88,9.452580115326386
18.919999999999998,9.37549745206317
18.96,9.297496451222818
19.0,9.21888896793033
19.04,9.139998392892192
19.080000000000002,9.06115896216065
19.119999999999997,8.982714912709039
19.159999999999997,8.905019465827502
19.2,8.828433620724352
19.24,8.753324741854515
19.279999999999998,8.680064925562913
19.32,8.609029134791632
19.36,8.540593094997767
19.4,8.475130950165898
19.44,8.413012684912427
19.48,8.35460132711555
19.52,8.300249955098343
19.560000000000002,8.250298543843833
19.6,8.205070695586295
19.639999999999997,8.164870310819193
19.68,8.129978265584212
19.72,8.100649169078354
19.759999999999998,8.077108281341344
19.8,8.05954867333245
19.84,8.048128710492632
19.88,8.042969935568195
19.919999999999998,8.04415541700454
19.96,8.05172861590425
20.0,8.065692808030809
20.04,8.086011078577469
20.08,8.112606887580842
20.119999999999997,8.145365184216447
20.159999999999997,8.184134030022069
20.2,8.228726675458152
20.24,8.278924021985569
20.279999999999998,8.334477393549948
20.32,8.39511153719406
20.36,8.460527772328
20.4,8.530407211546803
20.44,8.604413982166262
20.48,8.682198386103424
20.52,8.763399945575927
20.560000000000002,8.847650292590055
20.599999999999998,8.934575870677865
20.639999999999997,9.02380042730156
20.68,9.114947284379506
20.72,9.207641382252813
20.759999999999998,9.301511098976716
20.8,9.396189852063994
20.84,9.491317493783306
20.88,9.586541513934744
20.92,9.681518065831677
20.96,9.77591283217261
21.0,9.869401747750361
21.04,9.961671595671316
21.08,10.052420493083778
21.119999999999997,10.1413582814609
21.159999999999997,10.228206835351425
21.2,10.312700302281883
21.24,10.394585285230429
21.279999999999998,10.473620977843801
21.32,10.549579261369088
21.36,10.622244771144885
21.4,10.691414939456706
21.44,10.75690002061678
21.48,10.818523103280963
21.52,10.876120114264113
21.56,10.929539817455618
21.599999999999998,10.978643810862923
21.639999999999997,11.023306524315801
21.68,11.063415219940094
21.72,11.098869997148787
21.759999999999998,11.129583803593121
21.8,11.155482453258704
21.84,11.176504652674971
21.88,11.192602036023022
21.92,11.203739209770863
21.96,11.209893807329678
22.0,11.211056554104493
22.04,11.207231343200482
22.08,11.198435321937776
22.119999999999997,11.184698989215525
22.16,11.166066303645307
22.2,11.14259480223746
22.24,11.11435572926547
22.28,11.081434174745315
22.32,11.043929221741259
22.36,11.001954101438194
22.4,10.955636354593874
22.44,10.905117997592514
22.48,10.850555690853074
22.519999999999996,10.79212090678991
22.56,10.73000009386826
22.599999999999998,10.664394832530498
22.639999999999997,10.595521977879464
22.68,10.523613782981851
22.72,10.448917995489877
22.759999999999998,10.371697918967518
22.8,10.292232428849342
22.84,10.210815931362719
22.88,10.127758252025059
22.92,10.043384438517165
22.96,9.958034460878121
23.0,9.87206279013304
23.04,9.785837834742273
23.08,9.699741212767131
23.119999999999997,9.614166836529165
23.16,9.529519785974784
23.2,9.446214947150434
23.24,9.364675393373908
23.28,9.285330489097175
23.32,9.208613700333233
23.36,9.13496010107782
23.400000000000002,9.064803572554183
23.44,8.998573701415435
23.479999999999997,8.936692394196488
23.519999999999996,8.879570238095456
23.56,8.827602652167936
23.599999999999998,8.7811658876127
23.639999999999997,8.740612950183616
23.68,8.706269530878691
23.72,8.67843004182134
23.759999999999998,8.657353861537677
23.8,8.643261896629344
23.84,8.636333564363632
23.88,8.636704292534164
23.92,8.644463619125855
23.96,8.659653955393802
23.999999999999996,8.682270052975353
24.04,8.712259190045957
24.08,8.749522065021997
24.119999999999997,8.793914360714963
24.16,8.84524891885596
24.2,8.903298445960184
24.24,8.967798657594974
24.28,9.038451759770762
24.32,9.114930163411595
24.36,9.196880330257184
24.400000000000002,9.283926655330097
24.439999999999998,9.375675301274361
24.479999999999997,9.471717912344008
24.52,9.571635149518832
24.56,9.675000002185417
24.599999999999998,9.781380845248233
24.64,9.890344222830015
24.68,10.001457350485303
24.72,10.114290336872154
24.759999999999998,10.228418133047237
24.8,10.343422223029577
24.84,10.458892073165059
24.88,10.57442636031479
24.92,10.689634000208121
24.959999999999997,10.804134997671351
24.999999999999996,10.917561140080329
25.04,11.029556554481756
25.08,11.139778147552153
25.119999999999997,11.247895946052282
25.16,11.353593353801612
25.2,11.456567339527107
25.24,11.556528568298502
25.28,11.653201487693327
25.32,11.74632437836965
25.36,11.835649377381387
25.4,11.920942481358143
25.439999999999998,12.001983535591444
25.479999999999997,12.078566214118425
25.52,12.150497995066187
25.56,12.21760013480637
25.599999999999998,12.279707643860387
25.64,12.336669266980753
25.68,12.388347469402552
25.72,12.434618430901676
25.76,12.47537204900304
25.8,12.510511952443979
25.84,12.539955525807084
25.880000000000003,12.563633946085398
25.919999999999998,12.581492231823987
25.959999999999997,12.593489305389278
25.999999999999996,12.599598068844895
26.04,12.599805493854621
26.08,12.594112725983765
26.119999999999997,12.5825352037244
26.16,12.565102792521923
26.2,12.541859934024593
26.24,12.512865810707641
26.28,12.478194525932924
26.32,12.437935299385908
26.36,12.392192677676263
26.4,12.341086759686538
26.439999999999998,12.284753435994805
26.479999999999997,12.22334464137001
26.52,12.157028618928644
26.56,12.085990194033553
26.599999999999998,12.010431055393356
26.64,11.930570040064543
26.68,11.846643418149213
26.72,11.75890517189759
26.76,11.667627262645606
26.8,11.573099877522967
26.84,11.475631646139433
26.88,11.375549815481895
26.919999999999998,11.27320036902772
26.959999999999997,11.168948073605033
27.0,11.063176434829607
27.04,10.956287539062888
27.08,10.848701756836544
27.119999999999997,10.74085727968112
27.16,10.633209459426862
27.2,10.526229916511245
27.24,10.42040538188151
27.28,10.316236236031488
27.32,10.214234708922948
27.36,10.114922706422416
27.4,10.018829232866805
27.439999999999998,9.926487385881433
27.479999999999997,9.838430908984622
27.52,9.755190300083695
27.56,9.677288489776101
27.599999999999998,9.605236122235498
27.64,9.539526492878846
27.68,9.480630220088404
27.72,9.428989751717962
27.76,9.385013829296351
27.8,9.34907205183778
27.839999999999996,9.32148969495618
27.88,9.302542947653627
27.919999999999998,9.292454727178193
27.959999999999997,9.291391220815491
28.0,9.299459282316018
28.04,9.316704780736075
28.08,9.343111962586592
28.12,9.378603846922411
28.16,9.42304363044808
28.2,9.476237039091084
28.240000000000002,9.537935526784358
28.28,9.60784019381036
28.32,9.685606277566823
28.359999999999996,9.770848058659539
28.4,9.863144024534948
28.439999999999998,9.962042140387473
28.479999999999997,10.067065091212006
28.52,10.177715377719771
28.56,10.293480170438752
28.599999999999998,10.413835848866444
28.64,10.538252174507402
28.68,10.666196066849407
28.72,10.797134969029875
28.76,10.930539804693552
28.799999999999997,11.065887539219778
