Time (s),Filtered Signal
0.0,-0.009074905948412952
0.03337008452774715,-0.2648439897568666
0.0667401690554943,-0.498143842101898
0.10011025358324147,-0.6903309905037959
0.1334803381109886,-0.8284480525867775
0.16685042263873576,-0.9040646335725435
0.20022050716648293,-0.9111456977279025
0.23359059169423008,-0.8457164460365442
0.2669606762219772,-0.708872623598518
0.30033076074972437,-0.5118795219876149
0.3337008452774715,-0.2796081950774875
0.36707092980521866,-0.048324907755326545
0.40044101433296586,0.1435130191515002
0.433811098860713,0.2685893041134387
0.46718118338846015,0.3220243929799501
0.5005512679162073,0.3242628198339526
0.5339213524439544,0.31258584785842575
0.5672914369717016,0.32378861238013623
0.6006615214994487,0.37539151548617966
0.6340316060271959,0.4543336400241161
0.667401690554943,0.5193863818812223
0.7007717750826902,0.5175859168714791
0.7341418596104373,0.4084824812511082
0.7675119441381845,0.18596372763489102
0.8008820286659317,-0.11223266067290458
0.8342521131936789,-0.41249594871557305
0.867622197721426,-0.6288981820842083
0.9009922822491732,-0.6938602601205234
0.9343623667769203,-0.5840553686863541
0.9677324513046675,-0.3308569003482041
1.0011025358324146,-0.010248198733244524
1.0344726203601617,0.2846674162940112
1.0678427048879089,0.4777902167844049
1.101212789415656,0.5365477636149016
1.1345828739434032,0.4794579820640086
1.1679529584711503,0.3618296024525438
1.2013230429988975,0.24693673463245527
1.2346931275266446,0.17687839322365612
1.2680632120543918,0.1570931533081898
1.301433296582139,0.1610390802518432
1.334803381109886,0.15079442387006647
1.3681734656376332,0.10124794855414891
1.4015435501653803,0.014655743266336466
1.4349136346931275,-0.08112800399981458
1.4682837192208746,-0.14777627781824348
1.5016538037486218,-0.1552203060214755
1.535023888276369,-0.09408666143654486
1.568393972804116,0.022449276349036058
1.6017640573318634,0.16483473149279004
1.6351341418596106,0.29539199918330056
1.6685042263873577,0.37438206398544177
1.7018743109151049,0.36409227069077565
1.735244395442852,0.2344164671680521
1.7686144799705992,-0.027329800806620997
1.8019845644983463,-0.40394157515757645
1.8353546490260935,-0.8396075776439481
1.8687247335538406,-1.2429719081625272
1.9020948180815878,-1.5065199891936345
1.935464902609335,-1.5393325049095896
1.968834987137082,-1.3023090355489961
2.002205071664829,-0.8308538607036539
2.0355751561925763,-0.2325957821803233
2.0689452407203235,0.3431035784976751
2.1023153252480706,0.7547245206997464
2.1356854097758178,0.9182118207422708
2.169055494303565,0.8355677130786117
2.202425578831312,0.5892641915233062
2.235795663359059,0.304254452457245
2.2691657478868064,0.09427717111681684
2.3025358324145535,0.01656722786287048
2.3359059169423007,0.055154045451013774
2.369276001470048,0.13942290469032526
2.402646085997795,0.18790096392280461
2.436016170525542,0.15512461667359462
2.4693862550532892,0.057770609802243175
2.5027563395810364,-0.03372127801999186
2.5361264241087835,-0.0342849262893984
2.5694965086365307,0.1061063286366085
2.602866593164278,0.3690023339088703
2.636236677692025,0.6693596169611525
2.669606762219772,0.8934886250267552
2.7029768467475193,0.9545166297858946
2.7363469312752664,0.8370439135520893
2.7697170158030135,0.6076114477174345
2.8030871003307607,0.3845149015270818
2.836457184858508,0.2806202996629866
2.869827269386255,0.3462280283167668
2.903197353914002,0.5394874009763063
2.9365674384417493,0.7394318944283478
2.9699375229694964,0.7971514704882847
3.0033076074972436,0.6026749409105069
3.0366776920249907,0.13695987350777503
3.070047776552738,-0.5157004705772533
3.103417861080485,-1.2013275441051223
3.136787945608232,-1.7600249569791682
3.1701580301359793,-2.0887324040266377
3.203528114663727,-2.172674511976122
3.236898199191474,-2.0724328227448225
3.270268283719221,-1.877711784685235
3.3036383682469683,-1.655853694132543
3.3370084527747155,-1.423198806217206
3.3703785373024626,-1.1514428365729181
3.4037486218302098,-0.8000302373438669
3.437118706357957,-0.35239507774085643
3.470488790885704,0.16480577818014808
3.503858875413451,0.6875849266401234
3.5372289599411983,1.1390516183122548
3.5705990444689455,1.4577527097352747
3.6039691289966926,1.6166500130360089
3.63733921352444,1.6267852162449212
3.670709298052187,1.5274044834777294
3.704079382579934,1.3688172267953929
3.7374494671076812,1.1952391762213483
3.7708195516354284,1.033638939908187
3.8041896361631755,0.8919770818096356
3.8375597206909227,0.7662737015886786
3.87092980521867,0.6515082325204828
3.904299889746417,0.5488880899857356
3.937669974274164,0.46403257140656656
3.9710400588019112,0.3969181171311641
4.004410143329658,0.3311294338727839
4.0377802278574055,0.23190885164817915
4.071150312385153,0.057522761555114675
4.1045203969129,-0.2203671209414609
4.137890481440647,-0.5980913570115225
4.171260565968394,-1.033391792810766
4.204630650496141,-1.4543202497055232
4.238000735023888,-1.778933431625968
4.2713708195516356,-1.9369687272460192
4.304740904079383,-1.886226370345078
4.33811098860713,-1.620991956762095
4.371481073134877,-1.1733687676292208
4.404851157662624,-0.6087169832346687
4.438221242190371,-0.014813590461761485
4.471591326718118,0.5160094176552144
4.504961411245866,0.909682667017598
4.538331495773613,1.1313674098021786
4.57170158030136,1.1948739167797437
4.605071664829107,1.1533115305909944
4.638441749356854,1.0719351468270955
4.671811833884601,0.994221137453091
4.7051819184123485,0.9181520171934502
4.738552002940096,0.7970167907913257
4.771922087467843,0.5677889202823356
4.80529217199559,0.19535276194803536
4.838662256523337,-0.28984372917570356
4.872032341051084,-0.7833069797501259
4.905402425578831,-1.1377294416132586
4.9387725101065785,-1.2247390847903077
4.972142594634326,-0.999970932827862
5.005512679162073,-0.5380850800089051
5.03888276368982,-0.01525078558482396
5.072252848217567,0.3588690198197504
5.105622932745314,0.4311545972132653
5.138993017273061,0.17463615645622863
5.1723631018008085,-0.29728953295090543
5.205733186328556,-0.7804571533769538
5.239103270856303,-1.069742904144432
5.27247335538405,-1.0454113902347435
5.305843439911797,-0.7153231013511487
5.339213524439544,-0.1964306921603594
5.372583608967291,0.34962850856869354
5.4059536934950385,0.7906583059575217
5.439323778022786,1.0708009411885233
5.472693862550533,1.2115795798467317
5.50606394707828,1.2741934736086984
5.539434031606027,1.3090317647481
5.572804116133774,1.321436775542815
5.606174200661521,1.2704325077380285
5.6395442851892685,1.0976729871960602
5.672914369717016,0.7680568467877371
5.706284454244763,0.2989051290749469
5.73965453877251,-0.23765530412552943
5.773024623300257,-0.739640516130396
5.806394707828004,-1.11425136115361
5.839764792355751,-1.3117167310924318
5.873134876883499,-1.3385122299843828
5.906504961411246,-1.2455090717873634
5.939875045938993,-1.098781696939921
5.97324513046674,-0.948238567381527
6.006615214994487,-0.8088152215108007
6.039985299522234,-0.6616044539520952
6.073355384049981,-0.4721482412147146
6.106725468577729,-0.21527407313151342
6.140095553105476,0.10614943743646338
6.173465637633223,0.4569313534019539
6.20683572216097,0.7803634503622343
6.240205806688717,1.0176282465636228
6.273575891216464,1.126391799596599
6.3069459757442115,1.0912639529020736
6.340316060271959,0.9239782881022123
6.373686144799706,0.6560736937453876
6.407056229327454,0.3290740970413982
6.440426313855201,-0.013694136227055181
6.473796398382948,-0.33203032414295724
6.507166482910695,-0.5912829235695437
6.540536567438442,-0.7640839486404906
6.5739066519661895,-0.832772913001958
6.607276736493937,-0.7924796067399423
6.640646821021684,-0.6534462974087588
6.674016905549431,-0.44081501744591145
6.707386990077178,-0.1911119573819617
6.740757074604925,0.05373373364240484
6.774127159132672,0.2530910276827001
6.8074972436604195,0.3737451287930736
6.840867328188167,0.3953066275293318
6.874237412715914,0.3153567536795011
6.907607497243661,0.153871710743592
6.940977581771408,-0.045452154670551775
6.974347666299155,-0.22061565612403666
7.007717750826902,-0.30589120805737063
7.0410878353546495,-0.25373241726623486
7.074457919882397,-0.05669265799170908
7.107828004410144,0.24128832660310856
7.141198088937891,0.5528647227280531
7.174568173465638,0.7754071747133006
7.207938257993385,0.8298996455452958
7.241308342521132,0.6941199354899041
7.27467842704888,0.4143224628590715
7.308048511576627,0.08880345258782336
7.341418596104374,-0.1700799930754458
7.374788680632121,-0.2787660862134121
7.408158765159868,-0.21197166634023787
7.441528849687615,-0.00784577869172213
7.4748989342153624,0.2506279793219994
7.50826901874311,0.46786162013384314
7.541639103270857,0.5678669465517069
7.575009187798604,0.5153584362898664
7.608379272326351,0.32069608142469197
7.641749356854098,0.029856452093779576
7.675119441381845,-0.29493809770175056
7.7084895259095925,-0.5962816058010059
7.74185961043734,-0.836983554862289
7.775229694965087,-1.0048543973118562
7.808599779492834,-1.1060470678559307
7.841969864020581,-1.1508865185176158
7.875339948548328,-1.1396585548468585
7.908710033076075,-1.0562431669519383
7.9420801176038225,-0.8740646138659985
7.97545020213157,-0.5728290722767413
8.008820286659317,-0.15867139920109272
8.042190371187063,0.32249632397257766
8.075560455714811,0.7868698651316182
8.108930540242557,1.1323491386926523
8.142300624770305,1.2704567730841432
8.175670709298052,1.1587892586031192
8.2090407938258,0.8204709011345351
8.242410878353546,0.34142771603583966
8.275780962881294,-0.15474742574671113
8.30915104740904,-0.5450555295177607
8.342521131936788,-0.7437466630556846
8.375891216464534,-0.7239002004215734
8.409261300992283,-0.5176164163767575
8.442631385520029,-0.19774210680990514
8.476001470047777,0.1492630839216287
8.509371554575523,0.4483988535704211
8.542741639103271,0.6518164545710765
8.57611172363102,0.7433120678376878
8.609481808158765,0.7339313655809401
8.642851892686513,0.6523848579969974
8.67622197721426,0.5335448167846251
8.709592061742008,0.4077754080459142
8.742962146269754,0.293865881500043
8.776332230797502,0.19789041499106483
8.809702315325248,0.1181567504326868
8.843072399852996,0.05294656023014065
8.876442484380743,0.005441782678529071
8.90981256890849,-0.018363888541708222
8.943182653436237,-0.017819342833111103
8.976552737963985,-0.005346774464022767
9.009922822491731,-0.0059278612620705315
9.04329290701948,-0.045478072026317276
9.076662991547225,-0.1337087101681123
9.110033076074973,-0.25288587301619364
9.14340316060272,-0.3620380272613636
9.176773245130468,-0.41693927215595966
9.210143329658214,-0.39546457809906344
9.243513414185962,-0.3130874795809923
9.276883498713708,-0.21808507042457922
9.310253583241456,-0.16780418846601072
9.343623667769203,-0.1988637520281241
9.37699375229695,-0.30823103594137347
9.410363836824697,-0.45610276124075394
9.443733921352445,-0.5889206880150716
9.477104005880191,-0.6690398206663534
9.51047409040794,-0.6934912896170843
9.543844174935685,-0.6904692050703156
9.577214259463434,-0.6952506035020658
9.61058434399118,-0.71977577092175
9.643954428518928,-0.7347283794417747
9.677324513046674,-0.676693401996368
9.710694597574422,-0.47908135514308886
9.744064682102168,-0.1116951717668164
9.777434766629916,0.3921229785916501
9.810804851157663,0.9364472126211609
9.84417493568541,1.3936395776738806
9.877545020213157,1.6520098010547406
9.910915104740905,1.6588575016458658
9.944285189268651,1.4397331281324781
9.9776552737964,1.0858371308276091
10.011025358324146,0.7157214062099475
10.044395442851894,0.4283904632853694
10.07776552737964,0.26805691942449594
10.111135611907388,0.21513426402771607
10.144505696435134,0.20606981705347396
10.177875780962882,0.17154541546469215
10.211245865490628,0.07432557065464473
10.244615950018376,-0.07142971060683638
10.277986034546123,-0.20837571998522644
10.31135611907387,-0.2672743263458992
10.344726203601617,-0.20584811144223392
10.378096288129365,-0.03628968741218352
10.411466372657111,0.17190601323207044
10.44483645718486,0.3157431717297806
10.478206541712606,0.29945354300757476
10.511576626240354,0.075387078546345
10.5449467107681,-0.3317883307819044
10.578316795295848,-0.8279623615498456
10.611686879823594,-1.2794070032226441
10.645056964351342,-1.5586809496305218
10.678427048879088,-1.588940171723447
10.711797133406836,-1.3692589172481675
10.745167217934583,-0.9713729322648124
10.77853730246233,-0.5104452234130941
10.811907386990077,-0.10327363489984588
10.845277471517825,0.16859008942789794
10.878647556045571,0.2778049857606167
10.91201764057332,0.24910829854830446
10.945387725101066,0.14206221780896677
10.978757809628814,0.028335878056816338
11.01212789415656,-0.029070216071643777
11.045497978684308,0.008286267569006434
11.078868063212054,0.14400937001022918
11.112238147739802,0.34422213686780256
11.145608232267548,0.5464069099360518
11.178978316795297,0.6814786712904598
11.212348401323043,0.7036319388492115
11.24571848585079,0.614465947917861
11.279088570378537,0.4661818601145277
11.312458654906285,0.33737962585047115
11.345828739434031,0.2908295645655666
11.37919882396178,0.3358261036668741
11.412568908489526,0.418589372165679
11.445938993017274,0.45009761897623857
11.47930907754502,0.35897999836028094
11.512679162072768,0.1406510051433236
11.546049246600514,-0.12675715345835384
11.579419331128262,-0.31253422891752036
11.612789415656009,-0.2974544258856999
11.646159500183757,-0.03997942369539259
11.679529584711503,0.3903767058456731
11.71289966923925,0.8321142411256899
11.746269753766997,1.096731064268769
11.779639838294745,1.04981990094375
11.813009922822491,0.6700349301052175
11.84638000735024,0.0583455196835671
11.879750091877986,-0.6058526271175586
11.913120176405734,-1.1399810973465305
11.94649026093348,-1.4294110339516826
11.979860345461228,-1.4630599715320352
12.013230429988974,-1.3206751216820873
12.046600514516722,-1.122183066278796
12.079970599044469,-0.9658537714326877
12.113340683572217,-0.8846962846582712
12.146710768099963,-0.8395592861707788
12.180080852627711,-0.7489664196215443
12.213450937155457,-0.5386275384167082
12.246821021683205,-0.18548422279343665
12.280191106210951,0.2646891100495291
12.3135611907387,0.7132506840552016
12.346931275266446,1.0489496467058745
12.380301359794194,1.1924666245780435
12.41367144432194,1.1250859857732327
12.447041528849688,0.8908963669689961
12.480411613377434,0.5752246277778508
12.513781697905182,0.27187881939862857
12.547151782432929,0.05389655197247681
12.580521866960677,-0.04259084110601615
12.613891951488423,-0.01980011327457749
12.647262036016171,0.09042885584440329
12.680632120543917,0.23936599421995505
12.714002205071665,0.3740181095880893
12.747372289599411,0.44839179426861775
12.78074237412716,0.4332842772668931
12.814112458654908,0.32351469957025725
12.847482543182654,0.14000115484786346
12.880852627710402,-0.07584958636280245
12.914222712238148,-0.2754446120332271
12.947592796765896,-0.42001490842656375
12.980962881293642,-0.4942469462900549
13.01433296582139,-0.5095678180420276
13.047703050349137,-0.4942975004496549
13.081073134876885,-0.4746171924152577
13.114443219404631,-0.4560883435718066
13.147813303932379,-0.4165857998430433
13.181183388460125,-0.3164837355117579
13.214553472987873,-0.12284288631355306
13.24792355751562,0.16402096428021418
13.281293642043368,0.4960820713854797
13.314663726571114,0.7851481502054825
13.348033811098862,0.9321299629569391
13.381403895626608,0.8669407774279024
13.414773980154356,0.581786433651634
13.448144064682102,0.14228979315756368
13.48151414920985,-0.330194960743458
13.514884233737597,-0.6995570425420566
13.548254318265345,-0.8635972234424687
13.581624402793091,-0.7910538650160023
13.614994487320839,-0.5317397369921356
13.648364571848585,-0.1949368946146436
13.681734656376333,0.09587751142111785
13.71510474090408,0.25333719225016843
13.748474825431828,0.2594015268702545
13.781844909959574,0.1657210125068053
13.815214994487322,0.06030791900096628
13.848585079015068,0.01678540597802579
13.881955163542816,0.05263246164060466
13.915325248070562,0.11927937334533273
13.94869533259831,0.13036808502942307
13.982065417126057,0.013704796072244983
14.015435501653805,-0.24086063652534861
14.048805586181551,-0.5636498568893962
14.082175670709299,-0.8278425477970213
14.115545755237045,-0.902294242090718
14.148915839764793,-0.7094617895514761
14.18228592429254,-0.26188953479715904
14.215656008820288,0.33797794296530986
14.249026093348034,0.9325784768242603
14.282396177875782,1.3622322415900123
14.315766262403528,1.514910706083251
14.349136346931276,1.3561177704170555
14.382506431459023,0.9325860832634145
14.41587651598677,0.3534590938144079
14.449246600514517,-0.24186700749046616
14.482616685042265,-0.7195113959982582
14.515986769570011,-0.9828684099670378
14.54935685409776,-0.9948244749026863
14.582726938625505,-0.7859492379968537
14.616097023153253,-0.4453502709641145
14.649467107681,-0.09406737983871413
14.682837192208748,0.15345190033370237
14.716207276736494,0.2281956605951262
14.749577361264242,0.1313502625720451
14.782947445791988,-0.0661881261272734
14.816317530319736,-0.2516808134638319
14.849687614847483,-0.3165491681491519
14.88305769937523,-0.20267427575797028
14.916427783902977,0.07043963573361184
14.949797868430725,0.4103320492855175
14.983167952958471,0.6879522686358859
15.01653803748622,0.7917629824636429
15.049908122013965,0.6767918516763637
15.083278206541713,0.38646527465744096
15.11664829106946,0.03581325749836384
15.150018375597208,-0.23842534699956106
15.183388460124954,-0.3394778788863301
15.216758544652702,-0.2556565111770859
15.250128629180448,-0.06656656781942863
15.283498713708196,0.09464267125477495
15.316868798235943,0.10689792461399315
15.35023888276369,-0.076124676432385
15.383608967291437,-0.39745526170432655
15.416979051819185,-0.7183575623912588
15.450349136346931,-0.8817805966171192
15.48371922087468,-0.7884072507740961
15.517089305402425,-0.4485579454082512
15.550459389930174,0.016204734041487638
15.58382947445792,0.4241338871434177
15.617199558985668,0.6139696446572466
15.650569643513414,0.5176882091187597
15.683939728041162,0.19137053845885194
15.717309812568908,-0.2099773040057783
15.750679897096656,-0.501577288280412
15.784049981624403,-0.5498548887316493
15.81742006615215,-0.3284571973555819
15.850790150679897,0.0749221021524275
15.884160235207645,0.5017603577635055
15.917530319735391,0.7938545372386876
15.95090040426314,0.8586622907951095
15.984270488790886,0.7000780770334959
16.017640573318634,0.40434482418957324
16.05101065784638,0.09273515900946537
16.084380742374126,-0.13331949641785032
16.117750826901876,-0.22911328956535842
16.151120911429622,-0.21236587418851677
16.18449099595737,-0.14095798366034026
16.217861080485115,-0.07776133180230428
16.251231165012864,-0.0604579576630241
16.28460124954061,-0.08888589921587645
16.317971334068357,-0.13281391948160365
16.351341418596103,-0.15359325072911667
16.384711503123853,-0.12743732039761443
16.4180815876516,-0.05822042420412576
16.451451672179346,0.026390397145472297
16.484821756707092,0.09256468163572462
16.51819184123484,0.12104868403840723
16.551561925762588,0.1183343654203023
16.584932010290334,0.1109181074872506
16.61830209481808,0.1254940579792899
16.65167217934583,0.16710326371360712
16.685042263873576,0.20952135481604894
16.718412348401323,0.20545265415065256
16.75178243292907,0.11205291373183279
16.78515251745682,-0.08260532229913159
16.818522601984565,-0.3477481539000129
16.85189268651231,-0.6198707219829769
16.885262771040058,-0.8285118271371631
16.918632855567807,-0.9227850684595731
16.952002940095554,-0.8843839854795613
16.9853730246233,-0.7227703206937743
17.018743109151046,-0.46049605829883583
17.052113193678796,-0.12244675705859794
17.085483278206542,0.2620173968192516
17.11885336273429,0.6471188033826093
17.15222344726204,0.9624658990810884
17.185593531789785,1.122760798049008
17.21896361631753,1.0586906584444167
17.252333700845277,0.7563936715838515
17.285703785373027,0.2826328056940635
17.319073869900773,-0.22394152327200087
17.35244395442852,-0.5985862367483814
17.385814038956266,-0.7155462448381609
