Frequency (Hz),Amplitude
0.0,0.5995149700651998
0.019867549668874173,0.6001046502734547
0.039735099337748346,0.6018679655276503
0.059602649006622516,0.6047879150059353
0.07947019867549669,0.6088367351790936
0.09933774834437085,0.6139767124005744
0.11920529801324503,0.6201612381931663
0.13907284768211922,0.6273360376534078
0.15894039735099338,0.6354404969068383
0.17880794701986755,0.6444090184880964
0.1986754966887417,0.6541723423518981
0.2185430463576159,0.6646587828398854
0.23841059602649006,0.6757953461655666
0.2582781456953642,0.6875087069657195
0.27814569536423844,0.6997260348540734
0.2980132450331126,0.7123756719276706
0.31788079470198677,0.7253876695506395
0.33774834437086093,0.7386941975863336
0.3576158940397351,0.7522298419147241
0.3774834437086093,0.7659318070138268
0.3973509933774834,0.7797400400717618
0.4172185430463576,0.7935972919537607
0.4370860927152318,0.807449128726299
0.45695364238410596,0.8212439056038388
0.4768211920529801,0.8349327133204555
0.49668874172185434,0.8484693051617218
0.5165562913907285,0.8618100112922283
0.5364238410596026,0.8749136456145605
0.5562913907284769,0.8877414092043661
0.5761589403973509,0.9002567933754336
0.5960264900662252,0.9124254846195827
0.6158940397350993,0.9242152730185392
0.6357615894039735,0.9355959652129265
0.6556291390728477,0.9465393026177533
0.6754966887417219,0.9570188852710437
0.695364238410596,0.9670101014767039
0.7152317880794702,0.9764900632372169
0.7350993377483444,0.9854375473556142
0.7549668874172186,0.9938329420055454
0.7748344370860927,1.0016581985190032
0.7947019867549668,1.0088967881114659
0.8145695364238411,1.015533663253078
0.8344370860927152,1.021555223394278
0.8543046357615894,1.0269492847635797
0.8741721854304636,1.0317050539713282
0.8940397350993378,1.035813105172946
0.9139072847682119,1.0392653605688906
0.9337748344370861,1.042055074044039
0.9536423841059603,1.0441768177756
0.9735099337748344,1.0456264716664485
0.9933774834437087,1.0464012154886375
1.0132450331125828,1.046499523649974
1.033112582781457,1.0459211625245368
1.0529801324503312,1.0446671903168647
1.0728476821192052,1.0427399594570441
1.0927152317880795,1.0401431215528743
1.1125827814569538,1.0368816349532826
1.1324503311258278,1.0329617750056561
1.1523178807947019,1.028391147118132
1.1721854304635762,1.0231787027662393
1.1920529801324504,1.0173347586110937
1.2119205298013245,1.010871018924169
1.2317880794701985,1.0038006015394818
1.2516556291390728,0.9961380675791546
1.271523178807947,0.987899455219975
1.2913907284768211,0.9791023177865252
1.3112582781456954,0.9697657664684501
1.3311258278145695,0.9599105179637056
1.3509933774834437,0.9495589473419105
1.370860927152318,0.9387351463995759
1.390728476821192,0.9274649877359922
1.410596026490066,0.9157761947084091
1.4304635761589404,0.9036984173202971
1.4503311258278146,0.8912633139457653
1.4701986754966887,0.8785046385853194
1.4900662251655628,0.8654583330672311
1.5099337748344372,0.8521626232373924
1.5298013245033113,0.8386581176993153
1.5496688741721854,0.8249879070507348
1.5695364238410596,0.811197660791782
1.5894039735099337,0.7973357181272337
1.609271523178808,0.7834531677332319
1.6291390728476822,0.7696039101921315
1.6490066225165563,0.7558446952232251
1.6688741721854303,0.7422351240722779
1.6887417218543048,0.7288376055339922
1.7086092715231789,0.7157172521712818
1.728476821192053,0.702941701539087
1.7483443708609272,0.6905808458648068
1.7682119205298013,0.678706453017387
1.7880794701986755,0.6673916621278104
1.8079470198675496,0.6567103393829653
1.8278145695364238,0.6467362837826167
1.847682119205298,0.6375422794305455
1.8675496688741722,0.629199000424947
1.8874172185430464,0.6217737864716897
1.9072847682119205,0.6153293213256837
1.9271523178807946,0.6099222608473758
1.9470198675496688,0.6056018710519102
1.9668874172185429,0.6024087468439989
1.9867549668874174,0.600373686942653
2.0066225165562916,0.5995167980157796
2.0264900662251657,0.5998468904200892
2.0463576158940397,0.6013612096562847
2.066225165562914,0.6040455236036897
2.086092715231788,0.6078745588481651
2.1059602649006623,0.6128127535802629
2.1258278145695364,0.618815273044896
2.1456953642384105,0.625829218902321
2.165562913907285,0.6337949573145772
2.185430463576159,0.6426474918873291
2.205298013245033,0.6523178153985935
2.2251655629139075,0.6627341864602372
2.2450331125827816,0.6738232916271437
2.2649006622516556,0.6855112679735283
2.2847682119205297,0.6977245742793602
2.3046357615894038,0.7103907097857699
2.324503311258278,0.7234387876073655
2.3443708609271523,0.7367999753756954
2.364238410596027,0.750407818848836
2.384105960264901,0.7641984655126475
2.403973509933775,0.7781108051063376
2.423841059602649,0.7920865429775973
2.443708609271523,0.8060702205880633
2.463576158940397,0.8200091956375315
2.4834437086092715,0.8338535923644134
2.5033112582781456,0.8475562307473897
2.52317880794702,0.8610725416623014
2.543046357615894,0.8743604735776954
2.562913907284768,0.8873803951166374
2.5827814569536423,0.90009499676333
2.6026490066225163,0.9124691941352479
2.622516556291391,0.9244700345515777
2.642384105960265,0.9360666080841218
2.662251655629139,0.947229963852885
2.6821192052980134,0.957933032005305
2.7019867549668874,0.9681505515751776
2.7218543046357615,0.9778590042398287
2.741721854304636,0.9870365538672793
2.76158940397351,0.9956629916588954
2.781456953642384,1.0037196866367963
2.801324503311258,1.0111895411933811
2.821192052980132,1.0180569514055533
2.8410596026490067,1.0243077718151306
2.8609271523178808,1.0299292843847627
2.8807947019867552,1.034910171354221
2.9006622516556293,1.0392404917419322
2.9205298013245033,1.042911661260007
2.9403973509933774,1.0459164354366106
2.9602649006622515,1.0482488957669243
2.9801324503311255,1.0499044387414682
3.0,1.0508797676294521
3.0198675496688745,1.0511728869231165
3.0397350993377485,1.0507830993781382
3.0596026490066226,1.0497110056138423
3.0794701986754967,1.0479585062661105
3.0993377483443707,1.0455288067146618
3.119205298013245,1.0424264244357888
3.1390728476821192,1.0386571990607016
3.1589403973509933,1.0342283052491104
3.1788079470198674,1.0291482685173092
3.198675496688742,1.0234269841891506
3.218543046357616,1.0170757396677677
3.23841059602649,1.0101072402540396
3.2582781456953644,1.0025356387649762
3.2781456953642385,0.9943765692302106
3.2980132450331126,0.9856471849663772
3.3178807947019866,0.976366201345715
3.3377483443708607,0.9665539435848045
3.3576158940397347,0.9562323998784997
3.3774834437086096,0.945425280190167
3.3973509933774837,0.9341580809755364
3.4172185430463577,0.9224581560596737
3.437086092715232,0.9103547937952635
3.456953642384106,0.8978793004964153
3.47682119205298,0.8850650899529751
3.4966887417218544,0.8719477785713229
3.5165562913907285,0.8585652853406138
3.5364238410596025,0.8449579353679587
3.556291390728477,0.8311685651386854
3.576158940397351,0.8172426269124001
3.596026490066225,0.8032282887367179
3.615894039735099,0.7891765254231807
3.6357615894039736,0.7751411944658826
3.6556291390728477,0.7611790892871949
3.6754966887417218,0.7473499603799413
3.695364238410596,0.7337164929299986
3.7152317880794703,0.7203442274400151
3.7350993377483444,0.7073014078908305
3.754966887417219,0.6946587403088667
3.774834437086093,0.6824890435825137
3.794701986754967,0.6708667744108724
3.814569536423841,0.6598674098749282
3.834437086092715,0.6495666748275928
3.854304635761589,0.6400396075911643
3.8741721854304636,0.6313594666419062
3.8940397350993377,0.6235964930380989
3.9139072847682117,0.6168165578024369
3.9337748344370858,0.6110797391758916
3.9536423841059607,0.6064388898432073
3.9735099337748347,0.6029382666042054
3.993377483443709,0.6006123020580247
4.013245033112583,0.5994845975296347
4.033112582781457,0.5995672074385203
4.052980132450331,0.6008602676981797
4.072847682119205,0.6033519962278291
4.0927152317880795,0.607019065321337
4.112582781456953,0.611827317328999
4.132450331125828,0.6177327707283432
4.152317880794702,0.6246828462288917
4.172185430463576,0.6326177337189953
4.19205298013245,0.6414718206912439
4.211920529801325,0.6511751099923716
4.231788079470199,0.6616545671691412
4.251655629139073,0.6728353528590749
4.271523178807947,0.6846419113287798
4.291390728476821,0.6969989006390827
4.311258278145695,0.7098319619047573
4.33112582781457,0.7230683342254122
4.3509933774834435,0.7366373280870346
4.370860927152318,0.750470673689422
4.390728476821192,0.7645027622279491
4.410596026490066,0.7786707981816557
4.43046357615894,0.7929148796296245
4.450331125827815,0.8071780219535103
4.470198675496689,0.8214061383094926
4.490066225165563,0.8355479882031069
4.509933774834438,0.8495551035276238
4.529801324503311,0.8633816996265025
4.549668874172186,0.8769845773550248
4.569536423841059,0.8903230207639836
4.589403973509934,0.9033586938996782
4.6092715231788075,0.9160555392926262
4.629139072847682,0.9283796799682874
4.649006622516556,0.9402993262299627
4.66887417218543,0.9517846880121542
4.688741721854305,0.9628078932580499
4.708609271523179,0.9733429125176413
4.728476821192054,0.9833654897750626
4.748344370860927,0.9928530793804476
4.768211920529802,1.0017847888710163
4.788079470198675,1.010141327408076
4.80794701986755,1.0179049595238086
4.827814569536423,1.0250594638568336
4.847682119205298,1.0315900965555518
4.867549668874172,1.0374835590371132
4.887417218543046,1.0427279698069238
4.9072847682119205,1.0473128400649014
4.927152317880794,1.0512290528501687
4.947019867549669,1.0544688455026443
4.966887417218543,1.057025795248976
4.986754966887418,1.0588948077496532
5.006622516556291,1.0600721084742857
5.026490066225166,1.0605552368014846
5.04635761589404,1.060343042770917
5.066225165562914,1.0594356864445487
5.086092715231788,1.0578346398650482
5.105960264900662,1.0555426916291848
5.125827814569536,1.052563954125418
5.14569536423841,1.048903873514985
5.1655629139072845,1.0445692425677726
5.185430463576159,1.0395682164951436
5.205298013245033,1.033910331953962
5.225165562913908,1.0276065294278185
5.245033112582782,1.0206691792227163
5.264900662251656,1.0131121113459196
5.28476821192053,1.0049506495650125
5.304635761589404,0.9962016499720766
5.324503311258278,0.9868835444000698
5.344370860927152,0.9770163890555207
5.364238410596027,0.9666219187400951
5.3841059602649,0.9557236070287375
5.403973509933775,0.9443467327525177
5.4238410596026485,0.9325184530885783
5.443708609271523,0.9202678834864586
5.463576158940397,0.9076261845437613
5.483443708609272,0.8946266557767051
5.503311258278146,0.8813048359946073
5.52317880794702,0.8676986096654666
5.543046357615895,0.8538483182285512
5.562913907284768,0.8397968747467174
5.582781456953643,0.8255898795641095
5.602649006622516,0.8112757337171596
5.622516556291391,0.7969057457062327
5.642384105960264,0.7825342258447137
5.662251655629139,0.7682185607489134
5.682119205298013,0.7540192586141574
5.701986754966887,0.739999953773266
5.7218543046357615,0.7262273567326162
5.741721854304636,0.7127711335675115
5.7615894039735105,0.6997036964607178
5.781456953642384,0.687099885613661
5.801324503311259,0.6750365221891741
5.821192052980132,0.6635918129020266
5.841059602649007,0.6528445899725565
5.860927152317881,0.6428733759994264
5.880794701986755,0.6337552723583316
5.900662251655629,0.625564682145985
5.920529801324503,0.618371894113235
5.940397350993377,0.61224157142517
5.960264900662251,0.6072312066466753
5.980132450331126,0.6033896195855064
6.0,0.6007555846816948
6.0198675496688745,0.5993566768354208
6.039735099337749,0.5992084170988755
6.059602649006623,0.6003137821825055
6.079470198675497,0.6026631157378809
6.099337748344371,0.6062344480975795
6.119205298013245,0.6109941989374087
6.139072847682119,0.6168982087405712
6.158940397350993,0.623893023755406
6.178807947019867,0.6319173475705209
6.198675496688741,0.6409035708597906
6.218543046357616,0.6507792979847379
6.23841059602649,0.6614688025764134
6.258278145695365,0.6728943611013473
6.2781456953642385,0.6849774310690505
6.298013245033113,0.6976396568643173
6.317880794701987,0.7108036998467187
6.337748344370861,0.7243938997418071
6.357615894039735,0.7383367814292211
6.377483443708609,0.7525614253705973
6.397350993377484,0.7669997216788409
6.417218543046357,0.7815865278250468
6.437086092715232,0.7962597487856478
6.456953642384105,0.8109603565317031
6.47682119205298,0.825632363526992
6.496688741721854,0.8402227625938259
6.516556291390729,0.854681443300852
6.5364238410596025,0.8689610930246761
6.556291390728477,0.8830170890862302
6.5761589403973515,0.8968073868770721
6.596026490066225,0.9102924076585168
6.6158940397351,0.9234349287169586
6.635761589403973,0.9361999777620251
6.655629139072848,0.9485547328298818
6.675496688741721,0.9604684284747382
6.695364238410596,0.9719122686679765
6.715231788079469,0.9828593465562993
6.735099337748344,0.9932845710366541
6.754966887417219,1.0031645999699401
6.774834437086093,1.0124777797650142
6.794701986754967,1.021204091009472
6.814569536423841,1.0293250997921228
6.8344370860927155,1.0368239143528712
6.854304635761589,1.043685146697645
6.874172185430464,1.0498948788301437
6.894039735099337,1.055440633272281
6.913907284768212,1.0603113475705443
6.933774834437086,1.0644973525138708
6.95364238410596,1.0679903538192694
6.973509933774834,1.0707834170728472
6.993377483443709,1.0728709557461331
7.013245033112583,1.0742487221402097
7.033112582781457,1.074913801142461
7.052980132450331,1.0748646067132104
7.072847682119205,1.074100881052267
7.0927152317880795,1.0726236964274274
7.112582781456954,1.0704354596798906
7.132450331125828,1.0675399194545603
7.152317880794702,1.0639421762359738
7.172185430463576,1.0596486953050044
7.19205298013245,1.0546673227653784
7.211920529801324,1.049007304824103
7.231788079470198,1.0426793105456849
7.251655629139073,1.0356954583351288
7.271523178807947,1.0280693464412949
7.291390728476822,1.0198160878067486
7.311258278145695,1.0109523496240862
7.33112582781457,1.0014963979900036
7.3509933774834435,0.9914681480740855
7.370860927152318,0.9808892202393076
7.390728476821192,0.9697830025598029
7.410596026490066,0.9581747201759272
7.430463576158941,0.9460915119000282
7.450331125827814,0.9335625144317179
7.470198675496689,0.9206189544485442
7.490066225165562,0.907294248694736
7.509933774834438,0.8936241119809891
7.52980132450331,0.879646672713267
7.549668874172186,0.865402595164411
7.569536423841059,0.8509352071610701
7.589403973509934,0.8362906311481243
7.6092715231788075,0.8215179156766054
7.629139072847682,0.8066691632020119
7.649006622516557,0.7917996486405655
7.66887417218543,0.776967921381905
7.6887417218543055,0.7622358813831538
7.708609271523178,0.7476688175847789
7.728476821192054,0.7333353942514106
7.748344370860927,0.7193075680739377
7.768211920529802,0.7056604161904249
7.788079470198675,0.6924718530234899
7.80794701986755,0.6798222124606188
7.827814569536423,0.6677936720323762
7.847682119205298,0.6564694980939764
7.8675496688741715,0.6459330963574653
7.887417218543046,0.6362668611301082
7.907284768211921,0.6275508296767793
7.927152317880795,0.6198611650926313
7.9470198675496695,0.6132685110135068
7.966887417218543,0.607836282521661
7.986754966887418,0.6036189769109386
8.006622516556291,0.6006606021183208
8.026490066225167,0.5989933261538529
8.046357615894038,0.5986364451416121
8.066225165562914,0.5995957496701896
8.086092715231787,0.6018633403366485
8.105960264900663,0.6054179072099084
8.125827814569536,0.6102254496236884
8.14569536423841,0.6162403779143358
8.165562913907285,0.6234069123144895
8.185430463576159,0.6316606792270568
8.205298013245034,0.6409304022466926
8.225165562913906,0.6511395931374366
8.245033112582782,0.6622081636106185
8.264900662251655,0.6740538986654515
8.28476821192053,0.6865937531391917
8.304635761589404,0.6997449523745667
8.324503311258278,0.7134258939127169
8.344370860927151,0.7275568591427848
8.364238410596027,0.7420605518893161
8.3841059602649,0.7568624854697164
8.403973509933774,0.7718912415166239
8.42384105960265,0.7870786235924504
8.443708609271523,0.8023597270225803
8.463576158940398,0.8176729440120354
8.483443708609272,0.8329599204195907
8.503311258278146,0.8481654778433472
8.52317880794702,0.8632375121141315
8.543046357615895,0.8781268770017254
8.562913907284768,0.8927872599615606
8.582781456953642,0.9071750550901375
8.602649006622515,0.9212492370985308
8.62251655629139,0.9349712390231405
8.642384105960264,0.9483048355341367
8.66225165562914,0.9612160330384094
8.682119205298013,0.9736729672699338
8.701986754966887,0.9856458086854342
8.721854304635762,0.9971066757102411
8.741721854304636,1.0080295556873506
8.76158940397351,1.0183902332511658
8.781456953642383,1.0281662257644533
8.801324503311259,1.037336725408451
8.821192052980132,1.0458825474945637
8.841059602649008,1.0537860845631248
8.86092715231788,1.0610312658461478
8.880794701986755,1.0676035216911337
8.90066225165563,1.0734897525706788
8.920529801324504,1.0786783023339652
8.940397350993377,1.083158935389694
8.960264900662251,1.0869228175464982
8.980132450331126,1.08996250027196
9.0,1.0922719081683705
9.019867549668875,1.0938463294993523
9.039735099337747,1.0946824096369339
9.059602649006623,1.0947781473353955
9.079470198675496,1.0941328937722001
9.099337748344372,1.092747354333217
9.119205298013245,1.0906235931539126
9.139072847682119,1.0877650404645152
9.158940397350994,1.0841765028238477
9.178807947019868,1.079864176362894
9.198675496688743,1.0748356631981701
9.218543046357615,1.069099991213377
9.23841059602649,1.062667637448557
9.258278145695364,1.055550555376736
9.27814569536424,1.047762206391017
9.298013245033111,1.0393175958666419
9.317880794701987,1.0302333142060647
9.33774834437086,1.0205275833156795
9.357615894039736,1.010220309001457
9.37748344370861,0.9993331398043782
9.397350993377483,0.987889532822142
9.417218543046358,0.9759148270767259
9.437086092715232,0.9634363249833794
9.456953642384107,0.9504833824466575
9.47682119205298,0.9370875080447906
9.496688741721854,0.9232824716507736
9.516556291390728,0.9091044226622099
9.536423841059603,0.8945920177508362
9.556291390728477,0.8797865576702851
9.57615894039735,0.8647321321478185
9.596026490066224,0.8494757711920415
9.6158940397351,0.8340676002335607
9.635761589403973,0.8185609953282298
9.655629139072847,0.8030127331443626
9.675496688741722,0.787483128577052
9.695364238410596,0.7720361505483684
9.715231788079471,0.7567395038487837
9.735099337748345,0.7416646617833356
9.754966887417218,0.7268868310046834
9.774834437086092,0.7124848264437862
9.794701986754967,0.6985408310232956
9.814569536423841,0.6851400123664804
9.834437086092716,0.6723699676932607
9.854304635761588,0.6603199694066357
9.874172185430464,0.649079988520699
9.894039735099337,0.6387394820462743
9.913907284768213,0.629385944468514
9.933774834437086,0.6211032426817644
9.95364238410596,0.6139697774285436
9.973509933774835,0.6080565404318371
9.993377483443709,0.6034251617132742
10.013245033112582,0.6001260617140362
10.033112582781456,0.5981968331156626
10.052980132450331,0.5976609738111484
10.072847682119205,0.5985270734141056
10.09271523178808,0.6007885220514013
10.112582781456952,0.6044237661321542
10.132450331125828,0.6093970879087897
10.152317880794701,0.6156598414511444
10.172185430463577,0.6231520437488627
10.192052980132452,0.6318042002523939
10.211920529801324,0.6415392403405565
10.2317880794702,0.6522744481248347
10.251655629139073,0.6639232938183677
10.271523178807948,0.6763970959734767
10.29139072847682,0.6896064708907256
10.311258278145695,0.7034625491219807
10.331125827814569,0.7178779582261625
10.350993377483444,0.7327675850070942
10.370860927152318,0.748049139512667
10.390728476821192,0.7636435478195729
10.410596026490065,0.7794752020391642
10.43046357615894,0.7954720950520625
10.450331125827816,0.8115658650872226
10.470198675496688,0.8276917721037452
10.490066225165563,0.8437886245150273
10.509933774834437,0.8597986714551548
10.529801324503312,0.8756674727242734
10.549668874172186,0.8913437558681934
10.56953642384106,0.9067792675755186
10.589403973509933,0.9219286247063238
10.609271523178808,0.9367491687614576
10.629139072847682,0.9512008264161728
10.649006622516556,0.9652459778250759
10.66887417218543,0.9788493337107131
