Time (s),Filtered Signal
0.0,0.006825381616307346
0.033370165745856356,0.0059179018208989406
0.06674033149171271,-0.007064703382438381
0.10011049723756907,-0.03965591181413956
0.13348066298342542,-0.09105053501899757
0.16685082872928178,-0.1518316696129535
0.20022099447513814,-0.20687999579737137
0.2335911602209945,-0.24049573531203786
0.26696132596685085,-0.24198940539068559
0.30033149171270723,-0.20977494411794145
0.33370165745856356,-0.15239670177699707
0.3670718232044199,-0.08588308290688507
0.4004419889502763,-0.028141290460156138
0.43381215469613266,0.0076167567123402655
0.467182320441989,0.01776771972938926
0.5005524861878453,0.009281740615606377
0.5339226519337017,-0.003788632901622059
0.5672928176795581,-0.006857667133602391
0.6006629834254145,0.008657168218136906
0.6340331491712707,0.041972014585574216
0.6674033149171271,0.08434983444934292
0.7007734806629835,0.12441611010328549
0.7341436464088398,0.15444265684224606
0.7675138121546962,0.17417856775716595
0.8008839779005525,0.19016419082658653
0.8342541436464089,0.21088406842984073
0.8676243093922653,0.24027779453307868
0.9009944751381216,0.2729754013209571
0.934364640883978,0.2938761791732952
0.9677348066298344,0.28281246078103317
1.0011049723756906,0.22285930454234268
1.0344751381215471,0.10916867936886461
1.0678453038674034,-0.04540876537187253
1.1012154696132597,-0.21093098356234877
1.1345856353591162,-0.3482270865691265
1.1679558011049724,-0.4222403839632651
1.201325966850829,-0.4163542732344746
1.2346961325966852,-0.34175008138377605
1.2680662983425415,-0.23673429394865433
1.301436464088398,-0.15448603817048856
1.3348066298342542,-0.14275755804735274
1.3681767955801105,-0.22341765694581062
1.401546961325967,-0.3808609767122081
1.4349171270718233,-0.5650537198688637
1.4682872928176796,-0.708566064350184
1.501657458563536,-0.750548058440919
1.5350276243093923,-0.6576002360510546
1.5683977900552488,-0.43335218501871003
1.601767955801105,-0.11406877883808846
1.6351381215469614,0.24624472446646994
1.6685082872928179,0.5938904927746274
1.7018784530386741,0.8891211268006504
1.7352486187845306,1.110832465643056
1.768618784530387,1.2523095729121287
1.8019889502762432,1.3120817372212894
1.8353591160220997,1.2858777837923692
1.868729281767956,1.1647659398335477
1.9020994475138122,0.9411699853615498
1.9354696132596687,0.6199450987438626
1.968839779005525,0.2281403756007656
2.0022099447513813,-0.18345893237502164
2.0355801104972375,-0.5504934025772377
2.0689502762430942,-0.8142402046855989
2.1023204419889505,-0.9416406279045193
2.135690607734807,-0.9364191312381327
2.169060773480663,-0.8354994161104873
2.2024309392265193,-0.6922871370742781
2.235801104972376,-0.5549981805721853
2.2691712707182323,-0.45031217089778613
2.3025414364640886,-0.37918819701644185
2.335911602209945,-0.3248814059865576
2.369281767955801,-0.26702570393150843
2.402651933701658,-0.19349227019523701
2.436022099447514,-0.10446527838383497
2.4693922651933704,-0.0087236317986744
2.5027624309392267,0.08318398655157769
2.536132596685083,0.16325044237838168
2.5695027624309392,0.22531916800601542
2.602872928176796,0.26163815331663154
2.636243093922652,0.2617225159756045
2.6696132596685085,0.21727683295049677
2.7029834254143648,0.13208908919081405
2.736353591160221,0.03056198185849681
2.7697237569060777,-0.04331859303453234
2.803093922651934,-0.04113406477910352
2.8364640883977903,0.06423761421026687
2.8698342541436466,0.25427067303278195
2.903204419889503,0.4571841032566808
2.936574585635359,0.5673007770551243
2.969944751381216,0.48876778975300444
3.003314917127072,0.1863687441481542
3.0366850828729284,-0.2819823096955154
3.0700552486187846,-0.7719047922697224
3.103425414364641,-1.1021847611470188
3.1367955801104976,-1.129342047466963
3.170165745856354,-0.8139284533858321
3.20353591160221,-0.2459416843342277
3.2369060773480665,0.38570066589108026
3.2702762430939227,0.8681524288156158
3.3036464088397794,1.0505961920901588
3.3370165745856357,0.90196872192168
3.370386740331492,0.5152753917615083
3.4037569060773483,0.05965642133292128
3.4371270718232045,-0.2941562748977825
3.4704972375690613,-0.4394194094301483
3.5038674033149175,-0.36286194217067386
3.537237569060774,-0.13124962485350758
3.57060773480663,0.1514649261836139
3.6039779005524863,0.3924031847912549
3.6373480662983426,0.5418339118892607
3.6707182320441993,0.5990540066730023
3.7040883977900556,0.595706518568871
3.737458563535912,0.5693114330720671
3.770828729281768,0.5413041231549737
3.8041988950276244,0.5086967274373064
3.837569060773481,0.4503456619973903
3.8709392265193374,0.3419964575199933
3.9043093922651937,0.17150130511453512
3.93767955801105,-0.052848013883589694
3.9710497237569062,-0.3036980290043985
4.0044198895027625,-0.5439652493270329
4.037790055248619,-0.7393259770614226
4.071160220994475,-0.868457702070732
4.104530386740332,-0.927261123240253
4.1379005524861885,-0.9262144768760716
4.171270718232044,-0.8829354011365993
4.204640883977901,-0.8138137541157174
4.238011049723757,-0.7286083610209668
4.271381215469614,-0.6302258070942618
4.30475138121547,-0.5192202431033963
4.338121546961326,-0.40001926854186154
4.371491712707183,-0.2847191199421463
4.404861878453039,-0.19127197014574224
4.438232044198895,-0.1358100667967591
4.471602209944752,-0.1224119944080829
4.504972375690608,-0.13590205679509612
4.538342541436465,-0.14276161253362107
4.5717127071823205,-0.10175929930612643
4.605082872928177,0.019021571322296708
4.638453038674034,0.22595613634290918
4.67182320441989,0.4922777725122064
4.7051933701657465,0.7636759803420383
4.738563535911602,0.9758912808089453
4.771933701657459,1.0775464205904566
4.805303867403316,1.0488213410419047
4.8386740331491715,0.9081900782678268
4.872044198895028,0.7045474417953267
4.905414364640884,0.49825871484970036
4.938784530386741,0.3391308245487691
4.972154696132597,0.25014769489891875
5.005524861878453,0.22292276836900632
5.03889502762431,0.2257262019081922
5.072265193370166,0.2199417299758303
5.105635359116023,0.1778904434216316
5.1390055248618784,0.09503483635476824
5.172375690607735,-0.007738015865255487
5.205745856353592,-0.09208915544727636
5.239116022099448,-0.11713621129334537
5.272486187845304,-0.055825022718981196
5.30585635359116,0.09291218657484046
5.339226519337017,0.3003847345265016
5.372596685082874,0.5143268514807595
5.4059668508287295,0.6735669604223633
5.439337016574586,0.7268643374700189
5.472707182320442,0.6496506283736558
5.506077348066299,0.4522632433721853
5.5394475138121555,0.17564996592931192
5.572817679558011,-0.1246785323391871
5.606187845303868,-0.40013129245203843
5.639558011049724,-0.6262390258446817
5.672928176795581,-0.8071643384225972
5.706298342541437,-0.9653775088207601
5.739668508287293,-1.1226651100838492
5.77303867403315,-1.2841376537586822
5.806408839779006,-1.4357125484475646
5.839779005524862,-1.5574992186730046
5.873149171270718,-1.6447911187231277
5.906519337016575,-1.7214562588190103
5.939889502762432,-1.8324752533956914
5.9732596685082875,-2.0135593567091794
6.006629834254144,-2.250925537105542
6.04,-2.4547892799069007
6.073370165745857,-2.4685678342467217
6.1067403314917135,-2.1206015616744924
6.140110497237569,-1.3025555195649885
6.173480662983426,-0.040122368292332435
6.206850828729282,1.4816021978835117
6.240220994475139,2.9592809488964926
6.273591160220995,4.070061310815708
6.306961325966851,4.58923857155187
6.340331491712708,4.474873028212238
6.373701657458564,3.8790558455499293
6.40707182320442,3.078394117215209
6.440441988950277,2.354794960234819
6.473812154696133,1.8819392316531942
6.50718232044199,1.6695525868511438
6.5405524861878455,1.587828901301071
6.573922651933702,1.4539336042569966
6.607292817679559,1.1331642404448383
6.640662983425415,0.6041634476463276
6.674033149171271,-0.039545768692458044
6.707403314917127,-0.6448696621748979
6.740773480662984,-1.0774469091526662
6.774143646408841,-1.2824216222885232
6.8075138121546965,-1.3011531014568773
6.840883977900553,-1.2417908922406735
6.874254143646409,-1.2231472136824935
6.907624309392266,-1.3204601849022355
6.9409944751381225,-1.5366052747486243
6.974364640883978,-1.8078551289179354
7.007734806629835,-2.0372616996633317
7.041104972375691,-2.1381184317485222
7.074475138121548,-2.0682096412324174
7.107845303867403,-1.8419682971102829
7.14121546961326,-1.5184825013718197
7.174585635359117,-1.1736180268033478
7.207955801104973,-0.8702102640210618
7.241325966850829,-0.6393295141685531
7.274696132596685,-0.4789054300314487
7.308066298342542,-0.36694853380380976
7.341436464088399,-0.27976806125943
7.3748066298342545,-0.20435902043080784
7.408176795580111,-0.1389165336770349
7.441546961325967,-0.08331408248944511
7.474917127071824,-0.027704554814441684
7.5082872928176805,0.05155962042139757
7.541657458563536,0.18435140397630542
7.575027624309393,0.3910226766425243
7.608397790055249,0.6679039994669389
7.641767955801106,0.983639836973225
7.675138121546962,1.2899156945647403
7.708508287292818,1.541394908973204
7.741878453038675,1.7136921905649942
7.775248618784531,1.8089567099884898
7.808618784530387,1.845959429703648
7.841988950276244,1.8410886577885444
7.8753591160221,1.7924256564988716
7.908729281767957,1.6773850518457802
7.9420994475138125,1.4661701051116682
7.975469613259669,1.1435326174654732
8.008839779005525,0.7260338353526057
8.042209944751383,0.2643486187716136
8.075580110497238,-0.17145689521410087
8.108950276243094,-0.5164977550618185
8.14232044198895,-0.733546286653682
8.175690607734808,-0.8233904000262717
8.209060773480664,-0.8198220300958464
8.24243093922652,-0.7733712104551502
8.275801104972377,-0.7320398384879069
8.309171270718233,-0.7268066499553391
8.342541436464089,-0.7658460173961985
8.375911602209946,-0.8369210249327911
8.409281767955802,-0.9146591542281829
8.442651933701658,-0.969231475559124
8.476022099447514,-0.9744301960165652
8.509392265193371,-0.9145158448513905
8.542762430939227,-0.7892666215949571
8.576132596685083,-0.6156924770036165
8.60950276243094,-0.42441015952416156
8.642872928176796,-0.2501204618971168
8.676243093922652,-0.11882390711301889
8.709613259668508,-0.03738237007626554
8.742983425414366,0.008689422428035195
8.776353591160222,0.046768195063703034
8.809723756906077,0.10127955406904941
8.843093922651935,0.17844806607386554
8.87646408839779,0.2602428355782328
8.909834254143647,0.3118012671036385
8.943204419889504,0.2994060539722575
8.97657458563536,0.20994339917199636
9.009944751381216,0.061308917798798115
9.043314917127072,-0.10241005868347626
9.07668508287293,-0.22913900641101886
9.110055248618785,-0.2813069856411048
9.143425414364641,-0.25111275251587434
9.176795580110499,-0.16091757663026648
9.210165745856354,-0.049125963063494496
9.24353591160221,0.05039068660451392
9.276906077348068,0.12415560527237625
9.310276243093924,0.18215404479098438
9.34364640883978,0.24740018552903145
9.377016574585635,0.33861885735302805
9.410386740331493,0.4558299788016143
9.443756906077349,0.5762633267069704
9.477127071823205,0.6621271042811971
9.510497237569062,0.6760718438216242
9.543867403314918,0.5976330533984295
9.577237569060774,0.4348158837775246
9.610607734806631,0.22743104904790085
9.643977900552487,0.040779179793121956
9.677348066298343,-0.050507501839947525
9.710718232044199,0.013193764475253535
9.744088397790057,0.24938980972276917
9.777458563535912,0.6136602792548798
9.810828729281768,0.9991340217427067
9.844198895027626,1.2626586450989226
9.877569060773482,1.2735603638013884
9.910939226519337,0.9674071234707149
9.944309392265193,0.38003832151584205
9.97767955801105,-0.3573540037593248
10.011049723756907,-1.0638644938320245
10.044419889502763,-1.5762924150755986
10.07779005524862,-1.8072594608413894
10.111160220994476,-1.7670664228833923
10.144530386740332,-1.5410946345408194
10.17790055248619,-1.2376752206249677
10.211270718232045,-0.9358056789042632
10.244640883977901,-0.6598420568671914
10.278011049723757,-0.3910086778902307
10.311381215469615,-0.10368334391866711
10.34475138121547,0.19904519019690423
10.378121546961326,0.4733826735023978
10.411491712707184,0.6528530179191205
10.44486187845304,0.6836455840815009
10.478232044198895,0.5548471646325941
10.511602209944753,0.3060983991139711
10.544972375690609,0.010270474545198124
10.578342541436465,-0.2567272086929162
10.61171270718232,-0.44177934506920874
10.645082872928178,-0.5246127104471806
10.678453038674034,-0.5117730555098845
10.71182320441989,-0.4228821336394144
10.745193370165747,-0.27899892984229
10.778563535911603,-0.09804166776379128
10.811933701657459,0.1042777717886645
10.845303867403315,0.31289598104568056
10.878674033149172,0.5145879223409021
10.912044198895028,0.7010060609418489
10.945414364640884,0.869593010976121
10.978784530386742,1.0192390686603268
11.012154696132598,1.1418647000258995
11.045524861878453,1.2155984801529987
11.078895027624311,1.2061655310596688
11.112265193370167,1.0790493217957493
11.145635359116023,0.8180352321751108
11.179005524861878,0.4404017353061432
11.212375690607736,-0.0007513502576479246
11.245745856353592,-0.43027386592761774
11.279116022099448,-0.7753700113836434
11.312486187845305,-0.9894078269526541
11.345856353591161,-1.0644791406867653
11.379226519337017,-1.0282052054111228
11.412596685082875,-0.9279929918735517
11.44596685082873,-0.8109478627360985
11.479337016574586,-0.7080021593329926
11.512707182320442,-0.627418229020465
11.5460773480663,-0.5580887460946146
11.579447513812156,-0.4792714746993245
11.612817679558011,-0.3717797058429014
11.646187845303869,-0.22627381824359288
11.679558011049725,-0.04641608533229712
11.71292817679558,0.15288084717415693
11.746298342541436,0.35014510630528395
11.779668508287294,0.522598253392073
11.81303867403315,0.6503628114302867
11.846408839779006,0.7192304152443025
11.879779005524863,0.7223978441766602
11.91314917127072,0.6615531276406806
11.946519337016575,0.5471008584164085
11.979889502762433,0.3968569911439915
12.013259668508288,0.2328078788213506
12.046629834254144,0.07648502200454992
12.08,-0.055537442492214754
12.113370165745858,-0.15436887366884203
12.146740331491714,-0.21895862624874665
12.18011049723757,-0.25413404373953125
12.213480662983427,-0.2677125161712499
12.246850828729283,-0.26776096972683333
12.280220994475139,-0.26050635150214285
12.313591160220996,-0.2490429218319474
12.346961325966852,-0.23305668648162087
12.380331491712708,-0.2099008375208977
12.413701657458564,-0.17698673656445227
12.447071823204421,-0.13458621496134013
12.480441988950277,-0.08741694402508544
12.513812154696133,-0.043601755028868025
12.54718232044199,-0.01095756739870182
12.580552486187846,0.007640293382346568
12.613922651933702,0.017069639821921626
12.64729281767956,0.02881040269960338
12.680662983425416,0.0557229998445458
12.714033149171271,0.10497876733148159
12.747403314917127,0.17266143712352247
12.780773480662985,0.24306350341005795
12.81414364640884,0.2936135322395336
12.847513812154697,0.30368177497279464
12.880883977900554,0.26350418934556574
12.91425414364641,0.17914345226912393
12.947624309392266,0.07104069546451416
12.980994475138122,-0.03336804233104128
13.01436464088398,-0.10970780713458443
13.047734806629835,-0.14496463577977584
13.081104972375691,-0.14073797839212632
13.114475138121549,-0.11092229276589201
13.147845303867404,-0.0759749376960765
13.18121546961326,-0.056863956970333834
13.214585635359118,-0.0705914489123529
13.247955801104974,-0.12707976197479273
13.28132596685083,-0.22610252997479227
13.314696132596685,-0.35387416048869486
13.348066298342543,-0.48110835555514625
13.381436464088399,-0.5657974866276514
13.414806629834255,-0.5629775294444673
13.448176795580112,-0.4403289031738513
13.481546961325968,-0.19437451273934894
13.514917127071824,0.1402843823429546
13.548287292817681,0.4950476502272364
13.581657458563537,0.786212203921947
13.615027624309393,0.9434311379258247
13.648397790055249,0.9368684819005526
13.681767955801106,0.790789187555914
13.715138121546962,0.5757018207520213
13.748508287292818,0.3801741997858767
13.781878453038676,0.2732543977444536
13.815248618784532,0.2741037760229067
13.848618784530387,0.34344475841537103
13.881988950276245,0.40185744510256527
13.9153591160221,0.36710443454115965
13.948729281767957,0.19307829505921237
13.982099447513813,-0.10804920632390029
14.01546961325967,-0.47050297185187595
14.048839779005526,-0.8030352219631808
14.082209944751382,-1.0260057252476922
14.11558011049724,-1.0999036899553734
14.148950276243095,-1.033947811829452
14.182320441988951,-0.8744470009140834
14.215690607734807,-0.6819521446091206
14.249060773480664,-0.509144692067043
14.28243093922652,-0.38767557891671517
14.315801104972376,-0.32550837026988866
14.349171270718234,-0.31130995924176946
14.38254143646409,-0.32138088753426153
14.415911602209945,-0.3265807288634287
14.449281767955803,-0.29895563188725854
14.482651933701659,-0.2182522620722836
14.516022099447515,-0.07727427848874006
14.54939226519337,0.11614441145347143
14.582762430939228,0.3422297475715193
14.616132596685084,0.5767234441538892
14.64950276243094,0.7993391570747101
14.682872928176797,0.9988178554386198
14.716243093922653,1.1716528767189882
14.749613259668509,1.3148506423996285
14.782983425414367,1.4165264742489685
14.816353591160222,1.4500028366438922
14.849723756906078,1.3764028396617578
14.883093922651934,1.1575223065899953
14.916464088397792,0.7759507784746105
14.949834254143648,0.2547219022153572
14.983204419889503,-0.3335521338500939
15.016574585635361,-0.8761134890227683
15.049944751381217,-1.2494330855084474
15.083314917127073,-1.3607141615749612
15.116685082872928,-1.1862250004042596
15.150055248618786,-0.7895652843248052
15.183425414364642,-0.3090469871252407
15.216795580110498,0.08474370000494086
15.250165745856355,0.24732265153584654
15.283535911602211,0.11277804520315152
15.316906077348067,-0.28059945057583696
15.350276243093925,-0.8024594182129634
15.38364640883978,-1.2761561784515472
15.417016574585636,-1.5404152835415146
15.450386740331492,-1.5032264558164576
15.48375690607735,-1.168489859062107
15.517127071823205,-0.6279680953229098
15.550497237569061,-0.024999546596640988
15.583867403314919,0.49409829821972595
15.617237569060775,0.8233284093544105
15.65060773480663,0.9225869542813906
15.683977900552488,0.8211670239991672
15.717348066298344,0.6017697784116317
15.7507182320442,0.3714960693707806
15.784088397790056,0.22780593454521977
15.817458563535913,0.22802101513266002
15.85082872928177,0.370959713844268
15.884198895027625,0.5975506100409821
15.917569060773483,0.8123727710962227
15.950939226519338,0.9203434550904656
15.984309392265194,0.8651573086788273
16.01767955801105,0.6530466401218592
16.051049723756908,0.35016687291026527
16.084419889502765,0.05352753424860362
16.11779005524862,-0.15155922161021176
16.151160220994477,-0.2272849194112688
16.18453038674033,-0.19526957122489932
16.21790055248619,-0.1196812595664154
16.251270718232046,-0.07141709820972256
16.2846408839779,-0.09249025345577108
16.318011049723758,-0.17861347776717343
16.351381215469615,-0.287401226823272
16.38475138121547,-0.36578925222534325
16.418121546961327,-0.38076147509460634
16.451491712707185,-0.3369811064301338
16.48486187845304,-0.27297531474737236
16.518232044198896,-0.23921763527282733
16.551602209944754,-0.270467561168412
16.584972375690608,-0.36672354132316665
16.618342541436466,-0.4917719485676187
16.651712707182323,-0.5889790629516525
16.685082872928177,-0.6057455023560618
16.718453038674035,-0.5148972344510023
16.751823204419892,-0.3241420058996441
16.785193370165747,-0.07127201991162975
16.818563535911604,0.1908255638759849
16.851933701657458,0.41210965317884746
16.885303867403316,0.5596774842959139
16.918674033149173,0.6246998978980672
16.952044198895027,0.621290752946018
16.985414364640885,0.578560018155516
17.018784530386743,0.5282341037832732
17.052154696132597,0.49125593958762653
17.085524861878454,0.4677868040137641
17.118895027624312,0.4351221289949485
17.152265193370166,0.35607720808554566
17.185635359116024,0.19628185751869262
17.21900552486188,-0.05590207722903482
17.252375690607735,-0.37584717816502056
17.285745856353593,-0.7031524189994556
17.31911602209945,-0.9583086607482926
17.352486187845304,-1.0703818360519541
