Time (s),Filtered Signal
0.0,0.012394629320004258
0.0334075723830735,0.019070586042896534
0.066815144766147,0.023524701358164545
0.1002227171492205,0.024351955831663115
0.133630289532294,0.021384417413349874
0.1670378619153675,0.015669893318269377
0.200445434298441,0.009008078116617224
0.23385300668151449,0.00326156821465437
0.267260579064588,-0.0002671498786703825
0.3006681514476615,-0.0011523904843823338
0.334075723830735,0.00023555084053138677
0.3674832962138085,0.003114545175456626
0.400890868596882,0.006745467842148459
0.4342984409799555,0.010706630095194191
0.46770601336302897,0.014857928468395775
0.5011135857461025,0.019065621359998838
0.534521158129176,0.02292054448699105
0.5679287305122495,0.025697077513804158
0.601336302895323,0.026643495214121498
0.6347438752783965,0.025455311599213586
0.66815144766147,0.022616662293442495
0.7015590200445435,0.01932312713857563
0.734966592427617,0.016926662894623263
0.7683741648106905,0.016142905230942896
0.801781737193764,0.016450085728114548
0.8351893095768375,0.016060810525549588
0.868596881959911,0.012572393346886753
0.9020044543429845,0.004041703685473533
0.9354120267260579,-0.010016214753521737
0.9688195991091315,-0.02820054118577749
1.002227171492205,-0.04760097523444151
1.0356347438752784,-0.0648271467223295
1.069042316258352,-0.0772309975943733
1.1024498886414256,-0.08377916127587391
1.135857461024499,-0.08520876251774263
1.1692650334075725,-0.08344085803826243
1.202672605790646,-0.08056380728343433
1.2360801781737194,-0.07787751243727854
1.269487750556793,-0.07543210533333443
1.3028953229398665,-0.07223592860043673
1.33630289532294,-0.0669766101679553
1.3697104677060135,-0.058858378818930066
1.403118040089087,-0.04812390799561712
1.4365256124721606,-0.03600857151779482
1.469933184855234,-0.024169061935782544
1.5033407572383075,-0.013885449254026225
1.536748329621381,-0.005433903128069131
1.5701559020044544,0.0020686976547089663
1.603563474387528,0.010278149766390878
1.6369710467706016,0.0208750644917879
1.670378619153675,0.034792958495238634
1.7037861915367485,0.051757760728265205
1.737193763919822,0.0703244781385197
1.7706013363028954,0.088374062213868
1.804008908685969,0.10384080645310656
1.8374164810690425,0.11536073601981436
1.8708240534521159,0.12259106569625193
1.9042316258351895,0.12611256702536983
1.937639198218263,0.1270103532941905
1.9710467706013366,0.1263494813391026
2.00445434298441,0.12477086115719274
2.0378619153674835,0.1223403589118897
2.071269487750557,0.11865050869637815
2.1046770601336307,0.11307312906501726
2.138084632516704,0.10503408891573736
2.1714922048997773,0.09421928095775566
2.204899777282851,0.08067965392910989
2.2383073496659245,0.06484097021406526
2.271714922048998,0.0474295422016477
2.3051224944320716,0.029319054231886143
2.338530066815145,0.011313415313378039
2.3719376391982183,-0.006086745756391427
2.405345211581292,-0.02285249360998621
2.4387527839643655,-0.03944529691281159
2.472160356347439,-0.056644195304323866
2.5055679287305126,-0.07521481032719864
2.538975501113586,-0.09552902709762436
2.5723830734966593,-0.11728814092366315
2.605790645879733,-0.13949467028627371
2.6391982182628064,-0.1607495367231053
2.67260579064588,-0.17982386621639215
2.7060133630289536,-0.1962948806564257
2.739420935412027,-0.21091007784530785
2.7728285077951007,-0.2253501958526
2.806236080178174,-0.24127344604083548
2.8396436525612474,-0.25891579032850554
2.873051224944321,-0.27592613213845296
2.9064587973273945,-0.2872670723336658
2.939866369710468,-0.2866972869616548
2.9732739420935417,-0.2695791422539836
3.006681514476615,-0.2358386719703737
3.0400890868596884,-0.1913702774782106
3.073496659242762,-0.14650121670191094
3.1069042316258355,-0.11141835443341917
3.140311804008909,-0.09025396711299533
3.1737193763919826,-0.07689602039627483
3.207126948775056,-0.05554579162112205
3.2405345211581293,-0.007154113800058104
3.273942093541203,0.0803098814474346
3.3073496659242765,0.20273412087893922
3.34075723830735,0.33768771894210126
3.3741648106904236,0.4525851496198759
3.407572383073497,0.5214069810311381
3.4409799554565703,0.542535306243943
3.474387527839644,0.5473412866178847
3.5077951002227175,0.5914861924109525
3.541202672605791,0.7285698159520182
3.5746102449888646,0.975767331799935
3.608017817371938,1.2882637398762948
3.6414253897550113,1.5587973227574765
3.674832962138085,1.648931336583687
3.7082405345211584,1.4432576677007196
3.7416481069042318,0.9041375335108611
3.7750556792873056,0.10075211590578563
3.808463251670379,-0.8042008665231432
3.8418708240534527,-1.6075206779223952
3.875278396436526,-2.1362668391480857
3.9086859688195994,-2.3054937904054547
3.942093541202673,-2.138784716757213
3.9755011135857465,-1.7456974730722383
4.00890868596882,-1.2701514056128862
4.042316258351893,-0.8350979690431016
4.075723830734967,-0.506829778161944
4.109131403118041,-0.2897290333502508
4.142538975501114,-0.1468393164554016
4.1759465478841875,-0.03125343247706136
4.209354120267261,0.08806047020006014
4.242761692650334,0.2159216789883254
4.276169265033408,0.3364954721680954
4.309576837416482,0.42775031652871803
4.342984409799555,0.47550464123969016
4.3763919821826285,0.48036941828655033
4.409799554565702,0.4559679423469789
4.443207126948775,0.4213352833088601
4.476614699331849,0.3923898201178725
4.510022271714923,0.3765667961745744
4.543429844097996,0.37223354647619916
4.5768374164810695,0.3719628174512911
4.610244988864143,0.3672989269072252
4.643652561247216,0.35263701805773456
4.67706013363029,0.32683723865873987
4.710467706013364,0.29249191978136146
4.743875278396437,0.2537445746475402
4.77728285077951,0.2139380686780834
4.810690423162584,0.17417095965732454
4.844097995545657,0.13327612507319272
4.877505567928731,0.08906979365303293
4.910913140311805,0.040189639057113556
4.944320712694878,-0.012384968470057022
4.977728285077951,-0.06488963994994905
5.011135857461025,-0.11169807769172165
5.044543429844098,-0.14728557685789526
5.077951002227172,-0.16840134794081357
5.111358574610246,-0.1754611476872451
5.144766146993319,-0.1724676749779757
5.178173719376392,-0.1654114724374853
5.211581291759466,-0.15981178205932645
5.244988864142539,-0.15848125461146176
5.278396436525613,-0.16051814411071647
5.311804008908687,-0.1619703109462299
5.34521158129176,-0.15784688614957698
5.378619153674833,-0.14455043329219708
5.412026726057907,-0.12164813073308293
5.445434298440981,-0.09224552531886876
5.478841870824054,-0.06187771159670826
5.512249443207128,-0.03646955739771758
5.545657015590201,-0.020258709003706094
5.579064587973274,-0.014508021574019004
5.612472160356348,-0.01743371440447721
5.645879732739422,-0.025244093542603922
5.679287305122495,-0.03374905338918246
5.712694877505569,-0.03982823802494457
5.746102449888642,-0.04218457088073868
5.779510022271715,-0.04117982002106633
5.812917594654789,-0.03797612376606013
5.846325167037863,-0.03349986329503767
5.879732739420936,-0.02777716810574092
5.91314031180401,-0.01996082213837133
5.946547884187083,-0.008993842518151846
5.979955456570156,0.005481207128003066
6.01336302895323,0.022490237409186334
6.046770601336304,0.039755650618358125
6.080178173719377,0.054423891331509655
6.1135857461024505,0.06416613705714891
6.146993318485524,0.068130903396076
6.180400890868597,0.06729989263210903
6.213808463251671,0.0640855526340315
6.247216035634745,0.06135191452276735
6.280623608017818,0.06127530853441964
6.3140311804008915,0.06450301498415391
6.347438752783965,0.06992904754597826
6.380846325167038,0.0751635675160625
6.414253897550112,0.07751712456525854
6.447661469933186,0.07513195972130492
6.481069042316259,0.06782976946799031
6.5144766146993325,0.057338835129925915
6.547884187082406,0.04679169040258584
6.581291759465479,0.03966323062718559
6.614699331848553,0.038529520863606455
6.648106904231627,0.044078749432989436
6.6815144766147,0.054690279112627097
6.7149220489977735,0.06669297942224534
6.748329621380847,0.07522279665815641
6.78173719376392,0.07547627088038661
6.815144766146994,0.06408495849651313
6.848552338530068,0.04027704710707391
6.881959910913141,0.0064566982039458145
6.915367483296214,-0.03210723966848618
6.948775055679288,-0.06856179805740945
6.982182628062361,-0.09642694813742546
7.015590200445435,-0.11158299499860638
7.048997772828509,-0.11352141031863075
7.082405345211582,-0.1053276168195534
7.115812917594655,-0.0923840482424281
7.149220489977729,-0.08033895517247017
7.182628062360802,-0.07319447710816156
7.216035634743876,-0.07226671033752134
7.24944320712695,-0.07632151515825145
7.282850779510023,-0.08263713385133117
7.316258351893096,-0.08837250384458284
7.34966592427617,-0.0915926771464099
7.383073496659243,-0.09158810610269465
7.416481069042317,-0.08853662336773034
7.449888641425391,-0.08287135494321785
7.4832962138084635,-0.07478769683200123
7.516703786191537,-0.06414268174536364
7.550111358574611,-0.05070109708923851
7.583518930957685,-0.03445702589763169
7.616926503340758,-0.015747789855635026
7.650334075723832,0.004922815642570211
7.683741648106905,0.027171909420634136
7.717149220489978,0.05082495311537872
7.750556792873052,0.07560395339476479
7.783964365256126,0.10051617512615155
7.817371937639199,0.12334302271935892
7.850779510022273,0.14072135241453104
7.884187082405346,0.1490880968080438
7.917594654788419,0.1462902134207835
7.951002227171493,0.13317140673581263
7.984409799554567,0.11422055198925762
8.01781737193764,0.0966021258281683
8.051224944320714,0.08756841261476404
8.084632516703786,0.09110888557340265
8.118040089086861,0.1053024189752198
8.151447661469934,0.12182648330747832
8.184855233853007,0.12832276527455844
8.218262806236082,0.11306450618591395
8.251670378619155,0.07016511147878375
8.285077951002227,0.0030326525291683865
8.318485523385302,-0.0757072110439992
8.351893095768375,-0.1481380699729029
8.385300668151448,-0.19738026916770662
8.418708240534523,-0.21367518399312102
8.452115812917596,-0.19761484104407817
8.485523385300668,-0.1591977937780893
8.518930957683743,-0.11330332195873401
8.552338530066816,-0.07374018747260744
8.585746102449889,-0.04848943292640573
8.619153674832964,-0.037975537366948954
8.652561247216036,-0.03665709847107458
8.68596881959911,-0.036740721458981766
8.719376391982184,-0.032078577934940025
8.752783964365257,-0.020549907623040972
8.78619153674833,-0.004187238282989743
8.819599109131405,0.012569364538022723
8.853006681514477,0.025360864566991808
8.88641425389755,0.031908180535691125
8.919821826280625,0.032745402161166774
8.953229398663698,0.030604265547525884
8.98663697104677,0.028938752204734908
9.020044543429846,0.03031613937500377
9.053452115812918,0.035300050573008425
9.086859688195991,0.04215847018642319
9.120267260579066,0.047419453571507654
9.153674832962139,0.047070613720534234
9.187082405345212,0.03806114523958962
9.220489977728286,0.019680527636752234
9.25389755011136,-0.005648266677899641
9.287305122494432,-0.032554240231622095
9.320712694877507,-0.05403019713506684
9.35412026726058,-0.06360326876977584
9.387527839643653,-0.05765549920069873
9.420935412026727,-0.036960553559672364
9.4543429844098,-0.006690912585466504
9.487750556792873,0.02525003220656627
9.521158129175948,0.050959695034804985
9.55456570155902,0.0652005233606657
9.587973273942094,0.06688442256837025
9.621380846325168,0.05883449842578137
9.654788418708241,0.04609704332180437
9.688195991091314,0.03369897592215196
9.721603563474389,0.024867177793548224
9.755011135857462,0.02034479393488118
9.788418708240535,0.018827796384422463
9.82182628062361,0.018053532416302528
9.855233853006682,0.015920488232010883
9.888641425389755,0.011198120336489231
9.92204899777283,0.0037162919544389684
9.955456570155903,-0.005811798317065586
9.988864142538976,-0.01610372533078138
10.02227171492205,-0.025617977688042293
10.055679287305123,-0.032847367526164066
10.089086859688196,-0.03663322753099389
10.12249443207127,-0.03648502310459767
10.155902004454344,-0.03280569409896793
10.189309576837417,-0.02690180159003591
10.222717149220491,-0.020730688872758835
10.256124721603564,-0.01644935648668504
10.289532293986637,-0.01589626558602469
10.322939866369712,-0.02012196294299965
10.356347438752785,-0.029030357495837298
10.389755011135858,-0.04117460382139165
10.423162583518932,-0.05379547591542622
10.456570155902005,-0.06323223223955254
10.489977728285078,-0.06577089552138762
10.523385300668153,-0.05878267029744335
10.556792873051226,-0.04174674858119603
10.590200445434299,-0.01664761823614828
10.623608017817373,0.01256288194216744
10.657015590200446,0.04129170246783483
10.69042316258352,0.06581445928838954
10.723830734966594,0.08421423591079036
10.757238307349667,0.09629187068959277
10.790645879732741,0.10259116825154374
10.824053452115814,0.10322989749728392
10.857461024498887,0.09736903550844547
10.890868596881962,0.08376604983894556
10.924276169265035,0.06214519943733437
10.957683741648108,0.034505604655687735
10.991091314031182,0.005379784490794406
11.024498886414255,-0.019423227460842962
11.057906458797328,-0.03516261991186655
11.091314031180403,-0.040421663712799774
11.124721603563476,-0.03797378654317535
11.158129175946549,-0.03360381130878465
11.191536748329623,-0.033332499638031164
11.224944320712696,-0.040432010004276986
11.25835189309577,-0.0538217127869257
11.291759465478844,-0.06872881847352005
11.325167037861917,-0.0792550854622575
11.35857461024499,-0.08142200789736233
11.391982182628064,-0.07500796064361342
11.425389755011137,-0.06320635708386124
11.45879732739421,-0.05040351123780667
11.492204899777285,-0.039444657022824285
11.525612472160358,-0.030002540341360528
11.55902004454343,-0.018967857090668366
11.592427616926505,-0.002584925125948611
11.625835189309578,0.02093243793393048
11.659242761692651,0.04980250753169567
11.692650334075726,0.07898054218957469
11.726057906458799,0.10218204903634032
11.759465478841872,0.11452309983774642
11.792873051224946,0.11440519875345717
11.82628062360802,0.10375473586179806
11.859688195991092,0.08665251340543167
11.893095768374167,0.06722345022657399
11.92650334075724,0.04795338203247845
11.959910913140313,0.029240500726326484
11.993318485523387,0.010224758202262452
12.02672605790646,-0.009776184439587129
12.060133630289533,-0.03016864496808858
12.093541202672608,-0.04897787166134772
12.12694877505568,-0.0637445803463479
12.160356347438753,-0.07281899848439732
12.193763919821828,-0.07622414199730994
12.227171492204901,-0.07553790750998562
12.260579064587974,-0.07284386850353049
12.293986636971049,-0.06936630511621172
12.327394209354122,-0.06461089592207558
12.360801781737194,-0.05656502715052152
12.39420935412027,-0.04292350080122046
12.427616926503342,-0.022724398813946785
12.461024498886415,0.002475606521197973
12.49443207126949,0.028553941593379217
12.527839643652563,0.05002511062291703
12.561247216035635,0.06201561515862838
12.59465478841871,0.062168150767016185
12.628062360801783,0.05165875797599458
12.661469933184856,0.03489130576096916
12.69487750556793,0.01798195719525528
12.728285077951004,0.006621977449874159
12.761692650334076,0.004123871528411549
12.795100222717151,0.010352003418554028
12.828507795100224,0.021885726024154183
12.861915367483297,0.03331319463622502
12.895322939866372,0.03916939402340339
12.928730512249444,0.03583091989427907
12.962138084632517,0.02271588349854688
12.995545657015592,0.0023938025807102178
13.028953229398665,-0.02039596693753289
13.062360801781738,-0.04042387554982193
13.095768374164813,-0.053706826309599776
13.129175946547885,-0.05866020507733782
13.162583518930958,-0.05627229805058958
13.195991091314033,-0.0493043863397885
13.229398663697106,-0.04090337502399563
13.262806236080179,-0.03323351050772062
13.296213808463254,-0.02670458571194362
13.329621380846326,-0.020105411934900713
13.3630289532294,-0.011546228637765638
13.396436525612474,0.00026012620253638524
13.429844097995547,0.015017936108437987
13.46325167037862,0.030675551916312244
13.496659242761694,0.04417144412762632
13.530066815144767,0.05274074644204052
13.56347438752784,0.055124027305703836
13.596881959910915,0.052064245344724244
13.630289532293988,0.045854142057074145
13.66369710467706,0.03919992548639575
13.697104677060135,0.0340133399432095
13.730512249443208,0.030739657983505884
13.763919821826281,0.02849127078823043
13.797327394209356,0.025800080410528434
13.830734966592429,0.021498400112879658
13.864142538975502,0.015245049865301376
13.897550111358576,0.007487862408731906
13.93095768374165,-0.0009988630669888648
13.964365256124722,-0.00965178969531103
13.997772828507797,-0.018399685984611357
14.03118040089087,-0.027552590221281748
14.064587973273943,-0.03739584136644297
14.097995545657017,-0.04773153199254808
14.13140311804009,-0.0576217648589473
14.164810690423163,-0.0654896512034414
14.198218262806238,-0.06957816220094513
14.23162583518931,-0.06860722649828137
14.265033407572384,-0.06235827439826999
14.298440979955458,-0.05190538546302609
14.331848552338531,-0.039334705144736595
14.365256124721604,-0.027022132231798446
14.398663697104679,-0.01677363367406791
14.432071269487752,-0.009238079175226316
14.465478841870825,-0.0038899931042423183
14.4988864142539,0.0004221812715004876
14.532293986636972,0.004702484053620856
14.565701559020045,0.009311123431099818
14.59910913140312,0.014103068347848956
14.632516703786193,0.01914885388271429
14.665924276169266,0.025534477570539723
14.69933184855234,0.035542011114024115
14.732739420935413,0.051758134341746906
14.766146993318486,0.07528003288969287
14.79955456570156,0.1038672713933311
14.832962138084634,0.13120279418206884
14.866369710467707,0.1480975012446957
14.899777282850781,0.14556531303994957
14.933184855233854,0.11863869721087825
14.966592427616927,0.06918091217824816
15.0,0.006200121457452954
