Frequency (Hz),Amplitude
0.0,3.0877382864224963
0.019823788546255508,3.0886102367506574
0.039647577092511016,3.091221131981454
0.059471365638766524,3.0955561604865514
0.07929515418502203,3.1015908201856424
0.09911894273127755,3.109291189406595
0.11894273127753305,3.1186142961690675
0.13876651982378857,3.1295085765552217
0.15859030837004406,3.1419144109486985
0.17841409691629956,3.155764725545163
0.1982378854625551,3.170985645697655
0.2180616740088106,3.1874971873534963
0.2378854625550661,3.2052139730331963
0.25770925110132165,3.2240459594358932
0.27753303964757714,3.243899164752806
0.29735682819383263,3.2646763850426477
0.31718061674008813,3.2862778904804
0.3370044052863437,3.3086020938460665
0.3568281938325991,3.33154618519574
0.37665198237885467,3.355006728186867
0.3964757709251102,3.3788802149612303
0.41629955947136565,3.4030635777846654
0.4361233480176212,3.4274546567788797
0.4559471365638767,3.4519526240440914
0.4757709251101322,3.4764583652623364
0.49559471365638774,3.5008748204933786
0.5154185022026433,3.525107286343325
0.5352422907488987,3.5490636820136885
0.5550660792951543,3.572654781945271
0.5748898678414097,3.5957944178752843
0.5947136563876653,3.6183996531452864
0.6145374449339208,3.640390932050624
0.6343612334801763,3.6616922069230013
0.6541850220264318,3.6822310455018012
0.6740088105726874,3.7019387209880503
0.6938325991189428,3.7207502869973292
0.7136563876651982,3.7386046394422636
0.7334801762114539,3.7554445671884986
0.7533039647577093,3.771216793144208
0.7731277533039648,3.7858720072657492
0.7929515418502204,3.7993648927947734
0.8127753303964759,3.8116541468838765
0.8325991189427313,3.8227024966227443
0.8524229074889869,3.83247671134171
0.8722466960352424,3.840947611947161
0.8920704845814978,3.848090077930778
0.9118942731277534,3.8538830525926624
0.931718061674009,3.858309546925115
0.9515418502202644,3.86135664251871
0.9713656387665199,3.8630154937737653
0.9911894273127755,3.863281329626965
1.0110132158590308,3.862153454934183
1.0308370044052866,3.859635251584066
1.0506607929515421,3.8557341793523077
1.0704845814977975,3.8504617764419318
1.090308370044053,3.8438336595889586
1.1101321585903086,3.835869523544603
1.1299559471365639,3.8265931396727244
1.1497797356828194,3.816032353323911
1.1696035242290752,3.8042190795635054
1.1894273127753305,3.791189296739333
1.209251101321586,3.7769830372741606
1.2290748898678416,3.7616443749573953
1.248898678414097,3.7452214078891757
1.2687224669603525,3.7277662360968837
1.288546255506608,3.709334932699445
1.3083700440528636,3.6899875073379076
1.3281938325991192,3.669787860422826
1.3480176211453747,3.6488037265712294
1.36784140969163,3.6271066054198573
1.3876651982378856,3.6047716778110845
1.4074889867841411,3.5818777051572295
1.4273127753303965,3.5585069096036643
1.4471365638766522,3.534744832439645
1.4669603524229078,3.5106801680561897
1.4867841409691631,3.486404570635446
1.5066079295154187,3.462012430688551
1.5264317180616742,3.437600618553852
1.5462555066079295,3.4132681920439207
1.5660792951541853,3.3891160656036354
1.5859030837004409,3.3652466386346833
1.6057268722466962,3.3417633810710865
1.6255506607929517,3.3187703748742114
1.6453744493392073,3.296371810866505
1.6651982378854626,3.274671441251426
1.6850220264317182,3.2537719892711063
1.7048458149779737,3.2337745187265647
1.7246696035242293,3.214777767505737
1.7444933920704848,3.19687745079811
1.7643171806167404,3.180165541272847
1.7841409691629957,3.1647295350960714
1.8039647577092512,3.150651714185953
1.8237885462555068,3.1380084164650004
1.8436123348017623,3.1268693269756174
1.863436123348018,3.1172968034855844
1.8832599118942732,3.109345250543127
1.9030837004405288,3.1030605557782223
1.9229074889867843,3.0984796015467775
1.9427312775330399,3.095629863763093
1.9625550660792954,3.094529107987487
1.982378854625551,3.095185190587638
2.002202643171806,3.09759597016696
2.0220264317180616,3.101749331572468
2.041850220264317,3.107623321798621
2.061674008810573,3.1151863941435423
2.0814977973568287,3.1243977541957144
2.1013215859030843,3.135207798766847
2.1211453744493394,3.1475586368478026
2.140969162995595,3.161384680126647
2.1607929515418505,3.176613289611874
2.180616740088106,3.1931654644563148
2.2004405286343616,3.210956559149771
2.220264317180617,3.229897015786567
2.2400881057268722,3.249893099043108
2.2599118942731278,3.2708476227321044
2.2797356828193833,3.2926606582421463
2.299559471365639,3.315230216734588
2.319383259911895,3.33845289857091
2.3392070484581504,3.3622245050137205
2.3590308370044055,3.386440608725507
2.378854625550661,3.4109970809402275
2.3986784140969166,3.4357905743756385
2.418502202643172,3.460718961974037
2.4383259911894277,3.485681732401838
2.4581497797356833,3.5105803439090857
2.4779735682819384,3.535318538659044
2.497797356828194,3.5598026200017707
2.5176211453744495,3.583941695401219
2.537444933920705,3.6076478878527425
2.5572687224669606,3.6308365186651717
2.577092511013216,3.6534262644474413
2.5969162995594717,3.675339291049683
2.6167400881057272,3.696501367078286
2.6365638766519828,3.716841959444845
2.6563876651982383,3.736294313232173
2.676211453744494,3.7547955179732173
2.6960352422907494,3.772286562249698
2.715859030837005,3.7887123783297905
2.73568281938326,3.80402187838342
2.7555066079295156,3.8181679836414144
2.775330396475771,3.8311076477034733
2.7951541850220267,3.842801875049658
2.8149779735682823,3.853215735671984
2.834801762114538,3.862318376616118
2.854625550660793,3.870083031107924
2.874449339207049,3.876487025834436
2.8942731277533045,3.881511786853351
2.91409691629956,3.885142844517888
2.9339207048458156,3.8873698377234773
2.953744493392071,3.8881865177084753
2.9735682819383262,3.887590751570952
2.993392070484582,3.88558452559701
3.0132158590308373,3.882173948430854
3.033039647577093,3.877369254052251
3.0528634361233484,3.871184804461593
3.072687224669604,3.8636390919044508
3.092511013215859,3.8547547403964164
3.1123348017621146,3.8445585062316656
3.1321585903083706,3.833081277075971
3.151982378854626,3.8203580691536394
3.1718061674008817,3.806428021937889
3.1916299559471373,3.7913343896440983
3.2114537444933924,3.7751245287035817
3.231277533039648,3.7578498802623126
3.2511013215859035,3.739565946602714
3.270925110132159,3.720332260227362
3.2907488986784146,3.7002123441724843
3.31057268722467,3.6792736619357775
3.3303964757709252,3.657587555210509
3.350220264317181,3.63522916741857
3.3700440528634363,3.6122773508326897
3.389867841409692,3.5888145548785433
3.4096916299559474,3.564926693018135
3.4295154185022034,3.5407029854451686
3.4493392070484585,3.5162357746831874
3.469162995594714,3.4916203110809674
3.4889867841409696,3.466954505162573
3.508810572687225,3.44233864382952
3.5286343612334807,3.4178750675488665
3.5484581497797363,3.3936678059138963
3.5682819383259914,3.3698221693539483
3.588105726872247,3.3464442953164597
3.6079295154185025,3.3236406479628453
3.627753303964758,3.3015174713232605
3.6475770925110136,3.2801801969470414
3.667400881057269,3.2597328083607664
3.6872246696035247,3.2402771660879375
3.7070484581497802,3.221912298561361
3.726872246696036,3.204733665925833
3.7466960352422913,3.1888324054219304
3.7665198237885464,3.174294568685429
3.7863436123348024,3.161200362801225
3.8061674008810575,3.1496234082194006
3.8259911894273135,3.1396300275763944
3.8458149779735686,3.1312785799724323
3.8656387665198246,3.12461885526183
3.8854625550660797,3.119691542359013
3.905286343612335,3.1165277844274524
3.925110132158591,3.115148832112518
3.9449339207048464,3.115565803753575
3.964757709251102,3.117779558853454
3.9845814977973575,3.1217806881161736
4.004405286343612,3.127549620230817
4.024229074889869,3.135056842439995
4.044052863436123,3.144263228943348
4.06387665198238,3.155120468497109
4.083700440528634,3.1675715803025475
4.103524229074891,3.1815515055207344
4.123348017621146,3.196987760561145
4.143171806167401,3.2138011376836575
4.162995594713657,3.231906438404925
4.182819383259912,3.2512132256598307
4.2026431718061685,3.271626581560119
4.222466960352423,3.29304785882527
4.242290748898679,3.3153754154365083
4.262114537444934,3.3385053236881883
4.28193832599119,3.3623320464908932
4.301762114537445,3.386749075441029
4.321585903083701,3.4116495267486626
4.3414096916299565,3.4369266925615563
4.361233480176212,3.4624745465070044
4.381057268722468,3.4881882033756653
4.400881057268723,3.5139643337872823
4.420704845814979,3.5397015354105053
4.440528634361234,3.5653006628690727
4.46035242290749,3.5906651188697087
4.4801762114537445,3.6157011093529032
4.500000000000001,3.640317865615599
4.5198237885462555,3.664427836405525
4.539647577092512,3.687946852959376
4.559471365638767,3.710794269869102
4.579295154185023,3.732893084527379
4.599118942731278,3.754170037739532
4.618942731277533,3.7745556979041393
4.63876651982379,3.7939845309700315
4.658590308370044,3.8123949581780203
4.678414096916301,3.82972940339994
4.6982378854625555,3.8459343316964723
4.718061674008811,3.860960280534929
4.737885462555067,3.8747618849379637
4.757709251101322,3.8872978976765564
4.777533039647578,3.8985312054756083
4.797356828193833,3.9084288420677678
4.817180616740089,3.9169619988105016
4.837004405286344,3.9241060334719196
4.856828193832599,3.9298404776913998
4.876651982378855,3.9341490435308684
4.896475770925111,3.9370196294496433
4.9162995594713665,3.9384443259597157
4.936123348017622,3.9384194211468238
4.955947136563877,3.936945406175238
4.975770925110133,3.9340269808284813
4.995594713656388,3.9296730590736306
5.015418502202644,3.923896774571352
5.035242290748899,3.916715485986361
5.055066079295155,3.908150781881845
5.07488986784141,3.8982284849051556
5.094713656387666,3.8869786548894627
5.114537444933921,3.874435590405435
5.134361233480177,3.860637828196871
5.154185022026432,3.845628139823648
5.174008810572688,3.8294535247125925
5.193832599118943,3.812165198681393
5.213656387665199,3.7938185768511246
5.2334801762114544,3.774473249699351
5.25330396475771,3.75419295082781
5.2731277533039655,3.733045514827109
5.292951541850221,3.711102823417024
5.312775330396477,3.6884407378273476
5.332599118942731,3.665139015164405
5.352422907488988,3.641281206287434
5.372246696035242,3.616954532504024
5.392070484581499,3.592249738193072
5.4118942731277535,3.5672609162895714
5.43171806167401,3.5420853034295217
5.451541850220265,3.5168230414736574
5.47136563876652,3.4915769021217162
5.491189427312777,3.4664519714170896
5.511013215859031,3.4415552911451104
5.530837004405288,3.416995454471572
5.550660792951542,3.392882153672244
5.570484581497798,3.3693256784899095
5.5903083700440535,3.346436364538781
5.610132158590309,3.324323992265229
5.6299559471365646,3.3030971382700423
5.64977973568282,3.2828624822864936
5.669603524229076,3.2637240747650664
5.689427312775331,3.2457825717950213
5.709251101321586,3.2291344459341973
5.729074889867842,3.21387118334291
5.748898678414098,3.2000784793320136
5.768722466960353,3.1878354459341365
5.788546255506609,3.1772138462824824
5.808370044052864,3.1682773713256953
5.82819383259912,3.1610809746288306
5.848017621145375,3.155670280636441
5.867841409691631,3.1520810807654573
5.887665198237886,3.150338930051675
5.907488986784142,3.1504588548353705
5.927312775330397,3.1524451792233656
5.9471365638766525,3.1562914749303816
5.966960352422908,3.1619806357344746
5.986784140969164,3.1694850743534433
6.00660792951542,3.1787670362373577
6.026431718061675,3.189779021745228
6.04625550660793,3.202464305575403
6.066079295154186,3.2167575402608057
6.085903083700441,3.232585429091762
6.105726872246697,3.2498674530178886
6.125550660792952,3.2685166358925346
6.145374449339208,3.288440332807222
6.1651982378854635,3.3095410271409764
6.185022026431718,3.3317171232218605
6.204845814977975,3.3548637230588056
6.224669603524229,3.3788733773423356
6.244493392070486,3.4036368027329433
6.264317180616741,3.429043559266599
6.284140969162996,3.4549826834366852
6.303964757709252,3.481343274103714
6.323788546255507,3.5080150298030133
6.3436123348017635,3.534888737241516
6.363436123348018,3.5618567117921858
6.3832599118942746,3.588813191609376
6.403083700440529,3.6156546876131346
6.422907488986785,3.642280292041884
6.44273127753304,3.6685919485712075
6.462555066079296,3.6944946871650974
6.482378854625551,3.7198968268858423
6.502202643171807,3.744710149862623
6.5220264317180625,3.768850049525007
6.541850220264318,3.792235656064632
6.561674008810574,3.814789941910363
6.581497797356829,3.8364398098022012
6.601321585903085,3.857116165837703
6.62114537444934,3.8767539796488473
6.640969162995596,3.8952923336545586
6.6607929515418505,3.9126744631281154
6.680616740088107,3.928847788623272
6.700440528634362,3.943763942119499
6.720264317180618,3.9573787880777833
6.740088105726873,3.969652440441954
6.759911894273129,3.980549276479735
6.779735682819384,3.990037948228359
6.799559471365639,3.9980913921942562
6.819383259911895,4.004686837850866
6.83920704845815,4.009805815384517
6.859030837004407,4.013434163051672
6.8788546255506615,4.015562034432434
6.898678414096917,4.016183905791822
6.918502202643173,4.015298583691737
6.938325991189428,4.01290921293039
6.958149779735684,4.009023284821013
6.977973568281939,4.003652645756979
6.997797356828195,3.996813505942594
7.01762114537445,3.988526448099495
7.037444933920705,3.9788164358819476
7.0572687224669615,3.9677128216531674
7.077092511013216,3.9552493531837243
7.096916299559473,3.941464178733431
7.116740088105728,3.9263998498662778
7.136563876651983,3.910103321223651
7.156387665198239,3.8926259463425446
7.176211453744494,3.8740234684513424
7.19603524229075,3.8543560050059287
7.215859030837005,3.8336880245417126
7.235682819383261,3.8120883142141633
7.255506607929516,3.7896299361816896
7.275330396475772,3.766390170751692
7.295154185022027,3.7424504439679662
7.314977973568283,3.7178962370680173
7.334801762114538,3.6928169749899586
7.354625550660794,3.6673058908689193
7.374449339207049,3.6414598632424835
7.394273127753305,3.6153792224978836
7.4140969162995605,3.58916752295736
7.433920704845816,3.5629312769299766
7.453744493392072,3.536779647082833
7.473568281938327,3.510824093624095
7.493392070484583,3.485177973072393
7.513215859030838,3.4599560858370633
7.533039647577093,3.4352741704772285
7.552863436123348,3.4112483433661898
7.572687224669605,3.3879944835763123
7.59251101321586,3.365627564125712
7.612334801762115,3.3442609322842802
7.6321585903083715,3.3240055434029654
7.651982378854627,3.3049691546654714
7.671806167400882,3.2872554872065445
7.691629955947137,3.270963367114468
7.711453744493394,3.256185857838008
7.731277533039649,3.2430093983338453
7.751101321585904,3.2315129627956516
7.7709251101321595,3.2217672588741872
7.790748898678416,3.2138339818146426
7.81057268722467,3.2077651418073425
7.830396475770926,3.203602481009728
7.850220264317182,3.2013769951308286
7.870044052863436,3.201108572202351
7.889867841409693,3.2028057582724307
7.909691629955948,3.206465656375662
7.929515418502204,3.2120739614218037
7.9493392070484585,3.2196051297996595
7.969162995594715,3.229022678715229
7.9889867841409705,3.240279606773763
8.008810572687224,3.2533189242485197
8.02863436123348,3.268074278995266
8.048458149779737,3.2844706621651625
8.068281938325994,3.3024251767829087
8.088105726872246,3.3218478518873904
8.107929515418503,3.3426424852288124
8.12775330396476,3.3647074983942873
8.147577092511014,3.387936789584986
8.167400881057269,3.4122205709680844
8.187224669603525,3.4374461794531896
8.207048458149782,3.463498851776082
8.226872246696036,3.490262456809632
8.246696035242293,3.5176201799752853
8.266519823788547,3.545455156433552
8.286343612334802,3.5736510513422735
8.306167400881058,3.6020925868597753
8.325991189427315,3.630666016726727
8.345814977973568,3.659259550186585
8.365638766519824,3.6877637277141857
8.38546255506608,3.7160717515331845
8.405286343612337,3.744079774240929
8.42511013215859,3.7716871490478967
8.444933920704846,3.798796645205663
8.464757709251103,3.825314632165138
8.484581497797357,3.851151235899797
8.504405286343614,3.8762204706654693
8.524229074889869,3.9004403492667583
8.544052863436125,3.9237329746746727
8.56387665198238,3.9460246156016097
8.583700440528636,3.967245768398557
8.60352422907489,3.9873312074012204
8.623348017621145,4.006220025622707
8.643171806167402,4.0238556674733745
8.662995594713658,4.040185954986194
8.682819383259913,4.055163108839155
8.702643171806168,4.068743765295868
8.722466960352424,4.0808889900309415
8.74229074889868,4.091564289667123
8.762114537444935,4.100739621726533
8.78193832599119,4.108389403585658
8.801762114537446,4.114492520923434
8.821585903083701,4.119032336061145
8.841409691629957,4.12199669651042
8.861233480176212,4.123377943970505
8.881057268722468,4.123172923945648
8.900881057268723,4.121382996086682
8.92070484581498,4.118014045296076
8.940528634361234,4.113076493571089
8.960352422907489,4.106585312493416
8.980176211453745,4.098560036204195
9.000000000000002,4.089024774629052
9.019823788546258,4.078008226636477
9.039647577092511,4.065543692723392
9.059471365638768,4.051669086721263
9.079295154185024,4.036426945904466
9.099118942731279,4.019864438755863
9.118942731277533,4.002033369502734
9.13876651982379,3.9829901783773796
9.158590308370046,3.9627959363784266
9.1784140969163,3.9415163331120544
9.198237885462555,3.9192216560746123
9.218061674008812,3.895986759501355
9.237885462555067,3.8718910206497763
9.257709251101323,3.8470182811145808
9.27753303964758,3.8214567704860105
9.297356828193834,3.7952990093728625
9.317180616740089,3.768641688521075
9.337004405286345,3.741585520481041
9.356828193832602,3.71423506002447
9.376651982378855,3.6866984893015964
9.396475770925111,3.6590873635830836
9.416299559471367,3.6315163133707484
9.436123348017622,3.6041026987161646
9.455947136563877,3.5769662117849
9.475770925110133,3.550228424078597
9.49559471365639,3.524012275309121
9.515418502202644,3.498441501737243
9.5352422907489,3.4736400028674375
9.555066079295155,3.4497311467452443
9.57488986784141,3.426837015738147
9.594713656387666,3.4050775965809206
9.614537444933923,3.384569920598514
9.634361233480178,3.3654271623266516
9.654185022026432,3.347757707150018
9.674008810572689,3.331664200963563
9.693832599118945,3.3172425971049573
9.713656387665198,3.304581217761747
9.733480176211454,3.2937598485733086
9.75330396475771,3.284848886079893
9.773127753303967,3.2779085578910823
9.792951541850222,3.272988234860162
9.812775330396477,3.2701258531101964
9.832599118942733,3.269347461471259
9.852422907488988,3.270666906823626
9.872246696035244,3.2740856661298015
9.892070484581499,3.2795928297601282
9.911894273127754,3.287165236293713
9.93171806167401,3.2967677545511345
9.951541850220266,3.3083537044293925
9.971365638766521,3.3218654043836326
9.991189427312776,3.3372348303170494
10.011013215859032,3.354384368328119
10.030837004405289,3.373227642292979
10.050660792951543,3.3936703966380484
10.070484581497798,3.415611414836705
10.090308370044054,3.4389434550512075
10.11013215859031,3.4635541858105974
10.129955947136565,3.489327106523259
10.14977973568282,3.5161424398196806
10.169603524229077,3.5438779850631725
10.189427312775331,3.57240992472759
10.209251101321588,3.601613577614932
10.229074889867842,3.631364094990695
10.248898678414099,3.661537097594573
10.268722466960353,3.692009253104192
10.28854625550661,3.7226587949768963
10.308370044052865,3.7533659846708813
10.32819383259912,3.784013520068206
10.348017621145376,3.814486893509972
10.367841409691632,3.8446747032385558
10.387665198237887,3.87446892225212
10.407488986784141,3.9037651286448987
10.427312775330398,3.9324627014611493
10.447136563876654,3.9604649859587564
10.466960352422909,3.9876794319831728
10.486784140969164,4.014017708914212
10.50660792951542,4.039395800383876
10.526431718061675,4.063734081685982
10.546255506607931,4.086957382519079
10.566079295154186,4.108995037430183
10.585903083700442,4.129780926064743
10.605726872246697,4.149253505080993
10.625550660792953,4.167355833358
10.645374449339208,4.184035591916213
10.665198237885463,4.199245099778661
10.685022026431719,4.212941326828836
10.704845814977975,4.22508590456745
10.724669603524232,4.235645135533083
