Frequency (Hz),Amplitude
0.0,0.19197266228105236
0.019801980198019802,0.24395018585570513
0.039603960396039604,0.3569276563479981
0.0594059405940594,0.49014701152241075
0.07920792079207921,0.6305625269777858
0.09900990099009901,0.7738700575033896
0.1188118811881188,0.918287324494205
0.13861386138613863,1.062911276744674
0.15841584158415842,1.2072020623021915
0.1782178217821782,1.3507907160065402
0.19801980198019803,1.493397227315706
0.21782178217821782,1.634791837974853
0.2376237623762376,1.7747752240835217
0.25742574257425743,1.913167678513816
0.27722772277227725,2.0498028973895748
0.297029702970297,2.184524263434604
0.31683168316831684,2.3171825513416993
0.33663366336633666,2.4476344773068726
0.3564356435643564,2.5757417677695047
0.37623762376237624,2.7013705573582523
0.39603960396039606,2.824391001101256
0.4158415841584158,2.944677029242311
0.43564356435643564,3.062106198774984
0.45544554455445546,3.1765596115930874
0.4752475247524752,3.287921879076439
0.495049504950495,3.39608111930959
0.5148514851485149,3.5009289773197425
0.5346534653465347,3.6023606615228507
0.5544554455445545,3.7002749914755673
0.5742574257425742,3.7945744533512187
0.594059405940594,3.885165260486228
0.613861386138614,3.9719574170037246
0.6336633663366337,4.054864782998222
0.6534653465346534,4.133805140113639
0.6732673267326733,4.208700256604449
0.6930693069306931,4.2794759511626745
0.7128712871287128,4.346062154938736
0.7326732673267327,4.408392971296166
0.7524752475247525,4.4664067329257495
0.7722772277227723,4.520046056012512
0.7920792079207921,4.5692578912019925
0.8118811881188118,4.613993571154967
0.8316831683168316,4.654208854514338
0.8514851485148516,4.689863966136327
0.8712871287128713,4.720923633461571
0.891089108910891,4.747357118922182
0.9108910891089109,4.769138248297055
0.9306930693069307,4.786245434943734
0.9504950495049505,4.798661699847458
0.9702970297029703,4.806374687440594
0.99009900990099,4.80937667715607
1.00990099009901,4.807664590689295
1.0297029702970297,4.801239994952282
1.0495049504950495,4.7901091007133365
1.0693069306930694,4.774282756925077
1.0891089108910892,4.75377644075289
1.108910891089109,4.728610243325577
1.1287128712871286,4.69880885123974
1.1485148514851484,4.6644015238606285
1.1683168316831685,4.625422066473183
1.188118811881188,4.581908799350046
1.2079207920792079,4.533904522817442
1.227722772277228,4.481456478416091
1.2475247524752475,4.424616306273167
1.2673267326732673,4.3634399988235
1.2871287128712872,4.297987851044695
1.3069306930693068,4.228324407403076
1.3267326732673268,4.1545184057467655
1.3465346534653466,4.0766427184313825
1.3663366336633662,3.99477429102594
1.3861386138613863,3.9089940790253115
1.405940594059406,3.819386983097454
1.4257425742574257,3.726041783526567
1.4455445544554455,3.62905107468791
1.4653465346534653,3.5285112006237993
1.4851485148514851,3.424522193104401
1.504950495049505,3.317187713986656
1.5247524752475248,3.2066150042769146
1.5445544554455446,3.0929148431333986
1.5643564356435644,2.9762015212204243
1.5841584158415842,2.8565928345216234
1.6039603960396038,2.734210107196799
1.6237623762376237,2.6091782557538754
1.6435643564356437,2.4816259123953337
1.6633663366336633,2.3516856340430237
1.683168316831683,2.219494237221465
1.7029702970297032,2.085193321161818
1.7227722772277227,1.9489300784775425
1.7425742574257426,1.8108585563890274
1.7623762376237624,1.6711416448329168
1.782178217821782,1.52995427799815
1.801980198019802,1.3874887439701453
1.8217821782178218,1.24396383310602
1.8415841584158414,1.0996413788958193
1.8613861386138615,0.9548580301671589
1.881188118811881,0.8100911192026101
1.900990099009901,0.6661091923559181
1.920792079207921,0.5243623529564664
1.9405940594059405,0.3881747006568672
1.9603960396039604,0.2671458237512932
1.98019801980198,0.19322429972087038
2.0,0.2207397259952315
2.01980198019802,0.32480773251252804
2.0396039603960396,0.4554575976067727
2.0594059405940595,0.5951111851691969
2.0792079207920793,0.7382940029883036
2.099009900990099,0.8828709450293991
2.118811881188119,1.0278099287463744
2.1386138613861387,1.1725161475352743
2.1584158415841586,1.3165942847135894
2.1782178217821784,1.4597504082296857
2.1980198019801978,1.6017467549152669
2.217821782178218,1.7423790186828176
2.237623762376238,1.8814641416909124
2.257425742574257,2.018833387469247
2.2772277227722775,2.154328238467035
2.297029702970297,2.287797883259382
2.3168316831683167,2.4190976380071096
2.336633663366337,2.548087937613001
2.3564356435643563,2.6746336854344173
2.376237623762376,2.7986038348790836
2.3960396039603964,2.9198711244888518
2.4158415841584158,3.0383119166369474
2.4356435643564356,3.1538061073130277
2.455445544554456,3.2662370853053653
2.4752475247524752,3.37549172601664
2.495049504950495,3.4814604096753703
2.514851485148515,3.5840370567189996
2.5346534653465347,3.683119175168389
2.5544554455445545,3.7786079162223882
2.5742574257425743,3.8704081352867203
2.594059405940594,3.958428456351505
2.6138613861386135,4.042581338135016
2.633663366336634,4.122783140778106
2.6534653465346536,4.198954192143907
2.673267326732673,4.271018852979228
2.6930693069306932,4.338905580346206
2.712871287128713,4.402546988848455
2.7326732673267324,4.461879909265966
2.7524752475247527,4.51684544428217
2.7722772277227725,4.5673890210422
2.792079207920792,4.613460440324821
2.811881188118812,4.6550139221464875
2.8316831683168315,4.692008147644641
2.8514851485148514,4.724406297111846
2.8712871287128716,4.752176084072524
2.891089108910891,4.775289785311403
2.910891089108911,4.7937242667780735
2.9306930693069306,4.807461005305154
2.9504950495049505,4.816486106089785
2.9702970297029703,4.8207903158989085
2.99009900990099,4.820369031969103
3.00990099009901,4.815222306581336
3.0297029702970297,4.805354847300369
3.0495049504950495,4.790776012877406
3.0693069306930694,4.771499804824101
3.089108910891089,4.7475448546748495
3.108910891089109,4.718934406964166
3.128712871287129,4.685696297955936
3.148514851485148,4.647862930172086
3.1683168316831685,4.6054712427802285
3.1881188118811883,4.5585626779127155
3.2079207920792077,4.507183143004611
3.227722772277228,4.451382969255062
3.2475247524752473,4.391216866336581
3.267326732673267,4.3267438735003125
3.2871287128712874,4.258027307254101
3.3069306930693068,4.185134705824974
3.3267326732673266,4.108137770660749
3.346534653465347,4.02711230527981
3.366336633663366,3.9421381518467897
3.386138613861386,3.853299125940053
3.4059405940594063,3.7606829500917724
3.4257425742574257,3.6643811868319354
3.4455445544554455,3.564489172167872
3.4653465346534653,3.461105950700089
3.485148514851485,3.354334213941127
3.504950495049505,3.244280243908322
3.5247524752475248,3.1310538647640604
3.5445544554455446,3.0147684062710107
3.564356435643564,2.895540684254994
3.5841584158415842,2.7734910053447703
3.603960396039604,2.6487432063342276
3.6237623762376234,2.521424743154513
3.6435643564356437,2.391666851588837
3.6633663366336635,2.2596048131059683
3.683168316831683,2.1253783773155965
3.702970297029703,1.989132422574561
3.722772277227723,1.8510179875394968
3.7425742574257423,1.7111938970367566
3.762376237623762,1.5698293719907503
3.7821782178217824,1.4271083326905842
3.801980198019802,1.2832367510017597
3.8217821782178216,1.1384557963326738
3.841584158415842,0.9930667299264005
3.8613861386138613,0.8474815951896219
3.881188118811881,0.7023364706237902
3.9009900990099013,0.5587769671557828
3.9207920792079207,0.4193021101313629
3.9405940594059405,0.2908141561072625
3.96039603960396,0.197177683321411
3.98019801980198,0.19729568161500866
4.0,0.29107711194145
4.01980198019802,0.41965909747772023
4.03960396039604,0.559235276885553
4.0594059405940595,0.7029183250186065
4.079207920792079,0.8482132195169856
4.099009900990099,0.993975533168334
4.118811881188119,1.1395694486364434
4.138613861386139,1.2845828035297011
4.158415841584159,1.4287140231430726
4.178217821782178,1.5717215034739493
4.198019801980198,1.7133987495043133
4.217821782178218,1.8535612452644104
4.237623762376238,1.9920391103219481
4.257425742574258,2.1286728017378564
4.2772277227722775,2.2633105076206683
4.297029702970297,2.395806523837269
4.316831683168317,2.5260202245646304
4.336633663366336,2.653815403538395
4.356435643564357,2.779059853328112
4.376237623762377,2.9016251011815872
4.3960396039603955,3.0213862499768807
4.415841584158416,3.138221890930789
4.435643564356436,3.252014065945671
4.455445544554455,3.3626482646157205
4.475247524752476,3.4700134455520444
4.4950495049504955,3.5740020747595542
4.514851485148514,3.674510175873817
4.534653465346535,3.771437388490045
4.554455445544555,3.864687031809524
4.574257425742574,3.9541661715310292
4.594059405940594,4.039785688418466
4.613861386138614,4.1214603473416425
4.633663366336633,4.19910886585607
4.653465346534653,4.272653981587655
4.673267326732674,4.3420225178386875
4.693069306930693,4.4071454469461155
4.712871287128713,4.467957951011254
4.732673267326733,4.5243994796885705
4.752475247524752,4.576413804775545
4.772277227722772,4.623949071388364
4.792079207920793,4.666957845543166
4.811881188118812,4.7053971579909835
4.8316831683168315,4.739228544177997
4.851485148514852,4.768418080222806
4.871287128712871,4.792936414818999
4.891089108910891,4.81275879698629
4.910891089108912,4.827865099606502
4.930693069306931,4.8382398386919165
4.9504950495049505,4.8438721883446165
4.97029702970297,4.844755991374804
4.99009900990099,4.840889765555793
5.00990099009901,4.832276705501799
5.02970297029703,4.818924680163803
5.0495049504950495,4.8008462259469225
5.069306930693069,4.778058535461748
5.089108910891089,4.75058344193081
5.108910891089109,4.718447399280657
5.128712871287129,4.6816814579599155
5.148514851485149,4.640321236534372
5.1683168316831685,4.594406889121688
5.188118811881188,4.5439830687415546
5.207920792079208,4.489098886671947
5.227722772277227,4.429807867919134
5.247524752475248,4.36616790292969
5.267326732673268,4.298241195696345
5.2871287128712865,4.226094208439236
5.306930693069307,4.149797603079632
5.326732673267327,4.069426179768114
5.346534653465346,3.985058812785633
5.366336633663367,3.896778384207806
5.3861386138613865,3.804671715816215
5.405940594059405,3.708829499862287
5.425742574257426,3.609346229450753
5.445544554455446,3.5063201295260367
5.465346534653465,3.3998530897376207
5.485148514851486,3.2900506008628327
5.504950495049505,3.1770216970240286
5.524752475247524,3.060878906724525
5.544554455445545,2.941738216852768
5.564356435643565,2.8197190554370746
5.584158415841584,2.6949443013427796
5.603960396039604,2.5675403327233415
5.623762376237624,2.4376371315832546
5.643564356435643,2.3053684704918638
5.663366336633663,2.170872221407015
5.683168316831684,2.0342908494791563
5.702970297029703,1.895772193558069
5.7227722772277225,1.7554707032347172
5.742574257425743,1.6135494262699073
5.762376237623762,1.4701832761107099
5.782178217821782,1.3255645808696908
5.801980198019803,1.179912915797998
5.821782178217822,1.0334934985231778
5.841584158415841,0.8866540675894644
5.861386138613861,0.7399056791594277
5.881188118811881,0.59412151625068
5.900990099009901,0.45110832756045943
5.920792079207921,0.3156303280941157
5.9405940594059405,0.20440151570632042
5.96039603960396,0.17383581250099106
5.98019801980198,0.25496161719487037
6.0,0.38213076172770705
6.01980198019802,0.5224722334356665
6.03960396039604,0.6673738737046836
6.0594059405940595,0.8140023692372196
6.079207920792079,0.9611353235521467
6.099009900990099,1.1081185897557722
6.118811881188119,1.254537046905541
6.138613861386139,1.4000900605196644
6.158415841584159,1.5445376209917148
6.178217821782178,1.6876745684848258
6.198019801980198,1.8293172557333097
6.217821782178218,1.9692962111985357
6.237623762376237,2.107451904418656
6.257425742574258,2.243632209327062
6.2772277227722775,2.3776908423449354
6.297029702970296,2.5094863831053655
6.316831683168317,2.6388816555919092
6.336633663366337,2.7657433388647648
6.356435643564356,2.889941727733008
6.376237623762377,3.011350593434736
6.396039603960396,3.1298471121744504
6.415841584158415,3.245311840320045
6.435643564356436,3.357628721978367
6.455445544554456,3.466685119135036
6.475247524752475,3.572371857489493
6.495049504950495,3.6745832830945515
6.514851485148515,3.7732173262618014
6.534653465346534,3.8681755701333
6.554455445544554,3.959363321981557
6.574257425742575,4.046689685772983
6.594059405940594,4.130067634872168
6.6138613861386135,4.209414084015765
6.633663366336634,4.284649959870804
6.653465346534653,4.355700269632441
6.673267326732673,4.422494167222325
6.693069306930694,4.484965016730511
6.712871287128713,4.543050452807454
6.732673267326732,4.59669243776249
6.752475247524753,4.645837315165316
6.772277227722772,4.690435859778824
6.792079207920792,4.730443323678329
6.811881188118813,4.7658194784339445
6.8316831683168315,4.796528653251135
6.851485148514851,4.822539768980554
6.871287128712871,4.843826367921732
6.891089108910891,4.860366639357338
6.910891089108911,4.872143440765672
6.930693069306931,4.8791443146688565
6.9504950495049505,4.881361501083516
6.97029702970297,4.878791945549174
6.99009900990099,4.871437302718234
7.00990099009901,4.859303935498967
7.02970297029703,4.842402909751424
7.0495049504950495,4.820749984543557
7.069306930693069,4.794365597983379
7.089108910891089,4.763274848650966
7.108910891089109,4.72750747266304
7.128712871287128,4.687097816411965
7.148514851485149,4.642084805031217
7.1683168316831685,4.5925119066502385
7.188118811881187,4.538427092514106
7.207920792079208,4.479882793057436
7.227722772277228,4.4169358500382305
7.247524752475247,4.349647464856708
7.267326732673268,4.278083143206817
7.287128712871287,4.202312636236432
7.306930693069306,4.122409878426244
7.326732673267327,4.038452922440643
7.346534653465347,3.950523871258377
7.366336633663366,3.85870880796073
7.3861386138613865,3.7630977236463194
7.405940594059406,3.663784444061432
7.425742574257425,3.5608665556949153
7.445544554455446,3.4544453323026523
7.465346534653466,3.344625663121656
7.485148514851485,3.231515984442731
7.504950495049505,3.1152282167841894
7.524752475247524,2.9958777107260306
7.544554455445544,2.8735832056448634
7.564356435643565,2.7484668073256144
7.584158415841584,2.6206539930224384
7.603960396039604,2.4902736565012535
7.623762376237624,2.3574582117651803
7.643564356435643,2.2223437840008033
7.663366336633663,2.085070532380477
7.683168316831684,1.945783176472512
7.702970297029703,1.8046318452046126
7.7227722772277225,1.661773452558054
7.742574257425743,1.5173739647669338
7.762376237623762,1.371612241617988
7.782178217821782,1.2246868006395828
7.801980198019803,1.0768283481754808
7.821782178217822,0.9283245663496841
7.841584158415841,0.7795734854461074
7.861386138613862,0.6312120017802709
7.881188118811881,0.4844759881145457
7.900990099009901,0.3424479257164239
7.92079207920792,0.2158209706371319
7.9405940594059405,0.15148379086987732
7.96039603960396,0.21563394813685952
7.980198019801979,0.3422967200976758
8.0,0.48446456516590697
8.01980198019802,0.63141271824219
8.03960396039604,0.7800515132014543
8.05940594059406,0.9291425467222343
8.07920792079208,1.0780475179523357
8.099009900990099,1.2263672850783212
8.118811881188119,1.3738130978473644
8.138613861386139,1.5201531365368937
8.158415841584159,1.6651876896396076
8.178217821782178,1.8087366077467857
8.198019801980198,1.950632532977522
8.217821782178218,2.0907170553647507
8.237623762376238,2.2288384454270367
8.257425742574258,2.3648502794095374
8.277227722772277,2.4986105919633985
8.297029702970297,2.6299813518471944
8.316831683168317,2.7588281415735083
8.336633663366337,2.8850199691725353
8.356435643564357,3.008429167391257
8.376237623762377,3.1289313517604658
8.396039603960396,3.2464054188082896
8.415841584158416,3.3607335718731357
8.435643564356436,3.4718013659324
8.455445544554456,3.5794977654617384
8.475247524752476,3.683715211076545
8.495049504950495,3.78434969188909
8.514851485148515,3.8813008213318856
8.534653465346535,3.9744719147719056
8.554455445544555,4.063770067649067
8.574257425742575,4.1491062331675534
8.594059405940595,4.230395298784547
8.613861386138613,4.307556160900838
8.633663366336634,4.3805117972777845
8.653465346534654,4.4491893367960245
8.673267326732672,4.513520126241376
8.693069306930694,4.573439793857803
8.712871287128714,4.628888309450088
8.732673267326732,4.679810040853287
8.752475247524753,4.726153806613596
8.772277227722773,4.767872924748241
8.792079207920791,4.804925257470742
8.811881188118813,4.837273251784377
8.831683168316832,4.864883975860112
8.85148514851485,4.887729151127707
8.871287128712872,4.905785180019346
8.891089108910892,4.9190331693148295
8.91089108910891,4.927458949046387
8.930693069306932,4.931053086929417
8.950495049504951,4.929810898293216
8.97029702970297,4.92373245149354
8.990099009900991,4.912822568795625
9.00990099009901,4.897090822723995
9.029702970297029,4.87655152788193
9.04950495049505,4.8512237282510835
9.06930693069307,4.821131179988595
9.089108910891088,4.786302329746751
9.10891089108911,4.746770288548186
9.12871287128713,4.702572801257512
9.148514851485148,4.653752211699799
9.16831683168317,4.600355423485597
9.188118811881187,4.542433856613455
9.207920792079207,4.480043399933041
9.227722772277229,4.413244359566299
9.247524752475247,4.342101403400622
9.267326732673267,4.266683501788012
9.287128712871288,4.187063864608176
9.306930693069306,4.103319874883239
9.326732673267326,4.0155330191689185
9.346534653465348,3.923788814994106
9.366336633663366,3.828176735681675
9.386138613861386,3.7287901329627613
9.405940594059407,3.625726157901795
9.425742574257425,3.51908568079078
9.445544554455445,3.408973210863048
9.465346534653467,3.295496816941069
9.485148514851485,3.1787680505023648
9.504950495049505,3.058901873171215
9.524752475247526,2.9360165913981624
9.544554455445544,2.8102338021929074
9.564356435643564,2.6816783554201247
9.584158415841586,2.5504783406639144
9.603960396039604,2.4167651105354677
9.623762376237623,2.280673358436281
9.643564356435645,2.142341278774859
9.663366336633663,2.001910854350486
9.683168316831683,1.859528344504564
9.702970297029704,1.715345099401598
9.722772277227723,1.5695189224709476
9.742574257425742,1.4222163924329627
9.762376237623764,1.2736169487836306
9.782178217821782,1.123920413838957
9.801980198019802,0.9733617111815038
9.821782178217823,0.8222420746403691
9.841584158415841,0.6710027011452179
9.861386138613861,0.5204260573108516
9.881188118811881,0.3723153643622642
9.900990099009901,0.23265202478579355
9.92079207920792,0.13318016464828406
9.94059405940594,0.17213109713727168
9.96039603960396,0.2996572693168262
9.98019801980198,0.44501084856536144
10.0,0.594947472227567
10.01980198019802,0.746326680371449
10.03960396039604,0.8979966872197499
10.05940594059406,1.0493827449138353
10.07920792079208,1.2001254699641148
10.099009900990099,1.3499607384935435
10.118811881188119,1.4986721606825888
10.138613861386139,1.6460697698583941
10.158415841584159,1.7919795386624269
10.178217821782178,1.9362378476890778
10.198019801980198,2.078688409126571
10.217821782178218,2.2191804890233566
10.237623762376238,2.3575678541965632
10.257425742574258,2.4937081419164095
10.277227722772277,2.6274624856503945
10.297029702970297,2.758695300842642
10.316831683168317,2.8872741733622647
10.336633663366337,3.013069815229818
10.356435643564357,3.1359560651540463
10.376237623762377,3.2558099192432084
10.396039603960396,3.3725115821311653
10.415841584158416,3.4859445318678395
10.435643564356436,3.5959955939508697
10.455445544554454,3.7025550212230733
10.475247524752476,3.805516577273315
10.495049504950495,3.904777621607157
10.514851485148514,4.000239195293782
10.534653465346535,4.091806106108134
10.554455445544555,4.179387012412426
10.574257425742573,4.262894505185651
10.594059405940595,4.342245187731279
10.613861386138614,4.417359752684624
10.633663366336632,4.488163056010824
10.653465346534654,4.554584187737371
10.673267326732674,4.616556539207378
10.693069306930692,4.6740178666721865
10.712871287128714,4.726910351068916
10.732673267326733,4.7751806538499455
10.752475247524751,4.81877996874942
10.772277227722773,4.857664069386995
