Time (s),Filtered Signal
0.0,-0.029618741091279873
0.0334075723830735,0.3598778722074882
0.066815144766147,0.6568006868181685
0.1002227171492205,0.7921752465325537
0.133630289532294,0.7380309444604138
0.1670378619153675,0.5108249075415618
0.200445434298441,0.16185861271043425
0.23385300668151449,-0.24047850348610772
0.267260579064588,-0.6293911954023234
0.3006681514476615,-0.9530196643839385
0.334075723830735,-1.1797568474311582
0.3674832962138085,-1.2968630077681809
0.400890868596882,-1.3059723271992876
0.4342984409799555,-1.218854542889609
0.46770601336302897,-1.054882647150727
0.5011135857461025,-0.8395990699774493
0.534521158129176,-0.602734792254966
0.5679287305122495,-0.37434228475532133
0.601336302895323,-0.17898343414243456
0.6347438752783965,-0.029465114854016924
0.66815144766147,0.07731178735059115
0.7015590200445435,0.15983168895045752
0.734966592427617,0.24556529534879365
0.7683741648106905,0.3599024012757098
0.801781737193764,0.5141947112124475
0.8351893095768375,0.6980698791238354
0.868596881959911,0.8802375836853216
0.9020044543429845,1.0186210759324643
0.9354120267260579,1.0761621743020628
0.9688195991091315,1.0354326195792694
1.002227171492205,0.9052787639498624
1.0356347438752784,0.7164105429686749
1.069042316258352,0.5082449803369873
1.1024498886414256,0.3134749403729924
1.135857461024499,0.1475554161093181
1.1692650334075725,0.007413980583206257
1.202672605790646,-0.12102771550011264
1.2360801781737194,-0.2509799271401171
1.269487750556793,-0.3845502727634952
1.3028953229398665,-0.508794256040586
1.33630289532294,-0.599489357569433
1.3697104677060135,-0.6306702428333179
1.403118040089087,-0.5857848066755413
1.4365256124721606,-0.4659829762207315
1.469933184855234,-0.2923178365584601
1.5033407572383075,-0.10085352716694378
1.536748329621381,0.06789649173685768
1.5701559020044544,0.1817635758641378
1.603563474387528,0.22746490370352315
1.6369710467706016,0.214785877995835
1.670378619153675,0.17227582091192692
1.7037861915367485,0.13546851269370394
1.737193763919822,0.13181658465207036
1.7706013363028954,0.16831054178764204
1.804008908685969,0.22712047723542692
1.8374164810690425,0.2715791941712463
1.8708240534521159,0.2606046914755553
1.9042316258351895,0.1660547375588704
1.937639198218263,-0.013907797394188539
1.9710467706013366,-0.2509642663876089
2.00445434298441,-0.49416540355765864
2.0378619153674835,-0.6861833581182256
2.071269487750557,-0.7820761493606956
2.1046770601336307,-0.7632806491357956
2.138084632516704,-0.6416133179642839
2.1714922048997773,-0.4524612010152199
2.204899777282851,-0.24099499522701223
2.2383073496659245,-0.047751469777509443
2.271714922048998,0.10090901452416146
2.3051224944320716,0.19537197739413284
2.338530066815145,0.23993127082089244
2.3719376391982183,0.2478163588868929
2.405345211581292,0.2365351426610487
2.4387527839643655,0.2239699408567523
2.472160356347439,0.22446190307992045
2.5055679287305126,0.24470480202903588
2.538975501113586,0.28085622290103096
2.5723830734966593,0.3190977881620331
2.605790645879733,0.34076918175484877
2.6391982182628064,0.33061939469637375
2.67260579064588,0.2844233455960058
2.7060133630289536,0.2119368226229549
2.739420935412027,0.13333288722493172
2.7728285077951007,0.0706771994372996
2.806236080178174,0.038634606891459825
2.8396436525612474,0.03893008321736123
2.873051224944321,0.06101955315762739
2.9064587973273945,0.08824859394765246
2.939866369710468,0.10625067298654388
2.9732739420935417,0.10961897866880192
3.006681514476615,0.10400132227886176
3.0400890868596884,0.1028606033986837
3.073496659242762,0.12019340309802014
3.1069042316258355,0.1619145747405244
3.140311804008909,0.21928957336850038
3.1737193763919826,0.2676916978151118
3.207126948775056,0.27275865531496724
3.2405345211581293,0.20337614877872043
3.273942093541203,0.047249494056497185
3.3073496659242765,-0.1781573953847478
3.34075723830735,-0.4264807549391267
3.3741648106904236,-0.6378774633190449
3.407572383073497,-0.7642887223713231
3.4409799554565703,-0.7930654813022759
3.474387527839644,-0.75581606974097
3.5077951002227175,-0.714961437292756
3.541202672605791,-0.7315325941034649
3.5746102449888646,-0.8287690760248139
3.608017817371938,-0.9707445725260728
3.6414253897550113,-1.0699299540700056
3.674832962138085,-1.0238497545591192
3.7082405345211584,-0.7653187554648934
3.7416481069042318,-0.301610918401485
3.7750556792873056,0.27885498386994834
3.808463251670379,0.8385710983877589
3.8418708240534527,1.2481290402878515
3.875278396436526,1.4409333534275606
3.9086859688195994,1.437834061827439
3.942093541202673,1.3288583689179565
3.9755011135857465,1.2213112763655298
4.00890868596882,1.1811004716276157
4.042316258351893,1.1977010101407026
4.075723830734967,1.1908325252071286
4.109131403118041,1.0553480110301727
4.142538975501114,0.7213535827913321
4.1759465478841875,0.19903073068462707
4.209354120267261,-0.4145130345527409
4.242761692650334,-0.9700565197656209
4.276169265033408,-1.325983609440203
4.309576837416482,-1.404467755212886
4.342984409799555,-1.2184154106363927
4.3763919821826285,-0.8587512092805368
4.409799554565702,-0.4511253953272379
4.443207126948775,-0.10465635839446291
4.476614699331849,0.12349470108383155
4.510022271714923,0.23447090096046078
4.543429844097996,0.267395440117773
4.5768374164810695,0.26708954431784
4.610244988864143,0.25787728528072457
4.643652561247216,0.23551120683118293
4.67706013363029,0.17816810001357125
4.710467706013364,0.0674423551959947
4.743875278396437,-0.09386330423266351
4.77728285077951,-0.27717814599601664
4.810690423162584,-0.4387491872593018
4.844097995545657,-0.5388976383051816
4.877505567928731,-0.5592466465155546
4.910913140311805,-0.5090383664657055
4.944320712694878,-0.4180095490785599
4.977728285077951,-0.320413966154425
5.011135857461025,-0.23891589853371004
5.044543429844098,-0.17645294148959462
5.077951002227172,-0.11956973865451437
5.111358574610246,-0.050723940139388565
5.144766146993319,0.0374269333165138
5.178173719376392,0.13371980630947164
5.211581291759466,0.21113961096445635
5.244988864142539,0.23977143745674237
5.278396436525613,0.2037481249958225
5.311804008908687,0.11319752374814986
5.34521158129176,0.004171172098749282
5.378619153674833,-0.07453230302475229
5.412026726057907,-0.08188606848889508
5.445434298440981,-0.00269522915923989
5.478841870824054,0.1455769015459901
5.512249443207128,0.32043911693967914
5.545657015590201,0.4725898735793378
5.579064587973274,0.5659370642925315
5.612472160356348,0.5902873955941805
5.645879732739422,0.5616568511401526
5.679287305122495,0.5112904773351304
5.712694877505569,0.4695189352391727
5.746102449888642,0.4522609595772774
5.779510022271715,0.4558743965226463
5.812917594654789,0.4615124743445933
5.846325167037863,0.4455144394844898
5.879732739420936,0.3899242812013797
5.91314031180401,0.2881160729537635
5.946547884187083,0.14406014927767274
5.979955456570156,-0.0322225725990074
6.01336302895323,-0.22857503956293507
6.046770601336304,-0.4310173715318311
6.080178173719377,-0.6212327896378654
6.1135857461024505,-0.775170384186569
6.146993318485524,-0.8667335976560103
6.180400890868597,-0.877054748041339
6.213808463251671,-0.8051526952949465
6.247216035634745,-0.6732151363290506
6.280623608017818,-0.5215443400139624
6.3140311804008915,-0.39377975279096417
6.347438752783965,-0.31913145072819504
6.380846325167038,-0.30101391366751695
6.414253897550112,-0.31847270050329934
6.447661469933186,-0.3395003852339882
6.481069042316259,-0.3381602419938353
6.5144766146993325,-0.3051661635696968
6.547884187082406,-0.24604197881192383
6.581291759465479,-0.16948049614529997
6.614699331848553,-0.07531350923372541
6.648106904231627,0.048224862497966266
6.6815144766147,0.21487549899386305
6.7149220489977735,0.42432343329335387
6.748329621380847,0.6509279195136611
6.78173719376392,0.8462348583234475
6.815144766146994,0.9561840767878225
6.848552338530068,0.9450308271174593
6.881959910913141,0.8136987790290257
6.915367483296214,0.6028431164911475
6.948775055679288,0.37852640991297554
6.982182628062361,0.20677811578890526
7.015590200445435,0.12826035216272696
7.048997772828509,0.14383699989085277
7.082405345211582,0.2167529716723883
7.115812917594655,0.28990705957571433
7.149220489977729,0.31038754438286037
7.182628062360802,0.2505204442589363
7.216035634743876,0.1163794922824046
7.24944320712695,-0.05949265009318515
7.282850779510023,-0.23687029837763424
7.316258351893096,-0.38812201826046355
7.34966592427617,-0.5091140565421137
7.383073496659243,-0.6147570856107609
7.416481069042317,-0.721633459788806
7.449888641425391,-0.8277624065010764
7.4832962138084635,-0.9021219014630957
7.516703786191537,-0.8922089879888525
7.550111358574611,-0.7484532379725478
7.583518930957685,-0.45443038374138317
7.616926503340758,-0.04696383072677627
7.650334075723832,0.3864524468359034
7.683741648106905,0.7349528491867872
7.717149220489978,0.905773941492992
7.750556792873052,0.8613621839818489
7.783964365256126,0.6347087675297356
7.817371937639199,0.3154882799701272
7.850779510022273,0.013348955296417357
7.884187082405346,-0.18480798479693622
7.917594654788419,-0.24471313152074023
7.951002227171493,-0.19001479310250943
7.984409799554567,-0.08332177967856494
8.01781737193764,0.005790066649411143
8.051224944320714,0.030151943550599407
8.084632516703786,-0.02047209462605149
8.118040089086861,-0.12320324002750609
8.151447661469934,-0.23859240706733173
8.184855233853007,-0.32936578542271394
8.218262806236082,-0.3720865460521775
8.251670378619155,-0.358342985049716
8.285077951002227,-0.2887633341873922
8.318485523385302,-0.16673089948343606
8.351893095768375,0.002610193227288585
8.385300668151448,0.20734355634070079
8.418708240534523,0.42220876330816115
8.452115812917596,0.6070676582336997
8.485523385300668,0.714746893554874
8.518930957683743,0.7071022562554439
8.552338530066816,0.5725105880509374
8.585746102449889,0.3355844392488567
8.619153674832964,0.05257676233111771
8.652561247216036,-0.20719534679155305
8.68596881959911,-0.3860599787380669
8.719376391982184,-0.4572299990077995
8.752783964365257,-0.4295886979553419
8.78619153674833,-0.3368593851818848
8.819599109131405,-0.21843825167138706
8.853006681514477,-0.10303771219655264
8.88641425389755,-0.0032466870248644883
8.919821826280625,0.07865323722881605
8.953229398663698,0.14050885670254765
8.98663697104677,0.17459341205011614
9.020044543429846,0.17086255336920245
9.053452115812918,0.1262874970258434
9.086859688195991,0.05228919786137184
9.120267260579066,-0.026903533737653883
9.153674832962139,-0.08590144750969096
9.187082405345212,-0.11326531921195257
9.220489977728286,-0.12002713053671066
9.25389755011136,-0.13468863928295643
9.287305122494432,-0.1858375920944427
9.320712694877507,-0.2815831190973016
9.35412026726058,-0.3979729284893458
9.387527839643653,-0.48439055828218863
9.420935412026727,-0.484879467924633
9.4543429844098,-0.3654882786947871
9.487750556792873,-0.13398658557403229
9.521158129175948,0.15833986456613272
9.55456570155902,0.43446708111639365
9.587973273942094,0.6211782110308071
9.621380846325168,0.677007022843023
9.654788418708241,0.6062030685547971
9.688195991091314,0.4532581688964059
9.721603563474389,0.28177588347009697
9.755011135857462,0.14832507940026043
9.788418708240535,0.08309650665092587
9.82182628062361,0.08454360618994936
9.855233853006682,0.127665127115107
9.888641425389755,0.17932721990528985
9.92204899777283,0.21204246698644638
9.955456570155903,0.21034044008929195
9.988864142538976,0.16919143358558397
10.02227171492205,0.08865078440159806
10.055679287305123,-0.029622509476210514
10.089086859688196,-0.18068801522752923
10.12249443207127,-0.35078837544636204
10.155902004454344,-0.5130474716351774
10.189309576837417,-0.6298649474577048
10.222717149220491,-0.6638810419278209
10.256124721603564,-0.5938596328026675
10.289532293986637,-0.4277879761110412
10.322939866369712,-0.20559121367566682
10.356347438752785,0.011649458008785763
10.389755011135858,0.16253491731821149
10.423162583518932,0.20766970627097725
10.456570155902005,0.14382557993770395
10.489977728285078,0.003809305408008588
10.523385300668153,-0.15771544024743583
10.556792873051226,-0.2859051553288423
10.590200445434299,-0.3451267743400703
10.623608017817373,-0.3277805881263347
10.657015590200446,-0.24996257370157024
10.69042316258352,-0.1383142536039079
10.723830734966594,-0.01661252177308381
10.757238307349667,0.10049776210756389
10.790645879732741,0.2049605974845062
10.824053452115814,0.2886650438725275
10.857461024498887,0.33999102095054967
10.890868596881962,0.3479041225741368
10.924276169265035,0.31173889923317716
10.957683741648108,0.24972797349672854
10.991091314031182,0.19884864428451826
11.024498886414255,0.20299666841356367
11.057906458797328,0.29320214033368774
11.091314031180403,0.46880659940479513
11.124721603563476,0.6894336818475862
11.158129175946549,0.8835934025120735
11.191536748329623,0.9725053666698408
11.224944320712696,0.9003767940922595
11.25835189309577,0.6583895920838501
11.291759465478844,0.2913122605400055
11.325167037861917,-0.11722706034159447
11.35857461024499,-0.4751649379308027
11.391982182628064,-0.7150207988733969
11.425389755011137,-0.8150544676440132
11.45879732739421,-0.7998745321055261
11.492204899777285,-0.721883442796504
11.525612472160358,-0.634053604125417
11.55902004454343,-0.56786757781815
11.592427616926505,-0.5262731783590506
11.625835189309578,-0.4927448643759051
11.659242761692651,-0.449025085340881
11.692650334075726,-0.3903582696647033
11.726057906458799,-0.32959964064727076
11.759465478841872,-0.288558058546393
11.792873051224946,-0.282269403989417
11.82628062360802,-0.30572144348242647
11.859688195991092,-0.33110866626982516
11.893095768374167,-0.3180371181387693
11.92650334075724,-0.23229837479590906
11.959910913140313,-0.06427803156194654
11.993318485523387,0.16217327736495116
12.02672605790646,0.39550451632435896
12.060133630289533,0.5754034347157808
12.093541202672608,0.6572127862654492
12.12694877505568,0.6309994438891269
12.160356347438753,0.5261643643868583
12.193763919821828,0.3987629263182403
12.227171492204901,0.3069267790667554
12.260579064587974,0.28581847420133627
12.293986636971049,0.3339390356386255
12.327394209354122,0.4168145635843869
12.360801781737194,0.485210439199315
12.39420935412027,0.4980529950375116
12.427616926503342,0.4389171646382076
12.461024498886415,0.319436835050944
12.49443207126949,0.17012062423391883
12.527839643652563,0.024684728407009568
12.561247216035635,-0.09425807777461026
12.59465478841871,-0.18225093927881073
12.628062360801783,-0.2506727160409039
12.661469933184856,-0.3168253160247277
12.69487750556793,-0.39121685763492925
12.728285077951004,-0.46824943130753505
12.761692650334076,-0.5255058750656708
12.795100222717151,-0.533014502855296
12.828507795100224,-0.46853782866960325
12.861915367483297,-0.33105402416270746
12.895322939866372,-0.1449814779146193
12.928730512249444,0.047406357728856575
12.962138084632517,0.2014236221401045
12.995545657015592,0.2853353888939008
13.028953229398665,0.28861913487117546
13.062360801781738,0.22092937799122464
13.095768374164813,0.1048602777021243
13.129175946547885,-0.03201861204802633
13.162583518930958,-0.16196378993346236
13.195991091314033,-0.2586499049150992
13.229398663697106,-0.2985448171618344
13.262806236080179,-0.2650452573498796
13.296213808463254,-0.15534600017456063
13.329621380846326,0.013672196569271967
13.3630289532294,0.20565104196763573
13.396436525612474,0.37375357535799536
13.429844097995547,0.47603731437704394
13.46325167037862,0.4902330717858987
13.496659242761694,0.4202258620803766
13.530066815144767,0.290593562096038
13.56347438752784,0.13223079561378304
13.596881959910915,-0.032707130398032434
13.630289532293988,-0.19790899506763146
13.66369710467706,-0.3682371917511478
13.697104677060135,-0.5466026320696687
13.730512249443208,-0.7208815909980378
13.763919821826281,-0.8595396278476848
13.797327394209356,-0.919800826087265
13.830734966592429,-0.8652175307511575
13.864142538975502,-0.6841661626636455
13.897550111358576,-0.3997878745771937
13.93095768374165,-0.06559335010529713
13.964365256124722,0.25242270502588654
13.997772828507797,0.49977092566414216
14.03118040089087,0.6527526388396612
14.064587973273943,0.7238113687175434
14.097995545657017,0.7500681171840704
14.13140311804009,0.7705957624150865
14.164810690423163,0.8042178632771475
14.198218262806238,0.8398358862003166
14.23162583518931,0.8446581586841041
14.265033407572384,0.7854882362277031
14.298440979955458,0.650377163642732
14.331848552338531,0.45753441864146244
14.365256124721604,0.24611928103484684
14.398663697104679,0.054792251232425634
14.432071269487752,-0.09846620049163658
14.465478841870825,-0.22272320255953834
14.4988864142539,-0.3429968168964132
14.532293986636972,-0.47905908151038434
14.565701559020045,-0.6276228016230583
14.59910913140312,-0.7590180207723332
14.632516703786193,-0.8304813871406149
14.665924276169266,-0.8083802750772727
14.69933184855234,-0.6868699606083255
14.732739420935413,-0.49300008100951304
14.766146993318486,-0.27610077682603196
14.79955456570156,-0.08761944563243823
14.832962138084634,0.03808167381050978
14.866369710467707,0.09299213067183525
14.899777282850781,0.09178701744180083
14.933184855233854,0.05908212843254318
14.966592427616927,0.015575614516856627
15.0,-0.029423343876346833
