Time (s),Filtered Signal
0.0,0.02908122121716851
0.03337028824833703,0.08222663844359358
0.06674057649667406,0.14896132883620694
0.10011086474501109,0.24210419965301821
0.13348115299334812,0.37065055026465865
0.16685144124168516,0.5357547274796396
0.20022172949002218,0.7264826745364313
0.2335920177383592,0.9178280843503561
0.26696230598669624,1.0735035084076432
0.3003325942350333,1.1544092174079745
0.3337028824833703,1.130905901588727
0.3670731707317073,0.9944171586411862
0.40044345898004435,0.7630792047292878
0.4338137472283814,0.4780327863572895
0.4671840354767184,0.19095112675349235
0.5005543237250555,-0.0524104335098351
0.5339246119733925,-0.22576060806499285
0.5672949002217295,-0.32731618436367427
0.6006651884700666,-0.37484132760200656
0.6340354767184035,-0.39391791850637903
0.6674057649667406,-0.40555676704658844
0.7007760532150776,-0.4188704443798584
0.7341463414634146,-0.4313114557922293
0.7675166297117517,-0.4348434039693965
0.8008869179600887,-0.42361003753313803
0.8342572062084257,-0.3985624385730622
0.8676274944567628,-0.3668832557823091
0.9009977827050998,-0.33732164562914524
0.9343680709534368,-0.3147613020758128
0.9677383592017739,-0.2973384455710914
1.001108647450111,-0.27749954489206385
1.0344789356984478,-0.24595423006236553
1.067849223946785,-0.1960696233196478
1.101219512195122,-0.12653745575673186
1.134589800443459,-0.04161933114116231
1.167960088691796,0.05024375667177183
1.2013303769401331,0.13815885568275246
1.23470066518847,0.210138842183171
1.268070953436807,0.25439631962378356
1.3014412416851442,0.2613846970017117
1.3348115299334813,0.22691560770827635
1.3681818181818182,0.15550455473277694
1.4015521064301553,0.06207391393007798
1.4349223946784924,-0.02988060288277567
1.4682926829268292,-0.09428123010932597
1.5016629711751663,-0.11114652610416208
1.5350332594235034,-0.07462581670244196
1.5684035476718403,0.0034578466220913096
1.6017738359201774,0.09699458938419923
1.6351441241685145,0.1753651307632086
1.6685144124168514,0.21581714599160368
1.7018847006651885,0.2128349662327162
1.7352549889135256,0.17976126928629926
1.7686252771618625,0.14141514015435402
1.8019955654101996,0.12099247657440934
1.8353658536585367,0.12773803976278694
1.8687361419068735,0.1518294967539772
1.9021064301552106,0.1693781159808963
1.9354767184035477,0.1551782677321872
1.9688470066518848,0.09667637816927632
2.002217294900222,0.0019066666873212483
2.035587583148559,-0.10271699818541002
2.0689578713968957,-0.18360280745961524
2.102328159645233,-0.21453964900836503
2.13569844789357,-0.1876072764095827
2.1690687361419068,-0.11566978302541792
2.202439024390244,-0.026044880940935745
2.235809312638581,0.050986178197214925
2.269179600886918,0.09330838745815967
2.302549889135255,0.09314329037565523
2.335920177383592,0.05653551945326184
2.369290465631929,-0.0023222402980616836
2.4026607538802662,-0.06833626345777682
2.436031042128603,-0.13069811875814027
2.46940133037694,-0.18414441830504655
2.5027716186252773,-0.22687081262175063
2.536141906873614,-0.2574015531261854
2.569512195121951,-0.27282852382387524
2.6028824833702884,-0.26946514226774754
2.6362527716186253,-0.24511801793886467
2.6696230598669626,-0.2010859680559248
2.7029933481152995,-0.14230465164454995
2.7363636363636363,-0.07545323092230179
2.7697339246119737,-0.006310010766911137
2.8031042128603105,0.06182034118549551
2.8364745011086474,0.1275265062686179
2.8698447893569847,0.1889950803895147
2.9032150776053216,0.24174982822588345
2.9365853658536585,0.27841061829758335
2.969955654101996,0.29136613459317207
3.0033259423503327,0.2773747544708643
3.0366962305986696,0.24151872904601998
3.070066518847007,0.19769318641051403
3.1034368070953438,0.164309372813815
3.1368070953436806,0.15651121294328826
3.170177383592018,0.17851183574204926
3.203547671840355,0.22017149318683216
3.2369179600886917,0.2600899044545768
3.270288248337029,0.2741325704365728
3.303658536585366,0.24535296111323138
3.337028824833703,0.17049881341746356
3.37039911308204,0.06020130885908935
3.403769401330377,-0.06660245317535342
3.437139689578714,-0.1905263808836745
3.470509977827051,-0.29762962143901217
3.503880266075388,-0.38081989989690684
3.537250554323725,-0.4372395178802217
3.5706208425720622,-0.46453273879250284
3.603991130820399,-0.45931103148839053
3.637361419068736,-0.41934789074888884
3.6707317073170733,-0.34816988205226107
3.70410199556541,-0.2585621070389329
3.737472283813747,-0.17152626163346074
3.7708425720620844,-0.1096418311519267
3.8042128603104213,-0.08732101199853745
3.8375831485587586,-0.10297350964095871
3.8709534368070955,-0.13785665527439686
3.9043237250554323,-0.16320632245642333
3.9376940133037697,-0.15279016292855138
3.9710643015521065,-0.0948533615692167
4.004434589800444,0.0025694953764995765
4.037804878048781,0.11573403437307057
4.071175166297118,0.21662022631919567
4.1045454545454545,0.2859218328395176
4.137915742793791,0.321040767465607
4.171286031042128,0.3351784598316401
4.204656319290466,0.3482727439755135
4.238026607538803,0.3747681650680424
4.27139689578714,0.4147920633692346
4.304767184035477,0.45338958604461727
4.3381374722838135,0.46809802845904575
4.371507760532151,0.44071901884721776
4.404878048780488,0.3670720475760827
4.438248337028825,0.25980222486823207
4.471618625277162,0.14308978759502067
4.504988913525499,0.04221378745020502
4.538359201773836,-0.026777900592515596
4.571729490022173,-0.06252518971554948
4.60509977827051,-0.07690565379341872
4.638470066518847,-0.08805350030571511
4.671840354767184,-0.11160762470336291
4.705210643015521,-0.1542973476612214
4.738580931263858,-0.21235471584105567
4.771951219512196,-0.27466186340262666
4.8053215077605325,-0.3283769544827093
4.838691796008869,-0.3640418014807611
4.872062084257206,-0.37800669339131865
4.905432372505543,-0.3717366895342409
4.93880266075388,-0.34917623134970865
4.972172949002218,-0.31407246890389473
5.005543237250555,-0.26878791248706324
5.0389135254988915,-0.21502430611822407
5.072283813747228,-0.15568971826766106
5.105654101995565,-0.09648233152411109
5.139024390243902,-0.04591646602766742
5.17239467849224,-0.013326490476217173
5.205764966740577,-0.005406766361860075
5.239135254988914,-0.02261960656828769
5.2725055432372505,-0.05706460871882012
5.305875831485587,-0.09309543288761857
5.339246119733925,-0.11114155894158131
5.372616407982262,-0.09398556582284916
5.405986696230599,-0.033514768102873085
5.439356984478936,0.06472017111993657
5.472727272727273,0.18143662470706176
5.5060975609756095,0.2888385876309904
5.539467849223947,0.3597991624211735
5.572838137472284,0.3778200768154289
5.606208425720621,0.343823411786271
5.639578713968958,0.27663917731356813
5.672949002217295,0.20629887342274142
5.706319290465632,0.16220073114931255
5.7396895787139695,0.16072694925844047
5.773059866962306,0.19775752670797728
5.806430155210643,0.24998612267752754
5.83980044345898,0.28524014874688847
5.873170731707317,0.27759843026335457
5.906541019955654,0.220207853248676
5.939911308203992,0.12917272067897997
5.9732815964523285,0.03596747487612234
6.006651884700665,-0.028317005356022922
6.040022172949002,-0.049024978002313736
6.073392461197339,-0.035800083210393636
6.106762749445676,-0.017707729599776383
6.140133037694014,-0.027640556038680673
6.173503325942351,-0.0838279878100389
6.2068736141906875,-0.1781656798173795
6.240243902439024,-0.27794871229848916
6.273614190687361,-0.3409154759141739
6.306984478935698,-0.3366355840859371
6.340354767184036,-0.2637152911218475
6.373725055432373,-0.15391392257430153
6.40709534368071,-0.060319342136111634
6.4404656319290465,-0.03426624035896437
6.473835920177383,-0.10108659284216254
6.507206208425721,-0.2455968926345222
6.540576496674058,-0.41422252659091435
6.573946784922395,-0.5337187989717572
6.607317073170732,-0.5395202349423828
6.640687361419069,-0.4025743006373238
6.674057649667406,-0.14368734079768455
6.707427937915743,0.17104790686835383
6.74079822616408,0.45281964261581675
6.774168514412417,0.622318575726878
6.807538802660754,0.6388732534377748
6.840909090909091,0.514535953491269
6.874279379157428,0.307187203731004
6.9076496674057655,0.09563350997651104
6.941019955654102,-0.05251302729427335
6.974390243902439,-0.10635922934682031
7.007760532150776,-0.08011033502775981
7.041130820399113,-0.021735288220438385
7.07450110864745,0.011850668834303453
7.107871396895788,-0.018598994440482727
7.1412416851441245,-0.11776349156503443
7.174611973392461,-0.25490821974136724
7.207982261640798,-0.378100702323789
7.241352549889135,-0.43641994885462315
7.274722838137472,-0.40055846359697944
7.30809312638581,-0.27371519890084
7.341463414634147,-0.08910763452718147
7.3748337028824835,0.10414407776717355
7.40820399113082,0.2605864104361301
7.441574279379157,0.35535721428139533
7.474944567627494,0.39158690082757824
7.508314855875832,0.3953728803098859
7.541685144124169,0.40074390417595074
7.575055432372506,0.4315536847995544
7.6084257206208425,0.4888283848915624
7.641796008869179,0.549664979966291
7.675166297117517,0.5781928652387273
7.708536585365854,0.5430705898561767
7.741906873614191,0.4327167818276891
7.775277161862528,0.26082204247535656
7.808647450110865,0.05993148936923166
7.842017738359202,-0.13292257976729682
7.875388026607539,-0.2908509115571847
7.908758314855876,-0.4049643059664407
7.942128603104213,-0.4827068250147367
7.97549889135255,-0.5390962692195906
8.008869179600888,-0.5864282176585315
8.042239467849225,-0.6276977270509432
8.075609756097561,-0.6560798230990095
8.108980044345898,-0.6594125791574272
8.142350332594235,-0.6266144293826834
8.175720620842572,-0.5529110457018711
8.209090909090909,-0.4420143388117585
8.242461197339246,-0.3049791586673119
8.275831485587583,-0.15667922099374182
8.30920177383592,-0.011470605150595866
8.342572062084257,0.12033022546075843
8.375942350332595,0.23395517295329588
8.409312638580932,0.3292741341728513
8.442682926829269,0.40801157583422143
8.476053215077606,0.4704484649363198
8.509423503325943,0.5132951769707826
8.54279379157428,0.5300012482266786
8.576164079822616,0.5136318900096298
8.609534368070953,0.46105087842985226
8.64290465631929,0.3762506868476258
8.676274944567627,0.27085704564294416
8.709645232815964,0.16112918915061708
8.743015521064303,0.06256584992533953
8.77638580931264,-0.015414026407071351
8.809756097560976,-0.07207568920200763
8.843126385809313,-0.11383760618980318
8.87649667405765,-0.14928505580051057
8.909866962305987,-0.18332941844741535
8.943237250554324,-0.21375125812994028
8.97660753880266,-0.232221730081983
9.009977827050998,-0.22947680913319565
9.043348115299334,-0.20192029415182852
9.076718403547671,-0.1559106960965309
9.110088691796008,-0.10696403143141858
9.143458980044347,-0.0736203901527347
9.176829268292684,-0.06852227179301186
9.21019955654102,-0.09095749335403604
9.243569844789358,-0.12486806491278359
9.276940133037694,-0.14411538922255887
9.310310421286031,-0.12347763476026852
9.343680709534368,-0.050878338374126
9.377050997782705,0.06480591911563255
9.410421286031042,0.19452562426042785
9.443791574279379,0.2989169455636468
9.477161862527716,0.34353433069394845
9.510532150776053,0.31312221938099266
9.543902439024391,0.21884700086586747
9.577272727272728,0.09536339732717881
9.610643015521065,-0.011260332793001508
9.644013303769402,-0.06024348027684545
9.677383592017739,-0.03132007186092411
9.710753880266076,0.06700825494962258
9.744124168514412,0.19933036197870116
9.77749445676275,0.3150333420487647
9.810864745011086,0.36607262584079664
9.844235033259423,0.32447589484956846
9.87760532150776,0.19283072746284405
9.910975609756099,0.0033147126736972703
9.944345898004435,-0.1946583711561982
9.977716186252772,-0.35316945316356707
10.01108647450111,-0.4429158730637338
10.044456762749446,-0.4614158700339877
10.077827050997783,-0.4292537539443358
10.11119733924612,-0.37713154110783514
10.144567627494457,-0.3308002202312741
10.177937915742794,-0.301415140210161
10.21130820399113,-0.28528547713433566
10.244678492239467,-0.27147596861370554
10.278048780487804,-0.2514779249014381
10.311419068736143,-0.22460457811577025
10.34478935698448,-0.19606700135333044
10.378159645232817,-0.16971306264611988
10.411529933481154,-0.1410096224065213
10.44490022172949,-0.09578654573672188
10.478270509977827,-0.016604480738698184
10.511640798226164,0.10634565144728621
10.545011086474501,0.266075667861254
10.578381374722838,0.4370681487377606
10.611751662971175,0.5827262669201864
10.645121951219512,0.6687583234925574
10.67849223946785,0.6761049274465065
10.711862527716187,0.6074121866069638
10.745232815964524,0.48457066436860236
10.778603104212861,0.3393328253387939
10.811973392461198,0.20198686234553367
10.845343680709535,0.09310466003642537
10.878713968957872,0.020898105498366227
10.912084257206208,-0.0165276028691551
10.945454545454545,-0.026832550122378323
10.978824833702882,-0.019859439005277736
11.012195121951219,-0.006082044419223134
11.045565410199556,0.003551152347207915
11.078935698447895,-0.0019523517124257807
11.112305986696231,-0.03159407560773803
11.145676274944568,-0.08880706758816342
11.179046563192905,-0.1679853256828144
11.212416851441242,-0.25358440654111264
11.245787139689579,-0.32365006904734217
11.279157427937916,-0.3576269103116419
11.312527716186253,-0.345725615332805
11.34589800443459,-0.2953633432636993
11.379268292682926,-0.23052063896816055
11.412638580931263,-0.1826745697524638
11.4460088691796,-0.1762675444297306
11.479379157427939,-0.21528183736930886
11.512749445676276,-0.27814074516732074
11.546119733924613,-0.32489001441940746
11.57949002217295,-0.3146386444960268
11.612860310421286,-0.22555984140673505
11.646230598669623,-0.0676044256222962
11.67960088691796,0.11898235723408353
11.712971175166297,0.2794321655809748
11.746341463414634,0.36739849612420006
11.77971175166297,0.36424988468171915
11.813082039911308,0.28571503793787967
11.846452328159646,0.17324221438051737
11.879822616407983,0.07485730656630857
11.91319290465632,0.024917801213732015
11.946563192904657,0.03186058771169593
11.979933481152994,0.07846242569796776
12.01330376940133,0.1329666781045539
12.046674057649668,0.16478085025982736
12.080044345898004,0.1572744093132123
12.113414634146341,0.1125906351830508
12.146784922394678,0.047753863337149094
12.180155210643015,-0.014629255481178874
12.213525498891352,-0.056001629567583665
12.24689578713969,-0.06772243049044108
12.280266075388028,-0.05176841881617912
12.313636363636364,-0.017516858724481853
12.347006651884701,0.022900815160617292
12.380376940133038,0.058554984823377385
12.413747228381375,0.08206249727566577
12.447117516629712,0.09042626443040075
12.480487804878049,0.0848291313605601
12.513858093126386,0.0696862422603433
12.547228381374723,0.05107885092791739
12.58059866962306,0.03479568495378203
12.613968957871396,0.024508431646565076
12.647339246119735,0.020767341651002774
12.680709534368072,0.02126393184863461
12.714079822616409,0.022227197583815167
12.747450110864746,0.020242929450856605
12.780820399113082,0.013599194602949548
12.81419068736142,0.0026021693989303546
12.847560975609756,-0.011059361757028957
12.880931263858093,-0.025341988623516585
12.91430155210643,-0.03869006142234779
12.947671840354767,-0.050469384687604354
12.981042128603104,-0.06110956731211376
13.014412416851442,-0.07209243865308276
13.04778270509978,-0.08570204509486079
13.081152993348116,-0.10434730794507849
13.114523281596453,-0.1295116164299992
13.14789356984479,-0.16079460046882083
13.181263858093127,-0.1956576525576506
13.214634146341464,-0.2301216707358413
13.2480044345898,-0.2600084136332442
13.281374722838137,-0.28188225833469993
13.314745011086474,-0.29303189811287617
13.348115299334811,-0.2905866832359729
13.381485587583148,-0.27069998750496227
13.414855875831487,-0.22900046691315432
13.448226164079824,-0.1628310692466084
13.48159645232816,-0.07441701198478844
13.514966740576497,0.02709220236125974
13.548337028824834,0.12677773693741343
13.581707317073171,0.20884887940272234
13.615077605321508,0.26346489490562625
13.648447893569845,0.2919263874966073
13.681818181818182,0.3068837160365196
13.715188470066519,0.3265675842956498
13.748558758314855,0.36536727283960735
13.781929046563192,0.4253933792269466
13.815299334811531,0.49346711435760615
13.848669623059868,0.5452932438242423
13.882039911308205,0.55495969352118
13.915410199556542,0.5054223894441077
13.948780487804878,0.39549002654773124
13.982150776053215,0.24074482407853057
14.015521064301552,0.06851084347659125
14.048891352549889,-0.09091039996300673
14.082261640798226,-0.2135782146592065
14.115631929046563,-0.2887847302966998
14.1490022172949,-0.3212588028132437
14.182372505543238,-0.32787744249720646
14.215742793791575,-0.3298812149603735
14.249113082039912,-0.3434666207510325
14.282483370288249,-0.37270941702541055
14.315853658536586,-0.40815527190698697
14.349223946784923,-0.43193669316486066
14.38259423503326,-0.4269906437507946
14.415964523281596,-0.3857054289788649
14.449334811529933,-0.31358485154416543
14.48270509977827,-0.2262773473262755
14.516075388026607,-0.1419674607429833
14.549445676274944,-0.07346737500787932
14.582815964523283,-0.024050721732367445
14.61618625277162,0.011476884939438133
14.649556541019956,0.04204219920976878
14.682926829268293,0.07518853513120659
14.71629711751663,0.11438697866570592
14.749667405764967,0.1595015837035166
14.783037694013304,0.20895624666769205
14.81640798226164,0.2612834181120845
14.849778270509978,0.31462863612643166
14.883148558758315,0.3646996071291052
14.916518847006651,0.4031767742795887
14.949889135254988,0.4186145796158032
14.983259423503327,0.4002797423351649
15.016629711751664,0.34324383209388043
15.05,0.25184349515974314
15.083370288248338,0.13922213123174287
15.116740576496674,0.022764380965444423
15.150110864745011,-0.08243507126063963
15.183481152993348,-0.16875411892900968
15.216851441241685,-0.23722581275785365
15.250221729490022,-0.29418771428494694
15.283592017738359,-0.3452722772605992
15.316962305986696,-0.3900301986588214
15.350332594235034,-0.4201941670929436
15.383702882483371,-0.4227780827242906
15.417073170731708,-0.3867632333855469
15.450443458980045,-0.3101881519245463
15.483813747228382,-0.2039222933401095
15.517184035476719,-0.08958674774581529
15.550554323725056,0.008370304823673834
15.583924611973393,0.07349602020940858
15.61729490022173,0.10607718298046467
15.650665188470066,0.12488606495599557
15.684035476718403,0.15959619867113722
15.71740576496674,0.23591501796760397
15.750776053215079,0.3597294885105208
15.784146341463416,0.5083258613382756
15.817516629711752,0.6345203512917931
15.85088691796009,0.6837991790669163
15.884257206208426,0.6179055884854628
15.917627494456763,0.4342437379009951
15.9509977827051,0.17147415832616836
15.984368070953437,-0.10235555340131869
16.017738359201775,-0.31468861764942274
16.05110864745011,-0.415707575246969
16.08447893569845,-0.39618326675678694
16.117849223946784,-0.2885683314911614
16.151219512195123,-0.1516321785949618
16.184589800443458,-0.046046631213019766
16.217960088691797,-0.011653069172801987
16.251330376940132,-0.05547825600566194
16.28470066518847,-0.15411030967585862
16.31807095343681,-0.2675667404598889
16.351441241685144,-0.35724744432690486
16.384811529933483,-0.39982292459239843
16.418181818181818,-0.39194568365369625
16.451552106430157,-0.3456766050695958
16.48492239467849,-0.2788330126581396
16.51829268292683,-0.20601862090344336
16.551662971175165,-0.13448041133678798
16.585033259423504,-0.06548142018980403
16.61840354767184,0.0012856556281939655
16.651773835920178,0.06392221000847323
16.685144124168513,0.11773969839497452
16.71851441241685,0.15793806594243953
16.75188470066519,0.1833828649504119
16.785254988913525,0.19863315023453645
16.818625277161864,0.21252507184751085
16.8519955654102,0.23380665030214676
16.885365853658538,0.26619842001965976
16.918736141906873,0.3057139050897065
16.95210643015521,0.3418498120790002
16.985476718403547,0.3620622204941801
17.018847006651885,0.35707804148640165
17.05221729490022,0.32418608059187237
17.08558758314856,0.2669792566622221
17.118957871396898,0.1922611508163646
17.152328159645233,0.10655004418346935
17.18569844789357,0.014671862901766137
