Frequency (Hz),Amplitude
0.0,5.489496174651983
0.01978021978021978,5.486815981523511
0.03956043956043956,5.4787781156327
0.05934065934065934,5.465390715594758
0.07912087912087912,5.446667339558757
0.0989010989010989,5.422626955960088
0.11868131868131868,5.393293930709864
0.13846153846153844,5.358698010962192
0.15824175824175823,5.318874305648207
0.17802197802197803,5.2738632630196784
0.1978021978021978,5.223710645507189
0.21758241758241756,5.168467502271173
0.23736263736263735,5.108190139910783
0.2571428571428572,5.0429400919003315
0.2769230769230769,4.972784087451357
0.2967032967032967,4.89779402065562
0.31648351648351647,4.818046920960725
0.3362637362637363,4.7336249262765335
0.35604395604395606,4.64461526032224
0.3758241758241758,4.551110216222679
0.3956043956043956,4.453207148875166
0.4153846153846154,4.351008479274272
0.4351648351648351,4.244621714854451
0.45494505494505494,4.13415949106294
0.4747252747252747,4.0197396409128805
0.4945054945054945,3.9014853013369843
0.5142857142857143,3.7795250679786903
0.5340659340659341,3.653993213932209
0.5538461538461538,3.525029993332728
0.5736263736263736,3.392782058289978
0.5934065934065934,3.2574030284929916
0.6131868131868132,3.119054268495674
0.6329670329670329,2.977905950737303
0.6527472527472528,2.834138516773675
0.6725274725274726,2.687944701525699
0.6923076923076923,2.5395323664440492
0.7120879120879121,2.3891285157694626
0.7318681318681318,2.236985077589001
0.7516483516483516,2.0833873753063568
0.7714285714285715,1.928666800125517
0.7912087912087912,1.7732202181357093
0.810989010989011,1.617540487213671
0.8307692307692308,1.4622658726217572
0.8505494505494506,1.3082626501503825
0.8703296703296702,1.1567677952650295
0.8901098901098901,1.0096430159001528
0.9098901098901099,0.869835264231111
0.9296703296703297,0.7421959030623547
0.9494505494505494,0.6347586255015204
0.9692307692307692,0.5598144853578948
0.989010989010989,0.5316328689395455
1.0087912087912088,0.5574659243392822
1.0285714285714287,0.6306270508541676
1.0483516483516484,0.7369277571254357
1.0681318681318681,0.863896075855775
1.087912087912088,1.0033225689677778
1.1076923076923075,1.150243788696465
1.1274725274725275,1.301648294197561
1.1472527472527472,1.4556375570402011
1.1670329670329669,1.6109530337529254
1.1868131868131868,1.7667153413108216
1.2065934065934065,1.9222779241394659
1.2263736263736265,2.0771424640418275
1.2461538461538462,2.230908350017165
1.2659340659340659,2.3832415160679
1.2857142857142858,2.5338546486789437
1.3054945054945055,2.6824942772487135
1.3252747252747252,2.828932152795347
1.3450549450549452,2.9729593698769774
1.3648351648351649,3.114382286107243
1.3846153846153846,3.2530196456427465
1.4043956043956045,3.3887005251748366
1.4241758241758242,3.521262851968299
1.443956043956044,3.650552326226132
1.4637362637362636,3.7764216334051155
1.4835164835164834,3.8987298671665265
1.5032967032967033,4.017342107100517
1.523076923076923,4.132129111311563
1.542857142857143,4.242967094964731
1.5626373626373626,4.349737573603833
1.5824175824175823,4.452327255524609
1.6021978021978023,4.550627971416864
1.621978021978022,4.644536632346135
1.6417582417582417,4.733955209244077
1.6615384615384616,4.81879072863445
1.6813186813186813,4.898955280488953
1.7010989010989013,4.974366034990368
1.720879120879121,5.044945265654399
1.7406593406593405,5.110620376780569
1.7604395604395604,5.17132393360531
1.7802197802197801,5.226993693845735
1.7999999999999998,5.277572639571478
1.8197802197802198,5.323009008540255
1.8395604395604395,5.363256324291799
1.8593406593406594,5.398273424424167
1.879120879120879,5.4280244865817675
1.8989010989010988,5.452479051772514
1.9186813186813187,5.471612044704702
1.9384615384615385,5.485403790897034
1.9582417582417584,5.49384003036957
1.978021978021978,5.49691192777126
1.9978021978021978,5.494616078843309
2.0175824175824175,5.486954513157887
2.0373626373626372,5.473934693110174
2.0571428571428574,5.455569509179598
2.076923076923077,5.431877271514479
2.096703296703297,5.40288169793441
2.1164835164835165,5.368611898487583
2.1362637362637362,5.329102356748104
2.1560439560439564,5.284392908091392
2.175824175824176,5.234528715247947
2.195604395604396,5.17956024150769
2.215384615384615,5.119543222033155
2.2351648351648348,5.05453863384348
2.254945054945055,4.984612665157501
2.2747252747252746,4.909836684939656
2.2945054945054943,4.830287213686632
2.314285714285714,4.7460458967348895
2.3340659340659338,4.657199481677789
2.353846153846154,4.563839801872735
2.3736263736263736,4.466063768525072
2.3934065934065933,4.3639733744909
2.413186813186813,4.2576757138002845
2.4329670329670328,4.147283022036727
2.452747252747253,4.032912744221473
2.4725274725274726,3.9146876388872793
2.4923076923076923,3.7927359297955965
2.512087912087912,3.6671915205579553
2.5318681318681318,3.538194292716479
2.5516483516483515,3.40589051529192
2.5714285714285716,3.270433404438438
2.5912087912087913,3.131983887223988
2.610989010989011,2.990711646141753
2.6307692307692307,2.846796554675435
2.6505494505494505,2.7004306654694097
2.6703296703296706,2.551820991981724
2.6901098901098903,2.4011934498992265
2.70989010989011,2.248798527303712
2.7296703296703297,2.0949195882651677
2.7494505494505495,1.9398852850829698
2.769230769230769,1.784088551413806
2.7890109890109893,1.6280164422941443
2.808791208791209,1.4722984107988508
2.8285714285714287,1.3177869408115686
2.8483516483516484,1.1656967503849878
2.8681318681318677,1.0178526227123124
2.887912087912088,0.8771393376335073
2.9076923076923076,0.7483060971004405
2.9274725274725273,0.6392410629759336
2.947252747252747,0.5621258514352458
2.9670329670329667,0.5314231634291087
2.986813186813187,0.5550237297610605
3.0065934065934066,0.6267546254039068
3.0263736263736263,0.7323941950121609
3.046153846153846,0.8592088715785544
3.0659340659340657,0.9987774871835635
3.085714285714286,1.1460120587884395
3.1054945054945056,1.2978333334983847
3.1252747252747253,1.4523056659888425
3.145054945054945,1.6081494699821162
3.1648351648351647,1.764472869559162
3.184615384615385,1.9206215085720304
3.2043956043956046,2.0760919346173323
3.2241758241758243,2.2304799692511863
3.243956043956044,2.3834489280686744
3.2637362637362637,2.5347094695130115
3.2835164835164834,2.684006470614239
3.3032967032967036,2.8311102736051303
3.3230769230769233,2.975810724565118
3.342857142857143,3.1179130393036303
3.3626373626373627,3.257234891674297
3.3824175824175824,3.3936043361537576
3.4021978021978025,3.526858310118859
3.4219780219780223,3.656841545525289
3.441758241758242,3.78340577396355
3.4615384615384617,3.906409144702038
3.481318681318681,4.025715799142329
3.501098901098901,4.141195561293675
3.520879120879121,4.2527237150371
3.5406593406593405,4.360180846762033
3.5604395604395602,4.463452737497695
3.58021978021978,4.562430292638903
3.5999999999999996,4.65700950025407
3.61978021978022,4.747091411084518
3.6395604395604395,4.832582134917193
3.659340659340659,4.9133928491919745
3.679120879120879,4.989439816595673
3.6989010989010986,5.060644409074902
3.718681318681319,5.126933136223029
3.7384615384615385,5.188237676402762
3.758241758241758,5.24449490928315
3.7780219780219784,5.295646948720921
3.7978021978021976,5.341641175115258
3.8175824175824173,5.382430266525486
3.8373626373626375,5.417972227970841
3.8571428571428568,5.448230418437887
3.876923076923077,5.473173575209035
3.896703296703296,5.4927758351997165
3.916483516483517,5.507016753054255
3.936263736263736,5.5158813158053395
3.956043956043956,5.519359953949893
3.9758241758241755,5.517448548837385
3.9956043956043956,5.510148436307496
4.015384615384615,5.497466406551628
4.035164835164835,5.479414700211187
4.054945054945055,5.456011000763212
4.0747252747252745,5.427278423283782
4.094505494505494,5.393245499722403
4.114285714285715,5.353946160867527
4.134065934065934,5.309419715235968
4.153846153846154,5.259710825180415
4.173626373626373,5.204869480579763
4.193406593406594,5.1449509705624505
4.213186813186813,5.080015853814266
4.232967032967033,5.010129928146925
4.252747252747253,4.935364200156431
4.2725274725274724,4.855794855990732
4.292307692307692,4.77150323448483
4.312087912087913,4.682575804223568
4.331868131868132,4.58910414647784
4.351648351648352,4.491184946455833
4.371428571428571,4.388919995954556
4.391208791208792,4.282416211339083
4.410989010989011,4.171785671889141
4.43076923076923,4.057145685035029
4.450549450549451,3.9386188869990937
4.4703296703296695,3.816333390071315
4.49010989010989,3.690422991473503
4.50989010989011,3.5610274639475157
4.52967032967033,3.4282929554932062
4.549450549450549,3.292372536076353
4.569230769230769,3.1534269441578333
4.589010989010989,3.011625607960816
4.608791208791209,2.867148049317547
4.628571428571428,2.720185827937786
4.648351648351649,2.5709452613331294
4.6681318681318675,2.419651277916992
4.687912087912088,2.2665529583890742
4.707692307692308,2.1119316475958447
4.7274725274725276,1.9561130748129338
4.747252747252747,1.7994858914325702
4.767032967032967,1.6425307822934898
4.786813186813187,1.4858675463975606
4.806593406593407,1.3303337211302781
4.826373626373626,1.1771203624015276
4.846153846153847,1.0280140915010816
4.8659340659340655,0.8858379722695444
4.885714285714286,0.7552459067014313
4.905494505494506,0.644006352858266
4.9252747252747255,0.5642607987366338
4.945054945054945,0.5307909625167188
4.964835164835165,0.5522317648975201
4.984615384615385,0.6228855244339214
5.004395604395604,0.7283654673176252
5.024175824175824,0.8555775067714568
5.043956043956045,0.9958448974172359
5.0637362637362635,1.1439406197365598
5.083516483516483,1.2967142272855106
5.103296703296703,1.4521930936178928
5.123076923076923,1.6090775773950783
5.142857142857143,1.7664643057118332
5.162637362637362,1.923691902727355
5.182417582417583,2.0802523239231787
5.2021978021978015,2.2357381593904795
5.221978021978022,2.3898102784331976
5.241758241758242,2.5421773575617315
5.2615384615384615,2.6925825720373338
5.281318681318681,2.8407947340036808
5.301098901098901,2.9866022658650904
5.320879120879121,3.1298090262479845
5.340659340659341,3.270231373619047
5.36043956043956,3.4076960735168482
5.380219780219781,3.5420387913349627
5.3999999999999995,3.673102998235381
5.41978021978022,3.8007391728518187
5.43956043956044,3.924804217562317
5.4593406593406595,4.045161032223928
5.479120879120879,4.161678204630004
5.498901098901099,4.274229788232062
5.518681318681319,4.382695145556271
5.538461538461538,4.486958841333754
5.558241758241758,4.586910573373494
5.578021978021979,4.682445132116937
5.5978021978021975,4.77346238194903
5.617582417582418,4.85986725892372
5.637362637362637,4.941569780747539
5.6571428571428575,5.018485065760773
5.676923076923077,5.09053335833892
5.696703296703297,5.157640058662596
5.716483516483517,5.2197357552117145
5.736263736263735,5.276756258658415
5.756043956043956,5.32864263608494
5.775824175824176,5.3753412446524
5.795604395604395,5.416803764007062
5.815384615384615,5.452987226840939
5.835164835164835,5.483854047129555
5.854945054945055,5.509372045658242
5.874725274725275,5.529514472522001
5.894505494505494,5.544260026346662
5.914285714285715,5.553592870033798
5.934065934065933,5.557502642879395
5.953846153846154,5.555984468959945
5.973626373626374,5.5490389617194245
5.993406593406593,5.53667222472882
6.013186813186813,5.518895848627313
6.032967032967033,5.495726904291778
6.052747252747253,5.467187932320626
6.072527472527473,5.433306928960093
6.092307692307692,5.394117328647184
6.112087912087913,5.349657983395586
6.131868131868131,5.299973139310536
6.151648351648352,5.245112410588543
6.171428571428572,5.1851307514406315
6.191208791208791,5.1200884264778646
6.210989010989011,5.050050980219166
6.230769230769231,4.975089206531205
6.2505494505494505,4.8952791189959175
6.270329670329671,4.810701923434419
6.29010989010989,4.7214439941106745
6.309890109890111,4.627596855514516
6.329670329670329,4.529257172107198
6.349450549450549,4.426526749040017
6.36923076923077,4.3195125476775305
6.3890109890109885,4.208326720840472
6.408791208791209,4.093086674127239
6.428571428571428,3.973915161615213
6.4483516483516485,3.8509404268829655
6.468131868131868,3.724296403921342
6.487912087912088,3.594122997541837
6.507692307692308,3.46056646998182
6.527472527472527,3.3237799705142685
6.547252747252747,3.183924259481735
6.567032967032967,3.041168699619299
6.5868131868131865,2.8956926195221264
6.606593406593407,2.7476872026836276
6.626373626373626,2.5973581306939315
6.6461538461538465,2.4449293279354958
6.665934065934065,2.290648346972051
6.685714285714286,2.1347942514439127
6.705494505494506,1.977689393089957
6.725274725274725,1.8197174232018167
6.745054945054945,1.66135157855556
6.764835164835165,1.5032004387712588
6.7846153846153845,1.346084390914726
6.804395604395605,1.191167865396758
6.824175824175824,1.0401957208975035
6.8439560439560445,0.8959261591322549
6.863736263736263,0.7629194205787522
6.883516483516484,0.6488443349912906
6.903296703296704,0.5658734827497522
6.923076923076923,0.5292642975179109
6.942857142857143,0.5485589120073284
6.962637362637362,0.6185109098228813
6.9824175824175825,0.7243976516534709
7.002197802197802,0.852632087229579
7.021978021978022,0.9942250878025162
7.041758241758242,1.1437934672246208
7.061538461538461,1.298112772028693
7.081318681318681,1.4551747139925217
7.101098901098901,1.6136616681831308
7.1208791208791204,1.772660609944773
7.140659340659341,1.9315045586372401
7.16043956043956,2.089681885944948
7.1802197802197805,2.246782628358516
7.199999999999999,2.4024656319768813
7.21978021978022,2.5564378218852535
7.23956043956044,2.708440757442807
7.259340659340659,2.8582416980175154
7.279120879120879,3.0056275380997794
7.298901098901099,3.15040061359068
7.318681318681318,3.2923757560109506
7.338461538461539,3.43137819603119
7.358241758241758,3.56724205572506
7.3780219780219785,3.6998092556941913
7.397802197802197,3.828928718911062
7.417582417582418,3.9544557895947117
7.437362637362638,4.076251809748165
7.457142857142857,4.194183812469404
7.476923076923077,4.308124302496509
7.496703296703297,4.417951102374758
7.516483516483516,4.523547248244797
7.536263736263736,4.624800923273471
7.556043956043957,4.721605419666174
7.575824175824176,4.813859122338623
7.595604395604395,4.90146550891121
7.615384615384615,4.984333161874647
7.635164835164835,5.062375789671753
7.654945054945055,5.1355122541227765
7.674725274725275,5.203666602146419
7.694505494505494,5.266768100135813
7.7142857142857135,5.324751269666544
7.734065934065935,5.377555923464993
7.753846153846154,5.425127200764291
7.7736263736263735,5.467415601335576
7.793406593406592,5.504377017611311
7.813186813186814,5.535972764423922
7.832967032967034,5.562169605970154
7.852747252747252,5.5829397796854465
7.872527472527472,5.598261016774706
7.892307692307693,5.608116559200072
7.912087912087912,5.612495172973756
7.931868131868132,5.611391157646844
7.951648351648351,5.604804351924733
7.971428571428572,5.592740135377249
7.991208791208791,5.575209426248554
8.010989010989011,5.552228675408788
8.03076923076923,5.523819856528059
8.05054945054945,5.4900104525944755
8.07032967032967,5.450833438943055
8.09010989010989,5.40632726301303
8.10989010989011,5.356535821109266
8.129670329670331,5.301508432511348
8.149450549450549,5.241299811354328
8.169230769230769,5.175970036802125
8.189010989010988,5.105584522152118
8.20879120879121,5.030213983654446
8.22857142857143,4.949934410009335
8.248351648351647,4.864827033731287
8.268131868131867,4.7749783058537805
8.287912087912087,4.680479875811764
8.307692307692308,4.581428578806271
8.327472527472528,4.477926433561479
8.347252747252746,4.370080654177068
8.367032967032966,4.2580036808247
8.386813186813187,4.1418132354306865
8.406593406593407,4.021632410360789
8.426373626373627,3.8975898006697154
8.446153846153845,3.769819693975252
8.465934065934066,3.638462336877598
8.485714285714286,3.5036643036806767
8.505494505494505,3.365579002915696
8.525274725274725,3.2243673712510845
8.545054945054945,3.0801988250402874
8.564835164835165,2.9332525705889645
8.584615384615384,2.7837194210318668
8.604395604395604,2.631804340154676
8.624175824175826,2.4777300479725066
8.643956043956043,2.3217422079050034
8.663736263736263,2.1641170218768155
8.683516483516483,2.0051725810395284
8.703296703296704,1.8452862325034458
8.723076923076924,1.6849218697599615
8.742857142857142,1.5246741235101613
8.762637362637362,1.3653423288495012
8.782417582417583,1.2080587901097735
8.802197802197803,1.054519129533159
8.821978021978023,0.9074075916389338
8.84175824175824,0.7711836760339155
8.86153846153846,0.6534267907898708
8.881318681318682,0.566413995455102
8.901098901098901,0.5260855183717977
8.920879120879121,0.5431507068363446
8.940659340659339,0.612815037625145
8.96043956043956,0.719782352503025
8.98021978021978,0.849784238878134
9.0,0.9934420102057274
9.01978021978022,1.1451956802525587
9.03956043956044,1.3017453157987606
9.05934065934066,1.4610503912727428
9.079120879120879,1.6217791981417355
9.098901098901099,1.7830123036660626
9.11868131868132,1.9440795664603971
9.138461538461538,2.1044675327587403
9.158241758241758,2.2637649101697543
9.178021978021977,2.4216293447480304
9.197802197802199,2.5777665341943106
9.217582417582419,2.7319167232598347
9.237362637362637,2.8838457533282553
9.257142857142856,3.0333390006788457
9.276923076923078,3.1801971937740645
9.296703296703297,3.324233480979022
9.316483516483517,3.4652713476958303
9.336263736263735,3.6031431213013554
9.356043956043957,3.737688889690998
9.375824175824176,3.8687557152381635
9.395604395604396,3.9961970625801273
9.415384615384616,4.11987238300226
9.435164835164835,4.239646814682631
9.454945054945055,4.355390969397489
9.474725274725275,4.466980784197747
9.494505494505495,4.574297422159948
9.514285714285714,4.677227210320162
9.534065934065934,4.775661605801352
9.553846153846154,4.86949718327107
9.573626373626373,4.958635638440142
9.593406593406593,5.042983803490271
9.613186813186815,5.1224536712068165
9.632967032967032,5.196962425269471
9.652747252747252,5.266432474673799
9.672527472527472,5.330791490659018
9.692307692307693,5.389972444832565
9.712087912087913,5.443913647429889
9.731868131868131,5.492558784845018
9.75164835164835,5.5358569557257375
9.771428571428572,5.573762705054896
9.791208791208792,5.606236055744206
9.810989010989012,5.633242537353344
9.83076923076923,5.65475321161941
9.850549450549451,5.670744694543632
9.87032967032967,5.681199174835108
9.89010989010989,5.68610442855813
9.90989010989011,5.685453829872031
9.92967032967033,5.679246357790833
9.94945054945055,5.667486598927162
9.96923076923077,5.650184746220631
9.989010989010989,5.627356593686885
10.008791208791209,5.599023527260959
10.028571428571428,5.565212511848465
10.048351648351648,5.52595607474148
10.068131868131868,5.481292285604985
10.08791208791209,5.431264733295556
10.107692307692307,5.3759224998389445
10.127472527472527,5.3153201319704815
10.147252747252747,5.2495176107345705
10.167032967032966,5.178580319752232
10.186813186813188,5.102579012903662
10.206593406593406,5.021589782344367
10.226373626373626,4.9356940279882275
10.246153846153845,4.844978429862286
10.265934065934067,4.749534925083736
10.285714285714286,4.649460691654629
10.305494505494504,4.5448581418456255
10.325274725274724,4.43583492869441
10.345054945054946,4.322503970138288
10.364835164835165,4.204983496625397
10.384615384615385,4.083397129829727
10.404395604395603,3.957874002515187
10.424175824175824,3.828548932917664
10.443956043956044,3.6955626716320378
10.463736263736264,3.5590622454867327
10.483516483516484,3.4192014321464415
10.503296703296703,3.276141412566171
10.523076923076923,3.1300516680612445
10.542857142857143,2.9811112180635218
10.562637362637362,2.8295103391423617
10.582417582417584,2.675452974785664
10.602197802197802,2.5191601544071167
10.621978021978022,2.3608749163323917
10.641758241758241,2.200869521885128
10.661538461538463,2.0394562458843724
10.681318681318682,1.8770039030489871
10.7010989010989,1.7139638528608976
10.72087912087912,1.550912188978801
10.740659340659342,1.3886205563623837
10.760439560439561,1.2281794894771565
