Frequency (Hz),Amplitude
0.0,0.8472056340737972
0.019801980198019802,0.8471364872443568
0.039603960396039604,0.8469293809536769
0.0594059405940594,0.8465853167805963
0.07920792079207921,0.846105960637686
0.09900990099009901,0.8454936376754228
0.1188118811881188,0.8447513251125867
0.13861386138613863,0.8438826429590408
0.15841584158415842,0.8428918425871399
0.1782178217821782,0.8417837931014446
0.19801980198019803,0.8405639654485819
0.21782178217821782,0.8392384142045474
0.2376237623762376,0.8378137569723708
0.25742574257425743,0.8362971513214957
0.27722772277227725,0.8346962692004164
0.297029702970297,0.8330192687568485
0.31683168316831684,0.8312747635053418
0.33663366336633666,0.8294717887908749
0.3564356435643564,0.8276197655091687
0.37623762376237624,0.8257284610601738
0.39603960396039606,0.8238079475309945
0.4158415841584158,0.8218685571281273
0.43564356435643564,0.8199208349074038
0.45544554455445546,0.8179754888817411
0.4752475247524752,0.8160433376233509
0.495049504950495,0.8141352555174205
0.5148514851485149,0.8122621158674437
0.5346534653465347,0.8104347320991109
0.5544554455445545,0.8086637973578089
0.5742574257425742,0.8069598228444159
0.594059405940594,0.8053330752833484
0.613861386138614,0.8037935139647848
0.6336633663366337,0.802350727848042
0.6534653465346534,0.8010138732537152
0.6732673267326733,0.7997916127066214
0.6930693069306931,0.7986920555187815
0.7128712871287128,0.7977227007190135
0.7326732673267327,0.796890382943256
0.7524752475247525,0.796201221894945
0.7722772277227723,0.7956605759685026
0.7920792079207921,0.7952730005983097
0.8118811881188118,0.7950422118540204
0.8316831683168316,0.7949710557470192
0.8514851485148516,0.7950614836474454
0.8712871287128713,0.7953145341335439
0.891089108910891,0.7957303215113108
0.9108910891089109,0.7963080311510018
0.9306930693069307,0.7970459216924288
0.9504950495049505,0.7979413340757735
0.9702970297029703,0.7989907072597886
0.99009900990099,0.8001896003997907
1.00990099009901,0.801532721173695
1.0297029702970297,0.8030139598692346
1.0495049504950495,0.8046264287808083
1.0693069306930694,0.8063625064101899
1.0891089108910892,0.8082138859253974
1.108910891089109,0.8101716273023232
1.1287128712871286,0.8122262125590235
1.1485148514851484,0.8143676034886042
1.1683168316831685,0.8165853013040443
1.188118811881188,0.8188684076271489
1.2079207920792079,0.8212056862794831
1.227722772277228,0.8235856253679492
1.2475247524752475,0.8259964991973134
1.2673267326732673,0.8284264295855607
1.2871287128712872,0.8308634462053195
1.3069306930693068,0.8332955456219902
1.3267326732673268,0.8357107487470502
1.3465346534653466,0.8380971564727221
1.3663366336633662,0.8404430032978084
1.3861386138613863,0.8427367087978138
1.405940594059406,0.8449669268305497
1.4257425742574257,0.8471225924039195
1.4455445544554455,0.8491929661639875
1.4653465346534653,0.8511676764884111
1.4851485148514851,0.8530367591939872
1.504950495049505,0.854790694886165
1.5247524752475248,0.856420443994075
1.5445544554455446,0.8579174795468041
1.5643564356435644,0.8592738177556228
1.5841584158415842,0.8604820464721983
1.6039603960396038,0.8615353515965258
1.6237623762376237,0.862427541508227
1.6435643564356437,0.8631530695939711
1.6633663366336633,0.8637070549391932
1.683168316831683,0.8640853012479847
1.7029702970297032,0.8642843140468742
1.7227722772277227,0.8643013162206696
1.7425742574257426,0.8641342619183333
1.7623762376237624,0.8637818488561814
1.782178217821782,0.8632435290335982
1.801980198019802,0.8625195178637358
1.8217821782178218,0.8616108017075139
1.8415841584158414,0.860519143784841
1.8613861386138615,0.8592470884211538
1.881188118811881,0.8577979635713874
1.900990099009901,0.8561758815463784
1.920792079207921,0.8543857378492732
1.9405940594059405,0.8524332080116932
1.9603960396039604,0.8503247423009331
1.98019801980198,0.8480675581514
2.0,0.8456696301552792
2.01980198019802,0.8431396774297013
2.0396039603960396,0.8404871481610854
2.0594059405940595,0.837722201112018
2.0792079207920793,0.8348556838625247
2.099009900990099,0.8318991075472092
2.118811881188119,0.8288646178423964
2.1386138613861387,0.8257649619545893
2.1584158415841586,0.8226134513642661
2.1782178217821784,0.8194239200876672
2.1980198019801978,0.8162106782359959
2.217821782178218,0.8129884606763619
2.237623762376238,0.8097723706335634
2.257425742574257,0.8065778181173987
2.2772277227722775,0.8034204531174245
2.297029702970297,0.8003160935759489
2.3168316831683167,0.7972806482319886
2.336633663366337,0.7943300345226044
2.3564356435643563,0.7914800918331494
2.376237623762376,0.7887464905034549
2.3960396039603964,0.786144637120371
2.4158415841584158,0.7836895767555115
2.4356435643564356,0.781395892937598
2.455445544554456,0.7792776062766459
2.4752475247524752,0.7773480727775578
2.495049504950495,0.7756198829889961
2.514851485148515,0.7741047632230521
2.5346534653465347,0.7728134801478602
2.5544554455445545,0.7717557500934003
2.5742574257425743,0.7709401544161886
2.594059405940594,0.7703740622381194
2.6138613861386135,0.7700635618066941
2.633663366336634,0.770013401617768
2.6534653465346536,0.770226942300355
2.673267326732673,0.7707061200872822
2.6930693069306932,0.7714514224939509
2.712871287128713,0.7724618766031061
2.7326732673267324,0.773735050117068
2.7524752475247527,0.7752670650978263
2.7722772277227725,0.7770526240776429
2.792079207920792,0.7790850479988112
2.811881188118812,0.7813563252368475
2.8316831683168315,0.7838571707844363
2.8514851485148514,0.7865770945284648
2.8712871287128716,0.7895044774430691
2.891089108910891,0.7926266544487214
2.910891089108911,0.795930002652327
2.9306930693069306,0.7994000336821646
2.9504950495049505,0.8030214888634123
2.9702970297029703,0.8067784360388454
2.99009900990099,0.81065436692208
3.00990099009901,0.8146322939706819
3.0297029702970297,0.8186948458795089
3.0495049504950495,0.8228243609148005
3.0693069306930694,0.8270029774329001
3.089108910891089,0.8312127210500665
3.108910891089109,0.8354355880468491
3.128712871287129,0.8396536247016381
3.148514851485148,0.8438490023489315
3.1683168316831685,0.8480040880487452
3.1881188118811883,0.8521015108334419
3.2079207920792077,0.8561242235661399
3.227722772277228,0.8600555605015587
3.2475247524752473,0.8638792906870597
3.267326732673267,0.8675796673767936
3.2871287128712874,0.8711414736596407
3.3069306930693068,0.8745500645203101
3.3267326732673266,0.8777914055649706
3.346534653465347,0.8808521086485238
3.366336633663366,0.8837194646416568
3.386138613861386,0.8863814735722582
3.4059405940594063,0.8888268723693432
3.4257425742574257,0.8910451604279395
3.4455445544554455,0.8930266232025029
3.4653465346534653,0.8947623540231615
3.485148514851485,0.8962442743154934
3.504950495049505,0.8974651523896872
3.5247524752475248,0.8984186209499095
3.5445544554455446,0.8990991934590489
3.564356435643564,0.8995022794784525
3.5841584158415842,0.8996241990863592
3.603960396039604,0.8994621964622759
3.6237623762376234,0.8990144527085858
3.6435643564356437,0.898280097963668
3.6633663366336635,0.8972592228433708
3.683168316831683,0.8959528892296708
3.702970297029703,0.8943631404065221
3.722772277227723,0.8924930105222549
3.7425742574257423,0.8903465333367582
3.762376237623762,0.8879287501877403
3.7821782178217824,0.8852457170852732
3.801980198019802,0.8823045108160963
3.8217821782178216,0.8791132339085584
3.841584158415842,0.8756810182761918
3.8613861386138613,0.8720180273216087
3.881188118811881,0.8681354562428812
3.9009900990099013,0.8640455302421967
3.9207920792079207,0.8597615002902901
3.9405940594059405,0.8552976360519399
3.96039603960396,0.8506692155259944
3.98019801980198,0.8458925109007688
4.0,0.8409847700715336
4.01980198019802,0.8359641932137901
4.03960396039604,0.8308499037552712
4.0594059405940595,0.825661913043876
4.079207920792079,0.8204210779703174
4.099009900990099,0.8151490507779267
4.118811881188119,0.8098682202797451
4.138613861386139,0.8046016437117557
4.158415841584159,0.7993729684837426
4.178217821782178,0.7942063431527624
4.198019801980198,0.7891263170423743
4.217821782178218,0.7841577280704142
4.237623762376238,0.7793255785312379
4.257425742574258,0.7746548988101066
4.2772277227722775,0.7701705992873276
4.297029702970297,0.7658973110171324
4.316831683168317,0.7618592161363513
4.336633663366336,0.7580798693623662
4.356435643564357,0.7545820123666285
4.376237623762377,0.7513873832424922
4.3960396039603955,0.7485165237045576
4.415841584158416,0.7459885870377335
4.435643564356436,0.7438211501327485
4.455445544554455,0.7420300331760165
4.475247524752476,0.7406291306818616
4.4950495049504955,0.739630257545224
4.514851485148514,0.7390430136394035
4.534653465346535,0.7388746701822423
4.554455445544555,0.7391300806482761
4.574257425742574,0.7398116184302882
4.594059405940594,0.740919142772601
4.613861386138614,0.7424499937455017
4.633663366336633,0.744399016239513
4.653465346534653,0.7467586121737521
4.673267326732674,0.7495188193715323
4.693069306930693,0.7526674148964817
4.712871287128713,0.7561900400932337
4.732673267326733,0.7600703441592127
4.752475247524752,0.7642901427995482
4.772277227722772,0.7688295883888047
4.792079207920793,0.7736673480721524
4.811881188118812,0.7787807863720104
4.8316831683168315,0.7841461491024769
4.851485148514852,0.7897387457110531
4.871287128712871,0.7955331275392988
4.891089108910891,0.8015032598986801
4.910891089108912,0.8076226862716679
4.930693069306931,0.8138646833538692
4.9504950495049505,0.8202024060352777
4.97029702970297,0.8266090217660819
4.99009900990099,0.833057834059255
5.00990099009901,0.8395223951430613
5.02970297029703,0.8459766079921807
5.0495049504950495,0.8523948181363294
5.069306930693069,0.8587518957748786
5.089108910891089,0.8650233088172737
5.108910891089109,0.871185187528629
5.128712871287129,0.8772143814910764
5.148514851485149,0.8830885096008769
5.1683168316831685,0.8887860038118015
5.188118811881188,0.8942861473129092
5.207920792079208,0.8995691077959439
5.227722772277227,0.9046159664277293
5.247524752475248,0.9094087430994013
5.267326732673268,0.9139304184778059
5.2871287128712865,0.9181649533388007
5.306930693069307,0.9220973056158447
5.326732673267327,0.9257134455542312
5.346534653465346,0.9290003693201587
5.366336633663367,0.9319461113750129
5.3861386138613865,0.9345397558906113
5.405940594059405,0.9367714474490347
5.425742574257426,0.9386324012413372
5.445544554455446,0.940114912954156
5.465346534653465,0.941212368509225
5.485148514851486,0.9419192538007372
5.504950495049505,0.9422311645560759
5.524752475247524,0.9421448164292315
5.544554455445545,0.9416580554203136
5.564356435643565,0.9407698686999089
5.584158415841584,0.9394803959037814
5.603960396039604,0.9377909409482845
5.623762376237624,0.93570398440417
5.643564356435643,0.9332231964493407
5.663366336633663,0.9303534504059165
5.683168316831684,0.9271008368467358
5.702970297029703,0.9234726782349442
5.7227722772277225,0.9194775440344692
5.742574257425743,0.91512526619889
5.762376237623762,0.910426954910295
5.782178217821782,0.9053950143973807
5.801980198019803,0.9000431586119668
5.821782178217822,0.8943864264844482
5.841584158415841,0.8884411964094961
5.861386138613861,0.8822251995339223
5.881188118811881,0.8757575313258553
5.900990099009901,0.8690586607994615
5.920792079207921,0.8621504366501589
5.9405940594059405,0.855056089421948
5.96039603960396,0.8478002286820625
5.98019801980198,0.8404088340187789
6.0,0.8329092385096187
6.01980198019802,0.8253301031325067
6.03960396039604,0.8177013804177375
6.0594059405940595,0.8100542654723396
6.079207920792079,0.8024211323607512
6.099009900990099,0.7948354537109311
6.118811881188119,0.7873317013490367
6.138613861386139,0.7799452257689912
6.158415841584159,0.7727121123373404
6.178217821782178,0.7656690123422177
6.198019801980198,0.7588529473420629
6.217821782178218,0.7523010857768562
6.237623762376237,0.7460504914872832
6.257425742574258,0.7401378446555816
6.2772277227722775,0.7345991367296778
6.297029702970296,0.7294693421011353
6.316831683168317,0.7247820706361189
6.336633663366337,0.7205692065483671
6.356435643564356,0.7168605404705394
6.376237623762377,0.7136834028281537
6.396039603960396,0.711062307637774
6.415841584158415,0.709018616526366
6.435643564356436,0.7075702330028589
6.455445544554456,0.7067313367294934
6.475247524752475,0.7065121667004511
6.495049504950495,0.7069188608492093
6.514851485148515,0.7079533577313628
6.534653465346534,0.7096133636775341
6.554455445544554,0.711892386329289
6.574257425742575,0.7147798329339243
6.594059405940594,0.7182611693609819
6.6138613861386135,0.7223181336796445
6.633663366336634,0.7269289964349693
6.653465346534653,0.7320688585713154
6.673267326732673,0.7377099773110454
6.693069306930694,0.74382211019551
6.712871287128713,0.7503728678769892
6.732673267326732,0.7573280670324463
6.752475247524753,0.7646520758445864
6.772277227722772,0.772308145756375
6.792079207920792,0.7802587245460358
6.811881188118813,0.7884657471009121
6.8316831683168315,0.7968909015190659
6.851485148514851,0.8054958692862092
6.871287128712871,0.8142425392311734
6.891089108910891,0.8230931957437047
6.910891089108911,0.8320106823417727
6.930693069306931,0.8409585421169196
6.9504950495049505,0.8499011368791057
6.97029702970297,0.8588037469923521
6.99009900990099,0.8676326539591229
7.00990099009901,0.8763552077988388
7.02970297029703,0.8849398811937468
7.0495049504950495,0.8933563122609255
7.069306930693069,0.9015753376682792
7.089108910891089,0.9095690176565151
7.108910891089109,0.9173106543672015
7.128712871287128,0.924774804717339
7.148514851485149,0.931937288907131
7.1683168316831685,0.9387751955040885
7.188118811881187,0.9452668839148638
7.207920792079208,0.9513919849374386
7.227722772277228,0.9571313999807641
7.247524752475247,0.9624672994463781
7.267326732673268,0.9673831206864809
7.287128712871287,0.9718635658841249
7.306930693069306,0.9758946001432801
7.326732673267327,0.9794634500278256
7.346534653465347,0.982558602748447
7.366336633663366,0.9851698061638653
7.3861386138613865,0.9872880697367393
7.405940594059406,0.9889056665641464
7.425742574257425,0.9900161365870437
7.445544554455446,0.9906142910715977
7.465346534653466,0.9906962184474453
7.485148514851485,0.9902592915824764
7.504950495049505,0.9893021765709228
7.524752475247524,0.9878248431101582
7.544554455445544,0.9858285765411018
7.564356435643565,0.9833159916275428
7.584158415841584,0.9802910481496886
7.603960396039604,0.976759068386292
7.623762376237624,0.9727267565578186
7.643564356435643,0.9682022202981933
7.663366336633663,0.9631949942144783
7.683168316831684,0.9577160655817618
7.702970297029703,0.9517779022011841
7.7227722772277225,0.9453944824234024
7.742574257425743,0.9385813273037346
7.762376237623762,0.931355534807486
7.782178217821782,0.9237358159219781
7.801980198019803,0.9157425324512531
7.821782178217822,0.9073977361689218
7.841584158415841,0.8987252088772414
7.861386138613862,0.8897505027647663
7.881188118811881,0.8805009802638654
7.900990099009901,0.871005852379213
7.92079207920792,0.8612962141845453
7.9405940594059405,0.8514050758622552
7.96039603960396,0.8413673872873106
7.980198019801979,0.831220053732241
8.0,0.8210019397950375
8.01980198019802,0.8107538581360436
8.03960396039604,0.8005185390650421
8.05940594059406,0.7903405764690177
8.07920792079208,0.7802663450473221
8.099009900990099,0.7703438833694578
8.118811881188119,0.7606227369524218
8.138613861386139,0.7511537554424846
8.158415841584159,0.7419888381717917
8.178217821782178,0.7331806229369134
8.198019801980198,0.7247821139186628
8.217821782178218,0.7168462463152054
8.237623762376238,0.7094253875601079
8.257425742574258,0.702570777957584
8.277227722772277,0.6963319171370859
8.297029702970297,0.6907559067687551
8.316831683168317,0.6858867642466691
8.336633663366337,0.6817647261982849
8.356435643564357,0.6784255642916137
8.376237623762377,0.6758999384222834
8.396039603960396,0.6742128135278623
8.415841584158416,0.6733829656467148
8.435643564356436,0.6734226002306837
8.455445544554456,0.6743371011763784
8.475247524752476,0.6761249228500666
8.495049504950495,0.6787776300600604
8.514851485148515,0.6822800831604052
8.534653465346535,0.6866107579945514
8.554455445544555,0.6917421839078688
8.574257425742575,0.6976414781240409
8.594059405940595,0.7042709517263108
8.613861386138613,0.71158876139993
8.633663366336634,0.7195495818322898
8.653465346534654,0.7281052759197498
8.673267326732672,0.7372055432647951
8.693069306930694,0.7467985314108719
8.712871287128714,0.75683139842667
8.732673267326732,0.7672508194630945
8.752475247524753,0.7780034335086025
8.772277227722773,0.7890362296033561
8.792079207920791,0.8002968741734172
8.811881188118813,0.8117339829123211
8.831683168316832,0.8232973418251174
8.85148514851485,0.8349380827371824
8.871287128712872,0.8466088188546765
8.891089108910892,0.8582637459385489
8.91089108910891,0.8698587144082085
8.930693069306932,0.8813512772989099
8.950495049504951,0.8927007185196767
8.97029702970297,0.9038680653445496
8.990099009900991,0.9148160885513048
9.00990099009901,0.925509293125642
9.029702970297029,0.9359139019873987
9.04950495049505,0.945997834779055
9.06930693069307,0.9557306833892298
9.089108910891088,0.9650836855636058
9.10891089108911,0.974029697683164
9.12871287128713,0.9825431675587838
9.148514851485148,0.9906001079004764
9.16831683168317,0.998178070961139
9.188118811881187,1.0052561247284264
9.207920792079207,1.011814830935298
9.227722772277229,1.0178362250804882
9.247524752475247,1.0233037985880475
9.267326732673267,1.0282024831884917
9.287128712871288,1.0325186375710453
9.306930693069306,1.0362400363326243
9.326732673267326,1.0393558612356513
9.346534653465348,1.0418566947789023
9.366336633663366,1.04373451608514
9.386138613861386,1.044982699112151
9.405940594059407,1.045596013202115
9.425742574257425,1.0455706259949515
9.445544554455445,1.0449041087451416
9.465346534653467,1.0435954440978417
9.485148514851485,1.041645036397632
9.504950495049505,1.0390547246237074
9.524752475247526,1.035827798065294
9.544554455445544,1.0319690148731486
9.564356435643564,1.027484623645402
9.584158415841586,1.0223823882275944
9.603960396039604,1.016671615928787
9.623762376237623,1.0103631893752696
9.643564356435645,1.003469602241426
9.663366336633663,0.9960049991104052
9.683168316831683,0.9879852197264957
9.702970297029704,0.979427847900147
9.722772277227723,0.9703522653172444
9.742574257425742,0.9607797104783024
9.762376237623764,0.9507333429495826
9.782178217821782,0.9402383130379885
9.801980198019802,0.9293218368995778
9.821782178217823,0.9180132769474837
9.841584158415841,0.9063442272278617
9.861386138613861,0.8943486031703327
9.881188118811881,0.882062734774774
9.900990099009901,0.8695254618540149
9.92079207920792,0.8567782293912216
9.94059405940594,0.8438651803716796
9.96039603960396,0.830833242592256
9.98019801980198,0.8177322049201734
10.0,0.8046147772571044
10.01980198019802,0.7915366270655665
10.03960396039604,0.7785563837546925
10.05940594059406,0.7657356005492691
10.07920792079208,0.7531386617701067
10.099009900990099,0.7408326218735736
10.118811881188119,0.7288869613377655
10.138613861386139,0.7173732438123346
10.158415841584159,0.7063646592119438
10.178217821782178,0.6959354390193788
10.198019801980198,0.6861601333844368
10.217821782178218,0.6771127450171573
10.237623762376238,0.6688657225976558
10.257425742574258,0.6614888264239592
10.277227722772277,0.6550478908865385
10.297029702970297,0.6496035212255447
10.316831683168317,0.6452097745497081
10.336633663366337,0.6419128855425648
10.356435643564357,0.6397501037666176
10.376237623762377,0.6387487103044319
10.396039603960396,0.6389252755543291
10.415841584158416,0.6402852071939965
10.435643564356436,0.6428226186539064
10.455445544554454,0.6465205259979347
10.475247524752476,0.6513513577165877
10.495049504950495,0.6572777406035561
10.514851485148514,0.6642535082022653
10.534653465346535,0.67222486796753
10.554455445544555,0.6811316598505075
10.574257425742573,0.6909086419484032
10.594059405940595,0.7014867468078426
10.613861386138614,0.7127942631417563
10.633663366336632,0.7247579102805232
10.653465346534654,0.7373037850522512
