Frequency (Hz),Amplitude
0.0,0.0747290814885242
0.019823788546255508,0.4143735991506742
0.039647577092511016,0.8181762386872902
0.059471365638766524,1.2234128075876916
0.07929515418502203,1.628010066138869
0.09911894273127755,2.0312283027735765
0.11894273127753305,2.4325552412259084
0.13876651982378857,2.8315454204088413
0.15859030837004406,3.227780114713277
0.17841409691629956,3.6208541992516303
0.1982378854625551,4.010371119214697
0.2180616740088106,4.395940808743242
0.2378854625550661,4.777178837808067
0.25770925110132165,5.153706124000805
0.27753303964757714,5.525148924620461
0.29735682819383263,5.8911389759683725
0.31718061674008813,6.251313713101722
0.3370044052863437,6.605316534530805
0.3568281938325991,6.952797091971617
0.37665198237885467,7.293411593494276
0.3964757709251102,7.626823112938327
0.41629955947136565,7.952701901057422
0.4361233480176212,8.270725695391128
0.4559471365638767,8.580580026798495
0.4757709251101322,8.881958521176621
0.49559471365638774,9.174563195267671
0.5154185022026433,9.45810474570842
0.5352422907488987,9.73230283064729
0.5550660792951543,9.996886343371893
0.5748898678414097,10.251593677475187
0.5947136563876653,10.49617298315014
0.6145374449339208,10.73038241424973
0.6343612334801763,10.953990365786108
0.6541850220264318,11.166775701571519
0.6740088105726874,11.368527971728676
0.6938325991189428,11.55904761981879
0.7136563876651982,11.738146179353969
0.7334801762114539,11.905646459477705
0.7533039647577093,12.061382719612103
0.7731277533039648,12.205200832885662
0.7929515418502204,12.336958438168454
0.8127753303964759,12.456525080556286
0.8325991189427313,12.563782340157095
0.8524229074889869,12.658623949047074
0.8722466960352424,12.740955896275834
0.8920704845814978,12.81069652081336
0.9118942731277534,12.86777659234337
0.931718061674009,12.912139379821122
0.9515418502202644,12.943740707725727
0.9713656387665199,12.962548999949476
0.9911894273127755,12.968545311280092
1.0110132158590308,12.961723346443321
1.0308370044052866,12.94208946668661
1.0506607929515421,12.909662683897128
1.0704845814977975,12.864474642259538
1.090308370044053,12.806569587471957
1.1101321585903086,12.73600432355127
1.1299559471365639,12.652848157270844
1.1497797356828194,12.557182830287198
1.1696035242290752,12.449102439024292
1.1894273127753305,12.32871334239666
1.209251101321586,12.19613405746583
1.2290748898678416,12.051495143136668
1.248898678414097,11.89493907201335
1.2687224669603525,11.726620090547716
1.288546255506608,11.54670406762558
1.3083700440528636,11.355368331750542
1.3281938325991192,11.15280149699797
1.3480176211453747,10.939203277926774
1.36784140969163,10.714784293651329
1.3876651982378856,10.479765861292263
1.4074889867841411,10.234379779042323
1.4273127753303965,9.97886809910353
1.4471365638766522,9.71348289077408
1.4669603524229078,9.438485993990446
1.4867841409691631,9.154148763662564
1.5066079295154187,8.86075180518099
1.5264317180616742,8.558584701527513
1.5462555066079295,8.247945732491853
1.5660792951541853,7.929141586593517
1.5859030837004409,7.602487066444567
1.6057268722466962,7.268304788486277
1.6255506607929517,6.926924878324201
1.6453744493392073,6.578684663328889
1.6651982378854626,6.223928364857823
1.6850220264317182,5.863006793553443
1.7048458149779737,5.496277052976944
1.7246696035242293,5.124102259897284
1.7444933920704848,4.7468512949188915
1.7643171806167404,4.364898606916845
1.7841409691629957,3.9786241134100813
1.8039647577092512,3.588413276504996
1.8237885462555068,3.194657514183445
1.8436123348017623,2.797755291155912
1.863436123348018,2.398114698548589
1.8832599118942732,1.9961596479399015
1.9030837004405288,1.592346144418471
1.9229074889867843,1.187212810520732
1.9427312775330399,0.7815903053385109
1.9625550660792954,0.3781618060071064
1.982378854625551,0.0880315918279869
2.002202643171806,0.45354781292875024
2.0220264317180616,0.8579922683156249
2.041850220264317,1.2637434229704194
2.061674008810573,1.6688476544802568
2.0814977973568287,2.072566023119113
2.1013215859030843,2.474382582574666
2.1211453744493394,2.8738490373562997
2.140969162995595,3.270544619076545
2.1607929515418505,3.6640626555667493
2.180616740088106,4.054005344207763
2.2004405286343616,4.439981555940712
2.220264317180617,4.821605915032448
2.2400881057268722,5.198498470802424
2.2599118942731278,5.570284665190668
2.2797356828193833,5.936595456716049
2.299559471365639,6.297067530482246
2.319383259911895,6.651343556630712
2.3392070484581504,6.999072476106084
2.3590308370044055,7.33990980130881
2.378854625550661,7.673517924023415
2.3986784140969166,7.999566425773095
2.418502202643172,8.317732387392173
2.4383259911894277,8.62770069561203
2.4581497797356833,8.929164345088456
2.4779735682819384,9.221824734706194
2.497797356828194,9.50539195726741
2.5176211453744495,9.77958508185377
2.537444933920705,10.04413242827988
2.5572687224669606,10.298771833146356
2.577092511013216,10.543250907067971
2.5969162995594717,10.777327282701888
2.6167400881057272,11.000768853240716
2.6365638766519828,11.213354001065609
2.6563876651982383,11.414871816280785
2.676211453744494,11.605122304872673
2.6960352422907494,11.783916586256101
2.715859030837005,11.951077079986975
2.73568281938326,12.10643768143726
2.7555066079295156,12.249843926242649
2.775330396475771,12.381153143347271
2.7951541850220267,12.500234596484104
2.8149779735682823,12.60696961394248
2.834801762114538,12.701251706487602
2.854625550660793,12.782986673309416
2.874449339207049,12.852092695891738
2.8942731277533045,12.908500419704307
2.91409691629956,12.952153023633954
2.9339207048458156,12.983006277083492
2.953744493392071,13.001028584679105
2.9735682819383262,13.00620101854074
2.993392070484582,12.998517338081442
3.0132158590308373,12.97798399731524
3.033039647577093,12.944620139665354
3.0528634361233484,12.898457580277475
3.072687224669604,12.839540775855275
3.092511013215859,12.767926782048598
3.1123348017621146,12.683685198436752
3.1321585903083706,12.586898101163133
3.151982378854626,12.477659963289387
3.1718061674008817,12.35607756295047
3.1916299559471373,12.222269879405513
3.2114537444933924,12.076367977091548
3.231277533039648,11.918514877801277
3.2511013215859035,11.748865421119014
3.270925110132159,11.567586113263161
3.2907488986784146,11.374854964497459
3.31057268722467,11.170861315288494
3.3303964757709252,10.955805651402345
3.350220264317181,10.729899408150235
3.3700440528634363,10.49336476401146
3.389867841409692,10.24643442388235
3.4096916299559474,9.989351392223648
3.4295154185022034,9.722368736406485
3.4493392070484585,9.445749340590565
3.469162995594714,9.159765650510328
3.4889867841409696,8.86469940959861
3.508810572687225,8.560841386948328
3.5286343612334807,8.248491097709097
3.5484581497797363,7.927956516649134
3.5682819383259914,7.599553785803398
3.588105726872247,7.263606917405231
3.6079295154185025,6.920447493710991
3.627753303964758,6.570414365955506
3.6475770925110136,6.213853355656617
3.667400881057269,5.851116963059656
3.6872246696035247,5.482564090102893
3.7070484581497802,5.108559789691404
3.726872246696036,4.729475060820982
3.7466960352422913,4.345686723297028
3.7665198237885464,3.9575774330066484
3.7863436123348024,3.565535953683859
3.8061674008810575,3.169957919356634
3.8259911894273135,2.7712475959235197
3.8458149779735686,2.369821848468063
3.8656387665198246,1.9661195214480671
3.8854625550660797,1.5606261440268392
3.905286343612335,1.1539518968740885
3.925110132158591,0.7471661220146136
3.9449339207048464,0.344504890120229
3.964757709251102,0.12140463410200127
3.9845814977973575,0.4969434505484328
4.004405286343612,0.9025108381122956
4.024229074889869,1.3097075793519422
4.044052863436123,1.7163728577187036
4.06387665198238,2.1216941409056047
4.083700440528634,2.5251245246979717
4.103524229074891,2.9262000148707203
4.123348017621146,3.324490603305821
4.143171806167401,3.7195834807262496
4.162995594713657,4.111076347767771
4.182819383259912,4.498574514000003
4.2026431718061685,4.881689609979653
4.222466960352423,5.260039054872805
4.242290748898679,5.633245904951955
4.262114537444934,6.000938905266305
4.28193832599119,6.362752654355451
4.301762114537445,6.71832783363266
4.321585903083701,7.067311474174878
4.3414096916299565,7.409357244874115
4.361233480176212,7.744125752127609
4.381057268722468,8.071284844827371
4.400881057268723,8.390509920543272
4.420704845814979,8.701484230102585
4.440528634361234,9.003899178593263
4.46035242290749,9.297454621351658
4.4801762114537445,9.581859153847992
4.500000000000001,9.856830394621808
4.5198237885462555,10.122095260585239
4.539647577092512,10.377390234129301
4.559471365638767,10.622461621553542
4.579295154185023,10.85706580240309
4.599118942731278,11.080969469345648
4.618942731277533,11.293949858259019
4.63876651982379,11.495794968231019
4.658590308370044,11.686303771199348
4.678414096916301,11.865286410980943
4.6982378854625555,12.03256439146022
4.718061674008811,12.187970753722853
4.737885462555067,12.331350241938466
4.757709251101322,12.462559457810132
4.777533039647578,12.581467003424198
4.797356828193833,12.687953612346728
4.817180616740089,12.781912268827542
4.837004405286344,12.863248314985631
4.856828193832599,12.93187954586332
4.876651982378855,12.987736292248977
4.896475770925111,13.030761491182146
4.9162995594713665,13.060910744066613
4.936123348017622,13.078152362331096
4.955947136563877,13.082467400589312
4.975770925110133,13.073849677264256
4.995594713656388,13.052305782654702
5.015418502202644,13.01785507443486
5.035242290748899,12.970529660590538
5.055066079295155,12.910374369809128
5.07488986784141,12.837446709352706
5.094713656387666,12.751816810457713
5.114537444933921,12.653567361316968
5.134361233480177,12.54279352771381
5.154185022026432,12.419602861390942
5.174008810572688,12.284115196250736
5.193832599118943,12.136462532497438
5.213656387665199,11.976788908845464
5.2334801762114544,11.805250262933404
5.25330396475771,11.62201428009804
5.2731277533039655,11.427260230678565
5.292951541850221,11.221178796038725
5.312775330396477,11.00397188351251
5.332599118942731,10.775852430499949
5.352422907488988,10.53704419796203
5.372246696035242,10.287781553590788
5.392070484581499,10.028309244961772
5.4118942731277535,9.758882163014844
5.43171806167401,9.479765096256632
5.451541850220265,9.191232476139987
5.47136563876652,8.89356811415623
5.491189427312777,8.5870649312846
5.511013215859031,8.272024680593129
5.530837004405288,7.948757663995322
5.550660792951542,7.6175824444688205
5.570484581497798,7.2788255554851204
5.5903083700440535,6.932821210062495
5.610132158590309,6.579911012869355
5.6299559471365646,6.220443680397779
5.64977973568282,5.854774776787689
5.669603524229076,5.4832664771175725
5.689427312775331,5.10628737720663
5.709251101321586,4.724212381745885
5.729074889867842,4.337422726067771
5.748898678414098,3.9463062320972564
5.768722466960353,3.551257990925437
5.788546255506609,3.152681863415012
5.808370044052864,2.7509936554415657
5.82819383259912,2.34662802045519
5.848017621145375,1.9400546133973504
5.867841409691631,1.5318208558482784
5.887665198237886,1.1226893721140345
5.907488986784142,0.7142494576656587
5.927312775330397,0.3142991210489245
5.9471365638766525,0.16773311259254142
5.966960352422908,0.5465033086270571
5.986784140969164,0.9536731157548156
6.00660792951542,1.3632252120161639
6.026431718061675,1.7725037993671129
6.04625550660793,2.1805415840801743
6.066079295154186,2.58672829037991
6.085903083700441,2.99056833215522
6.105726872246697,3.391613438327678
6.125550660792952,3.7894389168726996
6.145374449339208,4.183633954600965
6.1651982378854635,4.573797267734127
6.185022026431718,4.959535059039877
6.204845814977975,5.340460066281504
6.224669603524229,5.716191165841029
6.244493392070486,6.086353275340936
6.264317180616741,6.450577424578495
6.284140969162996,6.8085009243301045
6.303964757709252,7.159767593213617
6.323788546255507,7.504028019151896
6.3436123348017635,7.840939841089477
6.363436123348018,8.170168041877952
6.3832599118942746,8.491385246388598
6.403083700440529,8.804272020842141
6.422907488986785,9.108517170565323
6.44273127753304,9.4038180341717
6.462555066079296,9.689880772686626
6.482378854625551,9.966420652487763
6.502202643171807,10.233162321176616
6.5220264317180625,10.489840075667729
6.541850220264318,10.736198121905202
6.561674008810574,10.971990825707728
6.581497797356829,11.196982954310723
6.601321585903085,11.410949908227739
6.62114537444934,11.613677943094135
6.640969162995596,11.804964381190551
6.6607929515418505,11.98461781237144
6.680616740088107,12.15245828414816
6.700440528634362,12.30831748069783
6.720264317180618,12.45203889058707
6.740088105726873,12.583477963018446
6.759911894273129,12.702502252423047
6.779735682819384,12.808991551237913
6.799559471365639,12.902838010722371
6.819383259911895,12.983946249681212
6.83920704845815,13.052233450976889
6.859030837004407,13.107629445726682
6.8788546255506615,13.150076785094019
6.898678414096917,13.179530799597325
6.918502202643173,13.195959645872339
6.938325991189428,13.199344340837976
6.958149779735684,13.18967878322858
6.977973568281939,13.1669697624691
6.997797356828195,13.131236954883121
7.01762114537445,13.082512907236879
7.037444933920705,13.020843007636092
7.0572687224669615,12.946285443806332
7.077092511013216,12.858911148800457
7.096916299559473,12.758803734191865
7.116740088105728,12.646059410825146
7.136563876651983,12.520786897211284
7.156387665198239,12.383107315668127
7.176211453744494,12.233154076323178
7.19603524229075,12.071072749110947
7.215859030837005,11.89702092391399
7.235682819383261,11.711168059014454
7.255506607929516,11.513695318042084
7.275330396475772,11.304795395626167
7.295154185022027,11.084672331981471
7.314977973568283,10.85354131668651
7.334801762114538,10.61162848194283
7.354625550660794,10.35917068564285
7.374449339207049,10.096415284619486
7.394273127753305,9.82361989850943
7.4140969162995605,9.541052164736529
7.433920704845816,9.248989485220209
7.453744493392072,8.947718765544911
7.473568281938327,8.637536147507022
7.493392070484583,8.318746736205245
7.513215859030838,7.991664323196359
7.533039647577093,7.656611107752211
7.552863436123348,7.313917419011621
7.572687224669605,6.963921442962067
7.59251101321586,6.606968959940024
7.612334801762115,6.243413101099639
7.6321585903083715,5.873614136754869
7.651982378854627,5.497939316897046
7.671806167400882,5.116762796856347
7.691629955947137,4.73046570355189
7.711453744493394,4.339436439294153
7.731277533039649,3.9440714004595345
7.751101321585904,3.544776452582451
7.7709251101321595,3.1419698614745393
7.790748898678416,2.7360882242646913
7.81057268722467,2.3275991378268484
7.830396475770926,1.9170307937419064
7.850220264317182,1.5050510790817233
7.870044052863436,1.0927271037959243
7.889867841409693,0.6827240682081243
7.909691629955948,0.2906666368835771
7.929515418502204,0.225697698040347
7.9493392070484585,0.6048606033125512
7.969162995594715,1.014025506296036
7.9889867841409705,1.426796961833067
8.008810572687224,1.8397370939892261
8.02863436123348,2.2516252379527333
8.048458149779737,2.6617453172462855
8.068281938325994,3.0695486398747587
8.088105726872246,3.4745563165345397
8.107929515418503,3.8763239322994454
8.12775330396476,4.274426755028498
8.147577092511014,4.668452912055916
8.167400881057269,5.058000047497924
8.187224669603525,5.4426736440212675
8.207048458149782,5.822086199328192
8.226872246696036,6.195856867229676
8.246696035242293,6.56361136297699
8.266519823788547,6.924982024322015
8.286343612334802,7.279607966745509
8.306167400881058,7.627135296503838
8.325991189427315,7.96721735924981
8.345814977973568,8.29951501016538
8.365638766519824,8.623696896444981
8.38546255506608,8.939439745988643
8.405286343612337,9.2464286580743
8.42511013215859,9.54435739301527
8.444933920704846,9.832928658627546
8.464757709251103,10.11185439188364
8.484581497797357,10.380856034510575
8.504405286343614,10.639664801556533
8.524229074889869,10.888021942141247
8.544052863436125,11.125678991744813
8.56387665198238,11.352398015492012
8.583700440528636,11.567951841968746
8.60352422907489,11.772124287166765
8.623348017621145,11.964710368201567
8.643171806167402,12.145516506487144
8.662995594713658,12.314360720083744
8.682819383259913,12.471072804962015
8.702643171806168,12.615494504951545
8.722466960352424,12.747479670162267
8.74229074889868,12.866894403687404
8.762114537444935,12.973617196414104
8.78193832599119,13.067539049784681
8.801762114537446,13.148563586367853
8.821585903083701,13.216607148113996
8.841409691629957,13.27159888218433
8.861233480176212,13.313480814257716
8.881057268722468,13.342207909233773
8.900881057268723,13.357748119264816
8.92070484581498,13.360082419063772
8.940528634361234,13.349204828448613
8.960352422907489,13.325122422098708
8.980176211453745,13.287855326512444
9.000000000000002,13.237436704168953
9.019823788546258,13.17391272491259
9.039647577092511,13.097342524591804
9.059471365638768,13.00779815100015
9.079295154185024,12.905364497181386
9.099118942731279,12.790139222176363
9.118942731277533,12.662232659305944
9.13876651982379,12.521767712100168
9.158590308370046,12.36887973800186
9.1784140969163,12.20371641999191
9.198237885462555,12.02643762630319
9.218061674008812,11.837215258412582
9.237885462555067,11.636233087525516
9.257709251101323,11.423686579795259
9.27753303964758,11.199782710552205
9.297356828193834,10.964739767857113
9.317180616740089,10.71878714573887
9.337004405286345,10.462165127535664
9.356828193832602,10.195124659831295
9.376651982378855,9.917927117572313
9.396475770925111,9.63084406107466
9.416299559471367,9.334156985793298
9.436123348017622,9.028157065950637
9.455947136563877,8.713144893428165
9.475770925110133,8.389430213758173
9.49559471365639,8.05733166167086
9.515418502202644,7.7171764995510115
9.5352422907489,7.369300363490981
9.555066079295155,7.014047023638569
9.57488986784141,6.651768168644352
9.594713656387666,6.282823228915897
9.614537444933923,5.907579261328185
9.634361233480178,5.526410931268151
9.654185022026432,5.139700650635757
9.674008810572689,4.747838970949722
9.693832599118945,4.351225405929456
9.713656387665198,3.9502700043051493
9.733480176211454,3.5453962946704483
9.75330396475771,3.1370468855170515
9.773127753303967,2.7256945769423684
9.792951541850222,2.311865973343151
9.812775330396477,1.8961969104021665
9.832599118942733,1.4795825539785865
9.852422907488988,1.0636810217515758
9.872246696035244,0.6533252505980008
9.892070484581499,0.2802383919485667
9.911894273127754,0.2970335944746338
9.93171806167401,0.6754393719592147
9.951541850220266,1.0869146950328368
9.971365638766521,1.503726539718183
9.991189427312776,1.92138317990126
10.011013215859032,2.3382940346171663
10.030837004405289,2.753582669635987
10.050660792951543,3.166618467045983
10.070484581497798,3.576875048430668
10.090308370044054,3.983877516290935
10.11013215859031,4.387179839453246
10.129955947136565,4.7863541679365085
10.14977973568282,5.180985436220072
10.169603524229077,5.570668525236555
10.189427312775331,5.955006751362262
10.209251101321588,6.333611083300548
10.229074889867842,6.706099776865413
10.248898678414099,7.072098258697911
10.268722466960353,7.431239162616778
10.28854625550661,7.783162461547057
10.308370044052865,8.127515660038577
10.32819383259912,8.463954025245256
10.348017621145376,8.79214084196718
10.367841409691632,9.111747682137777
10.387665198237887,9.422454682169333
10.407488986784141,9.723950823536576
10.427312775330398,10.015934213280575
10.447136563876654,10.298112361995646
10.466960352422909,10.57020245746713
10.486784140969164,10.831931632552246
10.50660792951542,11.083037226198089
10.526431718061675,11.32326703670972
10.546255506607931,11.552379566542276
10.566079295154186,11.770144258011888
10.585903083700442,11.976341719412696
10.605726872246697,12.170763941098445
10.625550660792953,12.35321450114429
10.645374449339208,12.523508760250742
10.665198237885463,12.681474045589207
10.685022026431719,12.826949823321469
10.704845814977975,12.959787859552563
10.724669603524232,13.079852369501749
10.744493392070485,13.187020154697715
