Time (s),Filtered Signal
0.0,-0.007140833766534603
0.03337008452774715,-0.2641030143291309
0.0667401690554943,-0.5215885718623229
0.10011025358324147,-0.7681051901092234
0.1334803381109886,-0.9767091079363163
0.16685042263873576,-1.1128711194624423
0.20022050716648293,-1.1502981314925584
0.23359059169423008,-1.0858678275124662
0.2669606762219772,-0.9446326772430156
0.30033076074972437,-0.771118269945036
0.3337008452774715,-0.6109193110117739
0.36707092980521866,-0.49219424246467447
0.40044101433296586,-0.4166591654771493
0.433811098860713,-0.36418333094171346
0.46718118338846015,-0.30756415010948757
0.5005512679162073,-0.2289865000057474
0.5339213524439544,-0.12968553773987895
0.5672914369717016,-0.028816445321732834
0.6006615214994487,0.046610871732065115
0.6340316060271959,0.07500954972858555
0.667401690554943,0.05066586173531657
0.7007717750826902,-0.012257601058406712
0.7341418596104373,-0.08270453845287343
0.7675119441381845,-0.12115859967259723
0.8008820286659317,-0.09123163026012736
0.8342521131936789,0.028102875562192348
0.867622197721426,0.23259766102972834
0.9009922822491732,0.48873510513483454
0.9343623667769203,0.7390008045101121
0.9677324513046675,0.9175058833985117
1.0011025358324146,0.9726710307240478
1.0344726203601617,0.888990239693297
1.0678427048879089,0.6978103953959534
1.101212789415656,0.46990001548081406
1.1345828739434032,0.290121264571672
1.1679529584711503,0.22347953142211188
1.2013230429988975,0.2873250427108067
1.2346931275266446,0.44289946114067225
1.2680632120543918,0.6108681728044246
1.301433296582139,0.7041246804080515
1.334803381109886,0.662962435398486
1.3681734656376332,0.4769781573629388
1.4015435501653803,0.18499026882183922
1.4349136346931275,-0.14503914175052868
1.4682837192208746,-0.44519467830724435
1.5016538037486218,-0.6721580236354308
1.535023888276369,-0.8172630653768767
1.568393972804116,-0.9001002175263193
1.6017640573318634,-0.9512617458715048
1.6351341418596106,-0.9935914092845801
1.6685042263873577,-1.0303641114770166
1.7018743109151049,-1.0445833502502457
1.735244395442852,-1.008461533588853
1.7686144799705992,-0.8981989327397848
1.8019845644983463,-0.7074950494272932
1.8353546490260935,-0.45402748515477
1.8687247335538406,-0.1760027286660427
1.9020948180815878,0.08013284312303927
1.935464902609335,0.2760385046125157
1.968834987137082,0.3951866426998549
2.002205071664829,0.44806736326718505
2.0355751561925763,0.4664491032094566
2.0689452407203235,0.4889114414743605
2.1023153252480706,0.543706297041778
2.1356854097758178,0.6362348174919733
2.169055494303565,0.7464224704144711
2.202425578831312,0.8369368289847468
2.235795663359059,0.8685371046703076
2.2691657478868064,0.8159870299850638
2.3025358324145535,0.6780668652738011
2.3359059169423007,0.478008088660959
2.369276001470048,0.25472439620551507
2.402646085997795,0.04876464615237294
2.436016170525542,-0.1113453275229871
2.4693862550532892,-0.2172316256428865
2.5027563395810364,-0.28053235183615866
2.5361264241087835,-0.3250419737062206
2.5694965086365307,-0.3746644477223572
2.602866593164278,-0.4422638949374945
2.636236677692025,-0.5240244278822866
2.669606762219772,-0.601501316818222
2.7029768467475193,-0.6501028044062848
2.7363469312752664,-0.6498484021390335
2.7697170158030135,-0.5933966721281926
2.8030871003307607,-0.4880338610374568
2.836457184858508,-0.351610038624593
2.869827269386255,-0.2053562276934453
2.903197353914002,-0.06743594728882246
2.9365674384417493,0.05029592795985482
2.9699375229694964,0.1422918110758877
3.0033076074972436,0.2077711817972555
3.0366776920249907,0.24941174246059752
3.070047776552738,0.27281475349854245
3.103417861080485,0.2859881746847851
3.136787945608232,0.2977549223743347
3.1701580301359793,0.31478645937275457
3.203528114663727,0.33825868645132434
3.236898199191474,0.36204455458305473
3.270268283719221,0.3742313526719682
3.3036383682469683,0.36238639243668874
3.3370084527747155,0.32082838653269274
3.3703785373024626,0.2562806130343563
3.4037486218302098,0.18802167198198094
3.437118706357957,0.14073931758549155
3.470488790885704,0.13210839396825005
3.503858875413451,0.1607378654012619
3.5372289599411983,0.20133791081916222
3.5705990444689455,0.21152770010829972
3.6039691289966926,0.14929235333994476
3.63733921352444,-0.005833777654580724
3.670709298052187,-0.23801530717290123
3.704079382579934,-0.495218013161569
3.7374494671076812,-0.7060770300118157
3.7708195516354284,-0.8071524110541218
3.8041896361631755,-0.7685236897234126
3.8375597206909227,-0.6059184178782063
3.87092980521867,-0.3738296259964439
3.904299889746417,-0.14307526635313123
3.937669974274164,0.026755084282546984
3.9710400588019112,0.10796467679242752
4.004410143329658,0.11068519932556432
4.0377802278574055,0.07342992608125946
4.071150312385153,0.044001187957598
4.1045203969129,0.05933805493774308
4.137890481440647,0.13175097421643372
4.171260565968394,0.24540258389226163
4.204630650496141,0.3629969448260343
4.238000735023888,0.4398010131634691
4.2713708195516356,0.44052517627159976
4.304740904079383,0.35385421659534017
4.33811098860713,0.19949301688231852
4.371481073134877,0.02401828619375492
4.404851157662624,-0.11484884153837083
4.438221242190371,-0.17114264734987497
4.471591326718118,-0.13192928555586272
4.504961411245866,-0.026845578514991496
4.538331495773613,0.08062955246769303
4.57170158030136,0.11884369972167921
4.605071664829107,0.04055299499041716
4.638441749356854,-0.15245931902479173
4.671811833884601,-0.40534276585994033
4.7051819184123485,-0.6303113473035741
4.738552002940096,-0.7429310130139851
4.771922087467843,-0.6982677594256304
4.80529217199559,-0.5101014921149476
4.838662256523337,-0.2441846411897873
4.872032341051084,0.0112123424180027
4.905402425578831,0.1835639607494334
4.9387725101065785,0.2454458738003643
4.972142594634326,0.22205917858098706
5.005512679162073,0.1747893197052956
5.03888276368982,0.1699237520280604
5.072252848217567,0.24784861702300337
5.105622932745314,0.4065243493661396
5.138993017273061,0.60519569314904
5.1723631018008085,0.7844889733291533
5.205733186328556,0.8921158455088869
5.239103270856303,0.9022105240160062
5.27247335538405,0.820704593572586
5.305843439911797,0.6764063322126701
5.339213524439544,0.5039828828900496
5.372583608967291,0.327993449289546
5.4059536934950385,0.1555139252297508
5.439323778022786,-0.02014423625589754
5.472693862550533,-0.2079634144524065
5.50606394707828,-0.4070999546259359
5.539434031606027,-0.6011191741574667
5.572804116133774,-0.7618752550934078
5.606174200661521,-0.8610972883771665
5.6395442851892685,-0.8837642893721174
5.672914369717016,-0.8365256527722255
5.706284454244763,-0.7468764600413705
5.73965453877251,-0.6530794927485427
5.773024623300257,-0.5889034759780665
5.806394707828004,-0.5695022371910622
5.839764792355751,-0.5844588156147672
5.873134876883499,-0.6013107961105087
5.906504961411246,-0.5786614172020923
5.939875045938993,-0.48378853747965805
5.97324513046674,-0.3072982632317167
6.006615214994487,-0.06821508338988842
6.039985299522234,0.1929768049577793
6.073355384049981,0.4301420480396563
6.106725468577729,0.6086266611389108
6.140095553105476,0.71572385540252
6.173465637633223,0.7602803488001351
6.20683572216097,0.763136924226236
6.240205806688717,0.7446030064604469
6.273575891216464,0.7157673540381945
6.3069459757442115,0.6771921053949697
6.340316060271959,0.6238549793229
6.373686144799706,0.5520793648916582
6.407056229327454,0.46413855016206973
6.440426313855201,0.3685614613156994
6.473796398382948,0.27693847479898626
6.507166482910695,0.1995404547644635
6.540536567438442,0.14189135155439767
6.5739066519661895,0.10327212102040223
6.607276736493937,0.07699763264696516
6.640646821021684,0.05181998423458351
6.674016905549431,0.013994795692609798
6.707386990077178,-0.04999413963315556
6.740757074604925,-0.14985851259878688
6.774127159132672,-0.28732668423198404
6.8074972436604195,-0.45260094162204845
6.840867328188167,-0.623526369909797
6.874237412715914,-0.7692794851230299
6.907607497243661,-0.8585843603653699
6.940977581771408,-0.8698364697627587
6.974347666299155,-0.7986979315282484
7.007717750826902,-0.6592369467824979
7.0410878353546495,-0.47771384761330654
7.074457919882397,-0.28213011038805896
7.107828004410144,-0.09318521815936004
7.141198088937891,0.07848672209862416
7.174568173465638,0.22782779241182557
7.207938257993385,0.3474024314086379
7.241308342521132,0.42237042176048795
7.27467842704888,0.4333789915856927
7.308048511576627,0.36753092046035524
7.341418596104374,0.2320408325418574
7.374788680632121,0.06225358736221205
7.408158765159868,-0.0826684751609469
7.441528849687615,-0.1374364410910451
7.4748989342153624,-0.055897884447412116
7.50826901874311,0.16648031128360816
7.541639103270857,0.4831625970462039
7.575009187798604,0.8056068314111217
7.608379272326351,1.028993749347642
7.641749356854098,1.0660460210720022
7.675119441381845,0.8769376753407034
7.7084895259095925,0.48447190102339405
7.74185961043734,-0.031035561667434104
7.775229694965087,-0.5554321188622108
7.808599779492834,-0.974669543304723
7.841969864020581,-1.2073393840748634
7.875339948548328,-1.2250858419151975
7.908710033076075,-1.0549383545236886
7.9420801176038225,-0.764276936408134
7.97545020213157,-0.4352448916804137
8.008820286659317,-0.1387384729575817
8.042190371187063,0.08261305820884814
8.075560455714811,0.2175767322481906
8.108930540242557,0.2771088146211619
8.142300624770305,0.2798158254814426
8.175670709298052,0.24079877371290845
8.2090407938258,0.16958550416574086
8.242410878353546,0.07670494698712699
8.275780962881294,-0.017337271262505245
8.30915104740904,-0.07886778376512081
8.342521131936788,-0.06856316652915263
8.375891216464534,0.04211028350474258
8.409261300992283,0.2535200859309788
8.442631385520029,0.5294269621229288
8.476001470047777,0.8036325957739469
8.509371554575523,1.0005284166841477
8.542741639103271,1.0613899753793832
8.57611172363102,0.9652655646986499
8.609481808158765,0.7355984521482325
8.642851892686513,0.42996603161784624
8.67622197721426,0.11753582916871776
8.709592061742008,-0.14611645437697252
8.742962146269754,-0.33637933197021214
8.776332230797502,-0.46244112524762776
8.809702315325248,-0.5554636804023924
8.843072399852996,-0.6484724748478677
8.876442484380743,-0.7577137943286595
8.90981256890849,-0.8739182157953828
8.943182653436237,-0.9667312596062158
8.976552737963985,-0.9992826864443478
9.009922822491731,-0.945583168748569
9.04329290701948,-0.8029296322109423
9.076662991547225,-0.5944412798883377
9.110033076074973,-0.36137492734586996
9.14340316060272,-0.14884878562370152
9.176773245130468,0.00933941790066006
9.210143329658214,0.10131396902171642
9.243513414185962,0.13966017232081307
9.276883498713708,0.155363206304346
9.310253583241456,0.1854995953138115
9.343623667769203,0.2589831229458579
9.37699375229695,0.3851504265932647
9.410363836824697,0.5489796806439357
9.443733921352445,0.7146794134938743
9.477104005880191,0.8368418449352782
9.51047409040794,0.8759154509823525
9.543844174935685,0.8130320944729347
9.577214259463434,0.6588593185338464
9.61058434399118,0.4525783823764079
9.643954428518928,0.2502377495054004
9.677324513046674,0.10578972763249304
9.710694597574422,0.05158406780138783
9.744064682102168,0.08621664720708094
9.777434766629916,0.17528588972224948
9.810804851157663,0.2652362768767107
9.84417493568541,0.30436504966261246
9.877545020213157,0.2614688157677064
9.910915104740905,0.13383510866604006
9.944285189268651,-0.05792574166441045
9.9776552737964,-0.28349215143151857
10.011025358324146,-0.5158721789467875
10.044395442851894,-0.7362816492181211
10.07776552737964,-0.9295760228767613
10.111135611907388,-1.0759752405418943
10.144505696435134,-1.1477432796797475
10.177875780962882,-1.1161547400123866
10.211245865490628,-0.9665755777472301
10.244615950018376,-0.7127981136933655
10.277986034546123,-0.40050908016826064
10.31135611907387,-0.09509636367802088
10.344726203601617,0.14214779111826628
10.378096288129365,0.27831886316793775
10.411466372657111,0.32156752192242954
10.44483645718486,0.3156522787926787
10.478206541712606,0.3189367005338647
10.511576626240354,0.3778973272252406
10.5449467107681,0.5073451057701236
10.578316795295848,0.6855889369765303
10.611686879823594,0.865150760114648
10.645056964351342,0.9925188045389178
10.678427048879088,1.0273440348738898
10.711797133406836,0.9535374411489643
10.745167217934583,0.7800844134850227
10.77853730246233,0.5345464127294699
10.811907386990077,0.254256790947834
10.845277471517825,-0.02132143602071472
10.878647556045571,-0.2566367399421944
10.91201764057332,-0.4257304642771312
10.945387725101066,-0.5178413578568503
10.978757809628814,-0.5408494621500894
11.01212789415656,-0.5193345190074057
11.045497978684308,-0.48585902445697315
11.078868063212054,-0.46814357227022274
11.112238147739802,-0.4781931254101689
11.145608232267548,-0.5092903935843235
11.178978316795297,-0.5425788754207663
11.212348401323043,-0.5591960010567899
11.24571848585079,-0.5504432324482856
11.279088570378537,-0.519787337753756
11.312458654906285,-0.4758725766028096
11.345828739434031,-0.4216991368125917
11.37919882396178,-0.3477662474800002
11.412568908489526,-0.2345664705501855
11.445938993017274,-0.06392772491719045
11.47930907754502,0.1669298783510361
11.512679162072768,0.4367139567437178
11.546049246600514,0.7021316822002835
11.579419331128262,0.9104653177390595
11.612789415656009,1.0170947322198858
11.646159500183757,1.0001724572852477
11.679529584711503,0.8664225602143585
11.71289966923925,0.6466425848422636
11.746269753766997,0.38439873901247734
11.779639838294745,0.12400741478934475
11.813009922822491,-0.09712326946319759
11.84638000735024,-0.25058032860896806
11.879750091877986,-0.316389994976693
11.913120176405734,-0.28428752377093097
11.94649026093348,-0.1589589599319981
11.979860345461228,0.03330130561338832
12.013230429988974,0.24265658236961438
12.046600514516722,0.4040015933202966
12.079970599044469,0.45573031757270055
12.113340683572217,0.3625638854019659
12.146710768099963,0.13211419365812618
12.180080852627711,-0.18351705882474625
12.213450937155457,-0.5033765803175402
12.246821021683205,-0.7450093554490559
12.280191106210951,-0.8527346851275589
12.3135611907387,-0.8156503802214298
12.346931275266446,-0.6685180977190824
12.380301359794194,-0.4757452733517242
12.41367144432194,-0.3054529400324621
12.447041528849688,-0.20431939004927216
12.480411613377434,-0.18302504571888603
12.513781697905182,-0.21716748123888102
12.547151782432929,-0.2617708468643127
12.580521866960677,-0.2720580027990571
12.613891951488423,-0.2213255833799339
12.647262036016171,-0.10905003459469446
12.680632120543917,0.04268236544935165
12.714002205071665,0.20115362833578562
12.747372289599411,0.3370130055056982
12.78074237412716,0.4339840808070932
12.814112458654908,0.4908926396841738
12.847482543182654,0.5167973873413043
12.880852627710402,0.5232749154973874
12.914222712238148,0.5186275766293353
12.947592796765896,0.5066881100028774
12.980962881293642,0.4893636199551642
13.01433296582139,0.4694014519201379
13.047703050349137,0.4499032070063798
13.081073134876885,0.42993079853899846
13.114443219404631,0.39924362649467465
13.147813303932379,0.33710902556186156
13.181183388460125,0.21862304801074853
13.214553472987873,0.02764884176926607
13.24792355751562,-0.22920706748920514
13.281293642043368,-0.5153302697808307
13.314663726571114,-0.7693342049302925
13.348033811098862,-0.9230823458353816
13.381403895626608,-0.9263213866406736
13.414773980154356,-0.7676460249106133
13.448144064682102,-0.48211673131024246
13.48151414920985,-0.14123155722227163
13.514884233737597,0.17127045025719428
13.548254318265345,0.38784683644077406
13.581624402793091,0.4779652297231469
13.614994487320839,0.45300248206384014
13.648364571848585,0.3543146863131748
13.681734656376333,0.2311669061495042
13.71510474090408,0.11938261000355158
13.748474825431828,0.030373228682113545
13.781844909959574,-0.04561517598150727
13.815214994487322,-0.12559208955530043
13.848585079015068,-0.2179505936837539
13.881955163542816,-0.31364395380718224
13.915325248070562,-0.3889066036933758
13.94869533259831,-0.41732343843304337
13.982065417126057,-0.3839998836415927
14.015435501653805,-0.2939432728559945
14.048805586181551,-0.17061333142529655
14.082175670709299,-0.04634618029885921
14.115545755237045,0.04956670398093024
14.148915839764793,0.09923628687605422
14.18228592429254,0.09847917443519422
14.215656008820288,0.05480929387916794
14.249026093348034,-0.015203075107766379
14.282396177875782,-0.08715472640727882
14.315766262403528,-0.13018083567632727
14.349136346931276,-0.11227782957815553
14.382506431459023,-0.011627154713792177
14.41587651598677,0.16932445273630442
14.449246600514517,0.39532438823129845
14.482616685042265,0.6037726253041504
14.515986769570011,0.726147457688074
14.54935685409776,0.7174355585092577
14.582726938625505,0.5787702319897045
14.616097023153253,0.36005498358782134
14.649467107681,0.1393585186279529
14.682837192208748,-0.011346115168206262
14.716207276736494,-0.05673177020795089
14.749577361264242,-0.009635159100734023
14.782947445791988,0.08108456278816432
14.816317530319736,0.15806182028786928
14.849687614847483,0.1824921334084109
14.88305769937523,0.14683060377197793
14.916427783902977,0.06879358232341011
14.949797868430725,-0.026550693113360058
14.983167952958471,-0.12379292458027041
15.01653803748622,-0.22266489987487736
15.049908122013965,-0.3297993978279752
15.083278206541713,-0.4437822286672776
15.11664829106946,-0.5449143445075906
15.150018375597208,-0.5982546685512643
15.183388460124954,-0.5702747743550471
15.216758544652702,-0.45068226450580445
15.250128629180448,-0.2667126127499145
15.283498713708196,-0.0799968660155369
15.316868798235943,0.035261728313154245
15.35023888276369,0.024029652490440208
15.383608967291437,-0.1227854602767311
15.416979051819185,-0.3601194964373487
15.450349136346931,-0.6042417275495717
15.48371922087468,-0.7656342589077557
15.517089305402425,-0.7843350018716286
15.550459389930174,-0.6515922417409069
15.58382947445792,-0.40850563844530463
15.617199558985668,-0.12360918569248958
15.650569643513414,0.13878332420451375
15.683939728041162,0.3441088813758325
15.717309812568908,0.49575845138118924
15.750679897096656,0.6239569263548467
15.784049981624403,0.7626263305646572
15.81742006615215,0.9264576387366741
15.850790150679897,1.0991458988312401
15.884160235207645,1.23764329950247
15.917530319735391,1.2897159492941854
15.95090040426314,1.2165405539766345
15.984270488790886,1.0106261331774415
16.017640573318634,0.7020170573099712
16.05101065784638,0.35081179126812545
16.084380742374126,0.029112631864453693
16.117750826901876,-0.20124376565897034
16.151120911429622,-0.30802016957412054
16.18449099595737,-0.2989893896753548
16.217861080485115,-0.21988689741744608
16.251231165012864,-0.13973206506648878
16.28460124954061,-0.12730450186755102
16.317971334068357,-0.22621500102713327
16.351341418596103,-0.43769856835058096
16.384711503123853,-0.7184267237105677
16.4180815876516,-0.9951949253855136
16.451451672179346,-1.1913206067287103
16.484821756707092,-1.254331249300886
16.51819184123484,-1.1737850062393191
16.551561925762588,-0.9823409944056686
16.584932010290334,-0.7404224559646387
16.61830209481808,-0.5115818111993115
16.65167217934583,-0.33902078604986985
16.685042263873576,-0.2324642247093698
16.718412348401323,-0.16965980385049417
16.75178243292907,-0.11056954573420232
16.78515251745682,-0.017491387549041334
16.818522601984565,0.127360004700034
16.85189268651231,0.31364253808914366
16.885262771040058,0.5069135012427315
16.918632855567807,0.6630447803743159
16.952002940095554,0.7472246775691451
16.9853730246233,0.7498101355056568
17.018743109151046,0.6921969898717442
17.052113193678796,0.6196030818249197
17.085483278206542,0.5830070223826312
17.11885336273429,0.6172893325011557
17.15222344726204,0.7246805843248756
17.185593531789785,0.8708205088508535
17.21896361631753,0.9956753458672892
17.252333700845277,1.0353321069595958
17.285703785373027,0.9459465217133299
17.319073869900773,0.7199936398700095
17.35244395442852,0.3881504870693732
