Frequency (Hz),Amplitude
0.0,1.1011229046877091
0.01993355481727575,1.1032094894333289
0.0398671096345515,1.1094374898259651
0.059800664451827246,1.1197134382108032
0.079734219269103,1.1338872930682768
0.09966777408637874,1.1517602573642631
0.11960132890365449,1.1730943331594337
0.13953488372093023,1.1976225896779424
0.159468438538206,1.225059219036919
0.17940199335548174,1.2551086706081007
0.19933554817275748,1.2874734197155135
0.21926910299003324,1.3218601777220746
0.23920265780730898,1.357984550392221
0.25913621262458475,1.3955742857369713
0.27906976744186046,1.434371325153772
0.29900332225913623,1.474132895833472
0.318936877076412,1.5146318739471865
0.3388704318936877,1.5556566211961147
0.3588039867109635,1.5970104625764356
0.37873754152823924,1.6385109376860214
0.39867109634551495,1.6799889255468128
0.4186046511627907,1.7212877155280524
0.4385382059800665,1.762262074943475
0.4584717607973422,1.8027773469042583
0.47840531561461797,1.8427085993313121
0.49833887043189373,1.8819398368575992
0.5182724252491695,1.920363280916109
0.5382059800664452,1.957878718945365
0.5581395348837209,1.9943929208072366
0.5780730897009968,2.029819118773481
0.5980066445182725,2.0640765464709587
0.6179401993355482,2.0970900317386385
0.637873754152824,2.1287896382645317
0.6578073089700996,2.1591103510117957
0.6777408637873754,2.1879918007201526
0.6976744186046512,2.2153780231215436
0.717607973421927,2.24121724889507
0.7375415282392027,2.2654617207794683
0.7574750830564785,2.2880675346444543
0.7774086378737541,2.3089945016848863
0.7973421926910299,2.3282060292390865
0.8172757475083057,2.3456690180421935
0.8372093023255814,2.361353774007104
0.8571428571428572,2.3752339328809717
0.877076411960133,2.3872863963555737
0.8970099667774087,2.3974912784182068
0.9169435215946844,2.4058318609185987
0.9368770764119602,2.412294557498534
0.9568106312292359,2.416868885188258
0.9767441860465116,2.419547443118723
0.9966777408637875,2.4203258979341697
1.0166112956810631,2.4192029756178757
1.036544850498339,2.4161804595671907
1.0564784053156147,2.4112631948739387
1.0764119601328903,2.4044590988862113
1.0963455149501662,2.3957791782481177
1.1162790697674418,2.3852375527385368
1.1362126245847177,2.3728514863597696
1.1561461794019936,2.3586414262649806
1.176079734219269,2.342631050261038
1.196013289036545,2.3248473237843794
1.2159468438538206,2.3053205674230117
1.2358803986710964,2.284084536251512
1.255813953488372,2.261176512459556
1.275747508305648,2.236637412991542
1.2956810631229239,2.2105119141764797
1.3156146179401993,2.1828485956164143
1.3355481727574752,2.1537001059182423
1.3554817275747508,2.12312335319771
1.3754152823920267,2.091179723652897
1.3953488372093024,2.0579353318905627
1.4152823920265782,2.023461307081565
1.435215946843854,1.987834119401277
1.4551495016611296,1.9511359515470863
1.4750830564784054,1.9134551203725714
1.495016611295681,1.8748865537679127
1.514950166112957,1.8355323277520217
1.5348837209302328,1.7955022681844781
1.5548172757475083,1.7549146203627288
1.5747508305647842,1.7138967877800773
1.5946843853820598,1.6725861381315936
1.6146179401993357,1.6311308698132267
1.6345514950166113,1.589690925088153
1.6544850498338872,1.5484389261014666
1.6744186046511629,1.507561096225258
1.6943521594684385,1.467258111016621
1.7142857142857144,1.4277457997279817
1.73421926910299,1.3892555896213243
1.754152823920266,1.3520345520076928
1.7740863787375416,1.3163448732263214
1.7940199335548175,1.282462540348431
1.8139534883720931,1.2506750081182567
1.8338870431893688,1.2212776121077749
1.8538205980066447,1.1945685280297391
1.8737541528239203,1.170842164233736
1.893687707641196,1.1503810251406872
1.9136212624584719,1.1334462978004818
1.9335548172757475,1.120267672254723
1.9534883720930232,1.1110331646609142
1.9734219269102993,1.1058799048084365
1.993355481727575,1.1048869061603663
2.0132890365448506,1.1080707072891653
2.0332225913621262,1.1153844562182567
2.0531561461794023,1.1267205603685966
2.073089700996678,1.1419165468646046
2.0930232558139537,1.1607633837300453
2.1129568106312293,1.183015284933326
2.132890365448505,1.208399988692516
2.1528239202657806,1.2366286304459335
2.1727574750830567,1.2674045658639086
2.1926910299003324,1.3004307645014963
2.212624584717608,1.3354156351113315
2.2325581395348837,1.3720773274228224
2.25249169435216,1.4101466734164043
2.2724252491694354,1.4493689905515381
2.292358803986711,1.4895049843661925
2.312292358803987,1.5303309739649649
2.332225913621263,1.5716386344815632
2.352159468438538,1.61323441535754
2.3720930232558137,1.6549387584049302
2.39202657807309,1.6965852084749518
2.4119601328903655,1.7380194835353366
2.431893687707641,1.7790985502518888
2.4518272425249172,1.8196897353119024
2.471760797342193,1.8596698909752436
2.4916943521594686,1.8989246248914904
2.511627906976744,1.9373475983355333
2.5315614617940203,1.9748398930545366
2.551495016611296,2.011309444372269
2.5714285714285716,2.046670536661382
2.5913621262458477,2.08084335646648
2.611295681063123,2.113753598215238
2.6312292358803986,2.1453321174281017
2.6511627906976742,2.1755146265124528
2.6710963455149503,2.204241428522961
2.691029900332226,2.2314571846300764
2.7109634551495017,2.2571107114260243
2.7308970099667778,2.281154804587214
2.7508305647840534,2.303546085789339
2.770764119601329,2.3242448701270138
2.7906976744186047,2.3432150516195422
2.810631229235881,2.3604240046865255
2.8305647840531565,2.375842499751814
2.850498338870432,2.3894446313829607
2.870431893687708,2.401207757598188
2.8903654485049834,2.4111124491761085
2.910299003322259,2.4191424479877806
2.9302325581395348,2.4252846335385505
2.950166112956811,2.4295289970613956
2.9700996677740865,2.4318686226461916
2.990033222591362,2.432299675023314
3.0099667774086383,2.4308213937470553
3.029900332225914,2.4274360936471986
3.0498338870431896,2.422149171537374
3.0697674418604657,2.4149691192891076
3.089700996677741,2.4059075435025337
3.1096345514950166,2.394979192130891
3.129568106312292,2.382201988548251
3.1495016611295683,2.3675970736908294
3.169435215946844,2.3511888570538595
3.1893687707641196,2.333005077490925
3.2093023255813957,2.3130768749434405
3.2292358803986714,2.291438874427003
3.249169435215947,2.26812928382143
3.2691029900332227,2.2431900072546638
3.289036544850499,2.2166667761396597
3.3089700996677744,2.188609300219214
3.32890365448505,2.1590714412971255
3.3488372093023258,2.1281114126834666
3.3687707641196014,2.0957920077538357
3.388704318936877,2.062180861408619
3.4086378737541527,2.0273507486055844
3.428571428571429,1.9913799245046182
3.4485049833887045,1.9543525110732676
3.46843853820598,1.9163589352038923
3.4883720930232562,1.8774964234126572
3.508305647840532,1.8378695579190065
3.5282392026578075,1.797590898189988
3.548172757475083,1.7567816706669048
3.5681063122923593,1.715572527088613
3.588039867109635,1.6741043682097565
3.60797342192691,1.6325292242993048
3.6279069767441863,1.5910111759910308
3.647840531561462,1.5497272881289417
3.6677740863787376,1.5088685144209855
3.6877076411960132,1.4686405112249161
3.7076411960132893,1.4292642741028982
3.727574750830565,1.3909764809082157
3.7475083056478407,1.3540293911793468
3.7674418604651168,1.3186901163459184
3.787375415282392,1.2852390441246075
3.807308970099668,1.2539671822867942
3.8272425249169437,1.2251721941204468
3.8471760797342194,1.1991529454853809
3.867109634551495,1.1762024862113334
3.887043189368771,1.1565995557309772
3.9069767441860463,1.1405989297398715
3.9269102990033224,1.1284211856161994
3.9468438538205985,1.1202427093055014
3.9667774086378738,1.1161869276386813
3.98671096345515,1.1163177609060928
4.0066445182724255,1.1206361122155486
4.026578073089701,1.1290798553277819
4.046511627906977,1.1415273208721295
4.0664451827242525,1.1578038192383333
4.086378737541528,1.1776903840608
4.106312292358805,1.2009337424073672
4.1262458471760795,1.2272565289286668
4.146179401993356,1.2563669224518794
4.166112956810632,1.2879671281411371
4.186046511627907,1.3217603887873366
4.205980066445183,1.3574564351785445
4.225913621262459,1.3947754522414302
4.245847176079734,1.4334507402522734
4.26578073089701,1.4732302979100136
4.2857142857142865,1.5138775612443207
4.305647840531561,1.5551715142516704
4.325581395348838,1.5969063561754537
4.345514950166113,1.6388908752278302
4.365448504983389,1.6809476446993754
4.385382059800665,1.7229121276416268
4.40531561461794,1.7646317517061585
4.425249169435216,1.805964996296708
4.445182724252492,1.846780519403178
4.465116279069767,1.8869563405843992
4.485049833887043,1.9263790887679
4.50498338870432,1.9649433181287692
4.524916943521594,2.002550891695375
4.544850498338871,2.03911043002434
4.5647840531561465,2.074536820916406
4.584717607973422,2.108750785425394
4.604651162790698,2.1416784951355496
4.624584717607974,2.1732512356965183
4.644518272425249,2.203405111802343
4.664451827242526,2.2320807891060452
4.6843853820598005,2.2592232689227867
4.704318936877076,2.2847816919581247
4.724252491694353,2.308709167681117
4.7441860465116275,2.3309626263313072
4.764119601328904,2.351502690895848
4.78405315614618,2.37029356671453
4.803986710963455,2.3873029466650557
4.823920265780731,2.4025019301482575
4.8438538205980075,2.415864954335791
4.863787375415282,2.4273697363620492
4.883720930232559,2.4369972253406975
4.9036544850498345,2.444731563266752
4.92358803986711,2.4505600540301553
4.943521594684386,2.45447313991833
4.963455149501661,2.4564643851266705
4.983388704318937,2.456530465928574
5.003322259136213,2.454671167283478
5.023255813953488,2.4508893857843312
5.043189368770764,2.4451911389670564
5.063122923588041,2.437585581126106
5.083056478405315,2.428085025904417
5.102990033222592,2.4167049760545485
5.122923588039868,2.4034641609035385
5.142857142857143,2.3883845821984377
5.162790697674419,2.3714915691658156
5.182724252491695,2.3528138437883324
5.20265780730897,2.3323835974880995
5.222591362126246,2.310236580611662
5.242524916943522,2.286412206338695
5.262458471760797,2.260953670886443
5.282392026578074,2.233908092158397
5.3023255813953485,2.205326669288341
5.322259136212625,2.1752648658597264
5.342192691029901,2.1437826199342673
5.362126245847176,2.110944584395698
5.382059800664452,2.076820401496856
5.4019933554817285,2.041485015872612
5.421926910299003,2.0050190306230378
5.44186046511628,1.9675091113398455
5.4617940199335555,1.9290484430868062
5.48172757475083,1.8897372452662509
5.501661129568107,1.849683348888811
5.5215946843853825,1.8090028398441929
5.541528239202658,1.7678207701176774
5.561461794019934,1.7262719362018704
5.5813953488372094,1.6845017198122378
5.601328903654485,1.6426669799151543
5.621262458471762,1.6009369763899366
5.641196013289036,1.559494293644725
5.661129568106313,1.5185357164213522
5.681063122923589,1.4782729891662847
5.700996677740864,1.438933364332181
5.72093023255814,1.400759814107796
5.740863787375416,1.3640107458894037
5.760797342192691,1.3289590278094128
5.780730897009967,1.2958901031120986
5.800664451827243,1.2650989608126675
5.820598006644518,1.2368857479726567
5.840531561461795,1.211549871097409
5.8604651162790695,1.1893825539719645
5.880398671096346,1.1706580022780648
5.900332225913622,1.1556235616101784
5.920265780730897,1.1444895129623303
5.940199335548173,1.1374193735084166
5.960132890365449,1.1345216926076935
5.980066445182724,1.1358442935536974
6.0,1.141371685211842
6.0199335548172765,1.1510259823843136
6.039867109634551,1.1646712099287504
6.059800664451828,1.1821204314175044
6.0797342192691035,1.203144835934339
6.099667774086379,1.227483790352941
6.119601328903655,1.2548549170666883
6.139534883720931,1.2849634416136904
6.159468438538206,1.3175103037075062
6.179401993355482,1.3521987760937348
6.1993355481727574,1.3887395453960094
6.219269102990033,1.4268543580929252
6.23920265780731,1.4662784223102245
6.259136212624584,1.5067617928153756
6.279069767441861,1.5480699672549851
6.299003322259137,1.5899839004960976
6.318936877076412,1.6322996122165703
6.338870431893688,1.6748275284293945
6.3588039867109645,1.717391665107256
6.378737541528239,1.7598287338460237
6.398671096345516,1.8019872263682073
6.418604651162791,1.8437265165040608
6.438538205980066,1.8849160045246
6.458471760797343,1.9254343185900704
6.4784053156146175,1.965168580869213
6.498338870431894,2.004013740904563
6.51827242524917,2.041871975483664
6.538205980066445,2.078652152174555
6.558139534883721,2.114269352446903
6.578073089700998,2.1486444496654244
6.598006644518272,2.181703737015333
6.617940199335549,2.2133786004602993
6.6378737541528245,2.2436052320418582
6.6578073089701,2.272324379135936
6.677740863787376,2.299481125639138
6.6976744186046515,2.3250247014332523
6.717607973421927,2.348908316850317
6.737541528239203,2.3710890192200105
6.7574750830564785,2.391527568918803
6.777408637873754,2.4101883326529894
6.797342192691031,2.427039191993869
6.8172757475083055,2.442051465444071
6.837209302325582,2.455199842550293
6.857142857142858,2.466462328791975
6.877076411960133,2.4758202001698613
6.897009966777409,2.483257966595508
6.9169435215946855,2.488763343345158
6.93687707641196,2.492327229991395
6.956810631229236,2.493943696366107
6.9767441860465125,2.493609975240687
6.996677740863787,2.4913264615364348
7.016611295681064,2.4870967180019705
7.036544850498339,2.4809274874170852
7.056478405315615,2.4728287115061307
7.076411960132891,2.4628135568709246
7.096345514950166,2.450898448385107
7.116279069767442,2.437103110631493
7.136212624584719,2.421450618113268
7.156146179401993,2.4039674551312613
7.17607973421927,2.3846835863956053
7.196013289036546,2.3636325396328584
7.21594684385382,2.3408515016623213
7.235880398671097,2.316381429649239
7.2558139534883725,2.29026717950065
7.275747508305648,2.2625576536527108
7.295681063122924,2.2333059708072045
7.3156146179402,2.2025696605084297
7.335548172757475,2.170410885806315
7.355481727574752,2.1368966976204753
7.3754152823920265,2.102099324790491
7.395348837209303,2.066096504150326
7.415282392026579,2.0289718552681886
7.435215946843854,1.9908153047015826
7.45514950166113,1.9517235646630884
7.475083056478406,1.9118006707794262
7.495016611295681,1.8711585830191542
7.514950166112956,1.8299178526764122
7.5348837209302335,1.7882083562768076
7.554817275747508,1.7461700940818916
7.574750830564784,1.70395404607822
7.5946843853820605,1.6617230714044569
7.614617940199336,1.6196528274486135
7.634551495016611,1.5779326716127697
7.6544850498338874,1.5367664912690027
7.674418604651163,1.4963733851438792
7.694352159468439,1.4569880921148497
7.714285714285715,1.4188610318648824
7.73421926910299,1.38225778814232
7.754152823920266,1.3474578338065564
7.774086378737542,1.314752274624352
7.794019933554818,1.2844403864854972
7.813953488372093,1.2568247518169184
7.83388704318937,1.2322048798679244
7.853820598006645,1.2108693332066367
7.8737541528239205,1.1930865802881867
7.893687707641197,1.179095035125705
7.913621262458472,1.1690929915304649
7.9335548172757475,1.163229352738395
7.953488372093024,1.1615961321176185
7.9734219269103,1.1642236072255858
7.9933554817275745,1.171078737785791
8.013289036544851,1.182067051339803
8.033222591362128,1.1970377467222064
8.053156146179402,1.2157913698182012
8.073089700996679,1.2380891626514725
8.093023255813954,1.2636631128730145
8.11295681063123,1.2922258208353192
8.132890365448505,1.3234795029303301
8.152823920265782,1.3571236973292666
8.172757475083056,1.3928614752884714
8.192691029900331,1.4304041520114978
8.21262458471761,1.4694746217360632
8.232558139534884,1.5098095147418795
8.252491694352159,1.5511604009211353
8.272425249169435,1.5932942597740631
8.292358803986712,1.6359934133460041
8.312292358803987,1.6790550868597485
8.332225913621263,1.7222907284553992
8.352159468438538,1.7655251885378958
8.372093023255815,1.8085958326783589
8.392026578073091,1.8513516403938193
8.411960132890366,1.8936523252315602
8.43189368770764,1.93536749881785
8.451827242524917,1.9763758921734873
8.471760797342194,2.0165646409393845
8.491694352159469,2.055828636562624
8.511627906976745,2.0940699424433835
8.53156146179402,2.1311972721162205
8.551495016611296,2.16712552541303
8.571428571428573,2.201775377985953
8.591362126245848,2.2350729193770356
8.611295681063122,2.2669493348773853
8.6312292358804,2.297340626629892
8.651162790697676,2.326187369730935
8.67109634551495,2.3534344994343765
8.691029900332227,2.3790311259254233
8.710963455149502,2.402930373493883
8.730897009966778,2.4250892412841076
8.750830564784053,2.44546848312576
8.77076411960133,2.4640325042523292
8.790697674418604,2.4807492729920786
8.81063122923588,2.49559024576932
8.830564784053157,2.5085303039841547
8.850498338870432,2.519547701547963
8.870431893687707,2.5286240220423797
8.890365448504983,2.535744144643569
8.91029900332226,2.5408962181138555
8.930232558139535,2.5440716423114025
8.950166112956811,2.5452650568082706
8.970099667774086,2.5444743363396953
8.990033222591363,2.5417005929354652
9.00996677740864,2.5369481847096043
9.029900332225914,2.530224731409514
9.049833887043189,2.521541136952301
9.069767441860467,2.5109116193065137
9.089700996677742,2.4983537482137037
9.109634551495017,2.483888491388989
9.129568106312293,2.46754026999448
9.14950166112957,2.4493370243474417
9.169435215946844,2.4293102910077637
9.189368770764121,2.4074952925898025
9.209302325581396,2.3839310418638546
9.22923588039867,2.3586604619544844
9.249169435215949,2.3317305247085187
9.269102990033224,2.303192409595202
9.289036544850498,2.2731016858147606
9.308970099667773,2.2415185206268458
9.328903654485051,2.2085079172620703
9.348837209302326,2.1741399861381594
9.368770764119601,2.138490253452011
9.388704318936878,2.1016400115348244
9.408637873754152,2.0636767156027522
9.428571428571429,2.02469443165549
9.448504983388705,1.9847943401912138
9.46843853820598,1.944085300007858
9.488372093023255,1.9026844754942807
9.508305647840533,1.8607180292712984
9.528239202657808,1.818321879543026
9.548172757475083,1.7756425176990063
9.56810631229236,1.7328378761050904
9.588039867109636,1.6900782280711495
9.60797342192691,1.647547091031647
9.627906976744187,1.6054420893225454
9.647840531561462,1.563975713944151
9.667774086378738,1.5233758929718384
9.687707641196015,1.4838862579819685
9.70764119601329,1.445765960193682
9.727574750830565,1.4092888578335192
9.747508305647841,1.3747418687230488
9.767441860465118,1.3424222674619775
9.787375415282392,1.3126337161327866
9.807308970099669,1.2856808646504323
9.827242524916944,1.2618624546424067
9.84717607973422,1.241463016558188
9.867109634551497,1.2247434589831148
9.887043189368772,1.21193108877195
9.906976744186046,1.203209826459278
9.926910299003321,1.1987115337713898
9.9468438538206,1.1985093895364294
9.966777408637874,1.202614100501886
9.986710963455149,1.2109734216764982
10.006644518272426,1.2234750438226012
10.026578073089702,1.2399524759660971
10.046511627906977,1.2601932049624938
10.066445182724253,1.2839482202715262
10.086378737541528,1.3109419700070835
10.106312292358805,1.3408819371434828
10.126245847176081,1.3734672367765215
10.146179401993356,1.4083958752921726
10.16611295681063,1.4453705313726972
10.186046511627907,1.4841028886387506
10.205980066445184,1.524316661651435
10.225913621262459,1.5657495160111619
10.245847176079735,1.6081541013830485
10.26578073089701,1.6512984070132963
10.285714285714286,1.6949656245922842
10.305647840531563,1.738953672112959
10.325581395348838,1.783074500560353
10.345514950166113,1.8271532762173581
10.36544850498339,1.8710275066354116
10.385382059800666,1.9145461582823553
10.40531561461794,1.9575687982695322
10.425249169435217,1.999964780787898
10.445182724252492,2.041612490262337
10.465116279069768,2.082398647100729
10.485049833887045,2.122217677686447
10.50498338870432,2.160971147455684
10.524916943521594,2.1985672541300523
10.544850498338871,2.2349203771427737
10.564784053156147,2.2699506787799413
10.584717607973422,2.303583752390793
10.604651162790697,2.335750313083686
10.624584717607974,2.366385926530774
10.64451827242525,2.395430771795411
10.664451827242525,2.4228294344302888
10.684385382059801,2.4485307264438223
10.704318936877076,2.472487530079817
10.724252491694353,2.494656662689496
10.74418604651163,2.51499876028965
10.764119601328904,2.5334781776926323
