Time (s),Filtered Signal
0.0,-0.008564279498444391
0.03337028824833703,0.05786970759872347
0.06674057649667406,0.09333991586252033
0.10011086474501109,0.07697243987259689
0.13348115299334812,0.004480595521217705
0.16685144124168516,-0.1109448419303605
0.20022172949002218,-0.24356221176398027
0.2335920177383592,-0.3638363440017973
0.26696230598669624,-0.44774480372307324
0.3003325942350333,-0.48340648233705236
0.3337028824833703,-0.47309562744961375
0.3670731707317073,-0.43055526185171095
0.40044345898004435,-0.3751150484592923
0.4338137472283814,-0.3248975323581377
0.4671840354767184,-0.2912658432510641
0.5005543237250555,-0.2759151048523971
0.5339246119733925,-0.2710821147664129
0.5672949002217295,-0.26256740227301073
0.6006651884700666,-0.23469484587858327
0.6340354767184035,-0.17588624780482146
0.6674057649667406,-0.08320742534921191
0.7007760532150776,0.03572449499985683
0.7341463414634146,0.1644205905473928
0.7675166297117517,0.2824589630184545
0.8008869179600887,0.3719498423134249
0.8342572062084257,0.4230051169110289
0.8676274944567628,0.4360494352526668
0.9009977827050998,0.420227613791064
0.9343680709534368,0.38891967339358907
0.9677383592017739,0.3545438607685802
1.001108647450111,0.32484654146642056
1.0344789356984478,0.30186348466382457
1.067849223946785,0.28334664851267666
1.101219512195122,0.2654248263936523
1.134589800443459,0.24501165933025848
1.167960088691796,0.22093667451676635
1.2013303769401331,0.19359379703546328
1.23470066518847,0.16365471781977164
1.268070953436807,0.13077661464623913
1.3014412416851442,0.09313781292726399
1.3348115299334813,0.04815560108733531
1.3681818181818182,-0.00588531542229684
1.4015521064301553,-0.06806478518541714
1.4349223946784924,-0.13386341019258755
1.4682926829268292,-0.19571796868557867
1.5016629711751663,-0.24522942935001912
1.5350332594235034,-0.27638580931230033
1.5684035476718403,-0.28848773460494603
1.6017738359201774,-0.2872551156115811
1.6351441241685145,-0.2831273739176655
1.6685144124168514,-0.2869899317118091
1.7018847006651885,-0.3049609887570989
1.7352549889135256,-0.3346898543258832
1.7686252771618625,-0.3652553375296372
1.8019955654101996,-0.38119397268600436
1.8353658536585367,-0.36911392722053515
1.8687361419068735,-0.3238439605359137
1.9021064301552106,-0.2510283322587415
1.9354767184035477,-0.1646761041303642
1.9688470066518848,-0.08067367382984972
2.002217294900222,-0.009391756335261382
2.035587583148559,0.04887696070633522
2.0689578713968957,0.1031999646486397
2.102328159645233,0.16613984126985426
2.13569844789357,0.24549190676766694
2.1690687361419068,0.3377278677444505
2.202439024390244,0.42663498200210526
2.235809312638581,0.4882944289844333
2.269179600886918,0.5005453563636607
2.302549889135255,0.45285723096352964
2.335920177383592,0.35216384391518774
2.369290465631929,0.2218956375744019
2.4026607538802662,0.094396324907486
2.436031042128603,-0.0002468097894790715
2.46940133037694,-0.04446625063076147
2.5027716186252773,-0.038574450795698045
2.536141906873614,0.0006500270893199162
2.569512195121951,0.04726518071058243
2.6028824833702884,0.07624565808049574
2.6362527716186253,0.07236093758245965
2.6696230598669626,0.0345919546313233
2.7029933481152995,-0.025239637674040253
2.7363636363636363,-0.08860353430961829
2.7697339246119737,-0.1382928963073248
2.8031042128603105,-0.16491404857854258
2.8364745011086474,-0.1692954074153644
2.8698447893569847,-0.16024664915887693
2.9032150776053216,-0.1492074572693236
2.9365853658536585,-0.14456928149339
2.969955654101996,-0.14827201339361645
3.0033259423503327,-0.15586123812779362
3.0366962305986696,-0.15937433249310204
3.070066518847007,-0.1511924709448181
3.1034368070953438,-0.12692239552696113
3.1368070953436806,-0.08632291687452076
3.170177383592018,-0.032577394323611335
3.203547671840355,0.0289578195820727
3.2369179600886917,0.09146925053656642
3.270288248337029,0.14664588337100268
3.303658536585366,0.18465803495400854
3.337028824833703,0.19534151921849935
3.37039911308204,0.1711864686648319
3.403769401330377,0.11138929742547728
3.437139689578714,0.024960452725544674
3.470509977827051,-0.06938015834542616
3.503880266075388,-0.14763202033966535
3.537250554323725,-0.18825303733301668
3.5706208425720622,-0.1802226630584975
3.603991130820399,-0.12780006019455134
3.637361419068736,-0.049545633301038755
3.6707317073170733,0.028299223546559775
3.70410199556541,0.08140234558271463
3.737472283813747,0.09591355685894895
3.7708425720620844,0.07258719011866525
3.8042128603104213,0.02507844418051394
3.8375831485587586,-0.02645372111894722
3.8709534368070955,-0.06348341090741243
3.9043237250554323,-0.07561290209548137
3.9376940133037697,-0.06304770029018146
3.9710643015521065,-0.034550226809237645
4.004434589800444,-0.002263437667569446
4.037804878048781,0.024076400073176105
4.071175166297118,0.04104158250500027
4.1045454545454545,0.05207548822851915
4.137915742793791,0.06478761312347725
4.171286031042128,0.08640201185604857
4.204656319290466,0.1194507822119226
4.238026607538803,0.1596082187296336
4.27139689578714,0.1966252537647685
4.304767184035477,0.21801374875629254
4.3381374722838135,0.213951880251014
4.371507760532151,0.18133484419892745
4.404878048780488,0.12525739471437533
4.438248337028825,0.057350115008373136
4.471618625277162,-0.008244505688352192
4.504988913525499,-0.059548573342874084
4.538359201773836,-0.0902927732844662
4.571729490022173,-0.1012194179130488
4.60509977827051,-0.09900599019825952
4.638470066518847,-0.09344947222693273
4.671840354767184,-0.09392024393676714
4.705210643015521,-0.10612164367999832
4.738580931263858,-0.13004018471426723
4.771951219512196,-0.1597101087401429
4.8053215077605325,-0.18500787709317942
4.838691796008869,-0.19512496365325482
4.872062084257206,-0.18275345476288937
4.905432372505543,-0.14757447480268962
4.93880266075388,-0.09758947130264418
4.972172949002218,-0.047326009041316064
5.005543237250555,-0.012976779168495399
5.0389135254988915,-0.005849813977900481
5.072283813747228,-0.026610969485825007
5.105654101995565,-0.06306166829798783
5.139024390243902,-0.09321009837728832
5.17239467849224,-0.09331115705636871
5.205764966740577,-0.04815249952682505
5.239135254988914,0.04071370447948656
5.2725055432372505,0.15289661412336117
5.305875831485587,0.25514017920318344
5.339246119733925,0.3137409166415579
5.372616407982262,0.30855521963160915
5.405986696230599,0.24238932516056902
5.439356984478936,0.14105338150126007
5.472727272727273,0.04330372103645314
5.5060975609756095,-0.015397733173398532
5.539467849223947,-0.01818005693667333
5.572838137472284,0.0259781219194917
5.606208425720621,0.08663369169167559
5.639578713968958,0.1260976294777425
5.672949002217295,0.11695111339637256
5.706319290465632,0.05468004550903017
5.7396895787139695,-0.040423311647955894
5.773059866962306,-0.13278057427425097
5.806430155210643,-0.18775493048898828
5.83980044345898,-0.186909650115517
5.873170731707317,-0.13545896919336636
5.906541019955654,-0.059083759501897905
5.939911308203992,0.00770850596620061
5.9732815964523285,0.035980315489272406
6.006651884700665,0.01327649064419363
6.040022172949002,-0.05289931912645324
6.073392461197339,-0.13937029411235904
6.106762749445676,-0.21657217546306082
6.140133037694014,-0.2587526716720541
6.173503325942351,-0.2515323130379298
6.2068736141906875,-0.194888780962588
6.240243902439024,-0.10137113311781717
6.273614190687361,0.009317272152140862
6.306984478935698,0.11736853361328015
6.340354767184036,0.20909909572740842
6.373725055432373,0.2800031093194638
6.40709534368071,0.3332428464182179
6.4404656319290465,0.3740736955920806
6.473835920177383,0.4028889091533501
6.507206208425721,0.41086417018128285
6.540576496674058,0.3814767339320399
6.573946784922395,0.2983249666964835
6.607317073170732,0.15593895381523948
6.640687361419069,-0.032179047403722114
6.674057649667406,-0.23343791832995392
6.707427937915743,-0.40537883480372944
6.74079822616408,-0.5107031168702424
6.774168514412417,-0.5312548133338398
6.807538802660754,-0.47436457478950533
6.840909090909091,-0.36867046245390395
6.874279379157428,-0.2516277956513865
6.9076496674057655,-0.15469626796365038
6.941019955654102,-0.092824066113137
6.974390243902439,-0.06227366917925801
7.007760532150776,-0.04660676221631667
7.041130820399113,-0.026983024012020265
7.07450110864745,0.008469260287905154
7.107871396895788,0.06019135885070121
7.1412416851441245,0.11867720795058921
7.174611973392461,0.17001189032074399
7.207982261640798,0.20213153935196027
7.241352549889135,0.20897317608356134
7.274722838137472,0.1914601363775627
7.30809312638581,0.15604743020066952
7.341463414634147,0.11231500956234061
7.3748337028824835,0.07069626701158895
7.40820399113082,0.04054465959384518
7.441574279379157,0.028262832799939734
7.474944567627494,0.03553016089717214
7.508314855875832,0.058372545100380625
7.541685144124169,0.08810514463386719
7.575055432372506,0.11450052860160326
7.6084257206208425,0.1301329910834514
7.641796008869179,0.1336767434133866
7.675166297117517,0.13000301143074008
7.708536585365854,0.12650929661181384
7.741906873614191,0.12742889172961355
7.775277161862528,0.12945390904221937
7.808647450110865,0.12168658704822695
7.842017738359202,0.09066237015689835
7.875388026607539,0.028181946588628954
7.908758314855876,-0.06226233051739559
7.942128603104213,-0.16431572747529022
7.97549889135255,-0.2540798555567454
8.008869179600888,-0.3096752437245936
8.042239467849225,-0.3203906571735345
8.075609756097561,-0.29080005129471237
8.108980044345898,-0.23776078536798478
8.142350332594235,-0.18189050949070382
8.175720620842572,-0.13795182481214815
8.209090909090909,-0.10901624474620741
8.242461197339246,-0.08713388638109218
8.275831485587583,-0.05973468353579043
8.30920177383592,-0.018055472720665856
8.342572062084257,0.036952587140723914
8.375942350332595,0.09420867835421547
8.409312638580932,0.13753481038271428
8.442682926829269,0.15329763080805628
8.476053215077606,0.13669505426329784
8.509423503325943,0.09373240829969408
8.54279379157428,0.03835940286503626
8.576164079822616,-0.013349742838368385
8.609534368070953,-0.04896850498976108
8.64290465631929,-0.06299632626957799
8.676274944567627,-0.05684165670207627
8.709645232815964,-0.036379749393623075
8.743015521064303,-0.00882282273012122
8.77638580931264,0.019511159903045028
8.809756097560976,0.043796249291205507
8.843126385809313,0.05995385562847744
8.87649667405765,0.06359922742124863
8.909866962305987,0.04988954668600182
8.943237250554324,0.015013945675691623
8.97660753880266,-0.04089787324314756
9.009977827050998,-0.11072521907883061
9.043348115299334,-0.17903738911888478
9.076718403547671,-0.22408339686502615
9.110088691796008,-0.223434077955921
9.143458980044347,-0.16189403117557644
9.176829268292684,-0.03885184322538565
9.21019955654102,0.12818400122270976
9.243569844789358,0.3061227310162435
9.276940133037694,0.4549537667156133
9.310310421286031,0.5399693461714928
9.343680709534368,0.5431193872419509
9.377050997782705,0.4689666062247368
9.410421286031042,0.3426501340993002
9.443791574279379,0.20052894978986938
9.477161862527716,0.07727876623415761
9.510532150776053,-0.0053599946968018175
9.543902439024391,-0.04394978283734672
9.577272727272728,-0.05141993611532413
9.610643015521065,-0.04957724453187013
9.644013303769402,-0.05977138598285222
9.677383592017739,-0.0954315591953302
9.710753880266076,-0.15864191495214683
9.744124168514412,-0.240911861540053
9.77749445676275,-0.32684642648317946
9.810864745011086,-0.3989475580602344
9.844235033259423,-0.4420736004671919
9.87760532150776,-0.4466835907008307
9.910975609756099,-0.4105334933947935
9.944345898004435,-0.33884343331249156
9.977716186252772,-0.2431375074074695
10.01108647450111,-0.13902695706521537
10.044456762749446,-0.04323000848426014
10.077827050997783,0.029809116200091437
10.11119733924612,0.07114729833579539
10.144567627494457,0.07960039489434907
10.177937915742794,0.062127883119369585
10.21130820399113,0.031807518156674326
10.244678492239467,0.0037296488275678883
10.278048780487804,-0.009855744949923247
10.311419068736143,-0.0032655750621674424
10.34478935698448,0.021543290763380546
10.378159645232817,0.05692848224090705
10.411529933481154,0.09353325376073694
10.44490022172949,0.124377673906398
10.478270509977827,0.14724955250559763
10.511640798226164,0.16454556906076376
10.545011086474501,0.18101691580282755
10.578381374722838,0.200781419234521
10.611751662971175,0.22502710302365783
10.645121951219512,0.25116635541248833
10.67849223946785,0.27337252720358013
10.711862527716187,0.28400390021417604
10.745232815964524,0.2755083639760229
10.778603104212861,0.24263073367095428
10.811973392461198,0.184658911650766
10.845343680709535,0.10700724626758244
10.878713968957872,0.0211208194300142
10.912084257206208,-0.057957824120225786
10.945454545454545,-0.11594652692847637
10.978824833702882,-0.14402711985014585
11.012195121951219,-0.14188077030016324
11.045565410199556,-0.11770547392265186
11.078935698447895,-0.08525292738008237
11.112305986696231,-0.059206768378761536
11.145676274944568,-0.0507313642968556
11.179046563192905,-0.06463352430083014
11.212416851441242,-0.09870153887798301
11.245787139689579,-0.14496810165090818
11.279157427937916,-0.1922147151693834
11.312527716186253,-0.22897902505382098
11.34589800443459,-0.24641978918179608
11.379268292682926,-0.240443997083401
11.412638580931263,-0.21250792174080138
11.4460088691796,-0.16865717860761698
11.479379157427939,-0.11687185541175417
11.512749445676276,-0.06360080801348347
11.546119733924613,-0.011107984177805265
11.57949002217295,0.042693818343967085
11.612860310421286,0.10126095119771994
11.646230598669623,0.16443164209110717
11.67960088691796,0.22419969546318466
11.712971175166297,0.2643159973269571
11.746341463414634,0.2652273177984073
11.77971175166297,0.21301044153356138
11.813082039911308,0.10829715153442751
11.846452328159646,-0.029675244366674774
11.879822616407983,-0.16701900912469222
11.91319290465632,-0.26654981768091784
11.946563192904657,-0.3020042057913841
11.979933481152994,-0.26862462392932857
12.01330376940133,-0.18491598606462084
12.046674057649668,-0.08449245549420106
12.080044345898004,-0.0017607952600533975
12.113414634146341,0.041882205172804755
12.146784922394678,0.04518249232706953
12.180155210643015,0.024889710167020625
12.213525498891352,0.006264760455302546
12.24689578713969,0.011239890916204032
12.280266075388028,0.049539559493372104
12.313636363636364,0.11589500782118822
12.347006651884701,0.19337185967938006
12.380376940133038,0.2604611666027461
12.413747228381375,0.2988021345964781
12.447117516629712,0.2989646657418501
12.480487804878049,0.2628282796495651
12.513858093126386,0.20216350836148453
12.547228381374723,0.13397876110328336
12.58059866962306,0.07416724612824746
12.613968957871396,0.031804219264001635
12.647339246119735,0.006538899770846038
12.680709534368072,-0.009589411827648678
12.714079822616409,-0.026686997026258076
12.747450110864746,-0.05069613733828992
12.780820399113082,-0.07967947085136406
12.81419068736142,-0.10479675890665271
12.847560975609756,-0.1154390640046037
12.880931263858093,-0.10563024103977198
12.91430155210643,-0.07813479299910601
12.947671840354767,-0.04405066071460699
12.981042128603104,-0.01813487423763488
13.014412416851442,-0.012277031913081125
13.04778270509978,-0.030307456509386044
13.081152993348116,-0.06648761231480031
13.114523281596453,-0.10819044686542903
13.14789356984479,-0.141408278224335
13.181263858093127,-0.15663107837477871
13.214634146341464,-0.15265265240962317
13.2480044345898,-0.13683221621102998
13.281374722838137,-0.12179611900086357
13.314745011086474,-0.11994703002834496
13.348115299334811,-0.13797550709855322
13.381485587583148,-0.1735608325467034
13.414855875831487,-0.21560030465993368
13.448226164079824,-0.2479143247632658
13.48159645232816,-0.2549639816970346
13.514966740576497,-0.2272692482345456
13.548337028824834,-0.16433101733858715
13.581707317073171,-0.0739550669016575
13.615077605321508,0.03148987730584058
13.648447893569845,0.13992617961568524
13.681818181818182,0.24309005183704085
13.715188470066519,0.3370255374187575
13.748558758314855,0.41951857914346236
13.781929046563192,0.4862094004754365
13.815299334811531,0.5280585621370695
13.848669623059868,0.5323561460734311
13.882039911308205,0.4876415858733409
13.915410199556542,0.3905624291858728
13.948780487804878,0.2510882036202819
13.982150776053215,0.09266598316450914
14.015521064301552,-0.05393404873202096
14.048891352549889,-0.1611104968863607
14.082261640798226,-0.21470295788287486
14.115631929046563,-0.21909751963358753
14.1490022172949,-0.19446322950739783
14.182372505543238,-0.16723775277221928
14.215742793791575,-0.15834244822338356
14.249113082039912,-0.17466606194841375
14.282483370288249,-0.2075515289915229
14.315853658536586,-0.23840108262258036
14.349223946784923,-0.24809367517616884
14.38259423503326,-0.2254652220633185
14.415964523281596,-0.17119016224561495
14.449334811529933,-0.09614703819285372
14.48270509977827,-0.01608914436766688
14.516075388026607,0.05425134604829956
14.549445676274944,0.10504437073123218
14.582815964523283,0.13237528555025482
14.61618625277162,0.13722838557756104
14.649556541019956,0.12396087426379909
14.682926829268293,0.09928121744666143
14.71629711751663,0.07165328321223505
14.749667405764967,0.050272312504741686
14.783037694013304,0.042895955574216584
14.81640798226164,0.05278312672069491
14.849778270509978,0.07610414413507424
14.883148558758315,0.1015829427905769
14.916518847006651,0.11337294003185182
14.949889135254988,0.0965669693548651
14.983259423503327,0.04322575448280825
15.016629711751664,-0.043673182977367886
15.05,-0.15009098460520467
15.083370288248338,-0.25460801684263734
15.116740576496674,-0.33440795397159057
15.150110864745011,-0.3714315220219183
15.183481152993348,-0.35695513088455183
15.216851441241685,-0.2937012713869655
15.250221729490022,-0.19528133488386681
15.283592017738359,-0.08310840021832717
15.316962305986696,0.01882205032151215
15.350332594235034,0.09034552289406694
15.383702882483371,0.12102296634696341
15.417073170731708,0.11333911004100158
15.450443458980045,0.08152671613635938
15.483813747228382,0.04596775494161912
15.517184035476719,0.02524506206278602
15.550554323725056,0.029344899464901403
15.583924611973393,0.05721761162716953
15.61729490022173,0.09977632053918678
15.650665188470066,0.14649439911777057
15.684035476718403,0.19173090857920624
15.71740576496674,0.2370537255953846
15.750776053215079,0.28816119754553704
15.784146341463416,0.34820494626731646
15.817516629711752,0.41153632110281774
15.85088691796009,0.4618730132170867
15.884257206208426,0.47662971430494666
15.917627494456763,0.43589051011518054
15.9509977827051,0.3319296537900781
15.984368070953437,0.1746429269251667
16.017738359201775,-0.00996053908606804
16.05110864745011,-0.1878158279727606
16.08447893569845,-0.3279634844639223
16.117849223946784,-0.4120429654841269
16.151219512195123,-0.43836720068863144
16.184589800443458,-0.41955413061471075
16.217960088691797,-0.3756245620781805
16.251330376940132,-0.3261305523921621
16.28470066518847,-0.28459806261043313
16.31807095343681,-0.25679584399606104
16.351441241685144,-0.24224109573374134
16.384811529933483,-0.23705909805202227
16.418181818181818,-0.23632631421842903
16.451552106430157,-0.23504608929879417
16.48492239467849,-0.22814323369713632
16.51829268292683,-0.21054318064553465
16.551662971175165,-0.17817409974723658
16.585033259423504,-0.12981503370835976
16.61840354767184,-0.06874182959142511
16.651773835920178,-0.0027806871405317867
16.685144124168513,0.05799574370147863
16.71851441241685,0.10535354143171252
16.75188470066519,0.13688976890040028
16.785254988913525,0.15766121246603754
16.818625277161864,0.17810677043592735
16.8519955654102,0.20882237609918156
16.885365853658538,0.25460780799431126
16.918736141906873,0.3108944717702266
16.95210643015521,0.3646405602582965
16.985476718403547,0.3995001374706376
17.018847006651885,0.4027901555028252
17.05221729490022,0.37081185307742004
17.08558758314856,0.3099916511089472
17.118957871396898,0.2335441733196624
