Frequency (Hz),Amplitude
0.0,6.2682406800848725
0.019801980198019802,6.266914875458625
0.039603960396039604,6.262941071543216
0.0594059405940594,6.25633010003075
0.07920792079207921,6.247100019707696
0.09900990099009901,6.235276125260953
0.1188118811881188,6.220890959314173
0.13861386138613863,6.20398432738888
0.15841584158415842,6.184603315379107
0.1782178217821782,6.162802309007579
0.19801980198019803,6.138643014593355
0.21782178217821782,6.112194480300615
0.2376237623762376,6.083533116853397
0.25742574257425743,6.052742716486747
0.27722772277227725,6.019914468657518
0.297029702970297,5.985146970754352
0.31683168316831684,5.948546231722441
0.33663366336633666,5.910225666151581
0.3564356435643564,5.87030607596402
0.37623762376237624,5.8289156163797005
0.39603960396039606,5.786189742332893
0.4158415841584158,5.742271130967026
0.43564356435643564,5.697309575251307
0.45544554455445546,5.6514618431523855
0.4752475247524752,5.604891496171503
0.495049504950495,5.557768660442821
0.5148514851485149,5.510269743009153
0.5346534653465347,5.462577085381447
0.5544554455445545,5.414878546092324
0.5742574257425742,5.367367003722763
0.594059405940594,5.320239771876695
0.613861386138614,5.273697917867573
0.6336633663366337,5.227945477538456
0.6534653465346534,5.183188559737298
0.6732673267326733,5.13963433558317
0.6930693069306931,5.097489909848227
0.7128712871287128,5.056961074585497
0.7326732673267327,5.018250948565647
0.7524752475247525,4.9815585101205855
0.7722772277227723,4.9470770355476725
0.7920792079207921,4.9149924601726775
0.8118811881188118,4.885481684301278
0.8316831683168316,4.858710851350202
0.8514851485148516,4.834833630126772
0.8712871287128713,4.813989537172299
0.891089108910891,4.796302337942477
0.9108910891089109,4.781878567030621
0.9306930693069307,4.770806207372241
0.9504950495049505,4.763153566219862
0.9702970297029703,4.758968381594561
0.99009900990099,4.75827718699943
1.00990099009901,4.761084954668159
1.0297029702970297,4.767375028912579
1.0495049504950495,4.777109351723293
1.0693069306930694,4.790228973238073
1.0891089108910892,4.806654830603206
1.108910891089109,4.826288770648502
1.1287128712871286,4.849014785124744
1.1485148514851484,4.874700422325088
1.1683168316831685,4.90319833589403
1.188118811881188,4.934347930532678
1.2079207920792079,4.967977065006983
1.227722772277228,5.003903775122852
1.2475247524752475,5.0419379828306825
1.2673267326732673,5.081883162014458
1.2871287128712872,5.123537936446683
1.3069306930693068,5.166697590523185
1.3267326732673268,5.2111554784445175
1.3465346534653466,5.256704322257989
1.3663366336633662,5.303137393452681
1.3861386138613863,5.350249576506488
1.405940594059406,5.397838315869254
1.4257425742574257,5.445704450326713
1.4455445544554455,5.493652940554462
1.4653465346534653,5.541493496992771
1.4851485148514851,5.589041116019756
1.504950495049505,5.636116532846666
1.5247524752475248,5.682546599677303
1.5445544554455446,5.728164597537624
1.5643564356435644,5.77281048985352
1.5841584158415842,5.816331125390482
1.6039603960396038,5.8585803976178275
1.6237623762376237,5.899419366957728
1.6435643564356437,5.9387163517585515
1.6633663366336633,5.976346993215047
1.683168316831683,6.012194298861679
1.7029702970297032,6.046148668701952
1.7227722772277227,6.078107907513921
1.7425742574257426,6.107977226393002
1.7623762376237624,6.135669236161292
1.782178217821782,6.161103934885546
1.801980198019802,6.18420869140374
1.8217821782178218,6.204918226458921
1.8415841584158414,6.2231745927762265
1.8613861386138615,6.2389271551904395
1.881188118811881,6.252132571734269
1.900990099009901,6.2627547764263545
1.920792079207921,6.270764964350923
1.9405940594059405,6.276141579492746
1.9603960396039604,6.2788703056790744
1.98019801980198,6.278944060880419
2.0,6.276362995031779
2.01980198019802,6.271134491451589
2.0396039603960396,6.263273171853891
2.0594059405940595,6.252800904867779
2.0792079207920793,6.239746817892976
2.099009900990099,6.224147312029081
2.118811881188119,6.20604607971472
2.1386138613861387,6.185494124599082
2.1584158415841586,6.162549783037437
2.1782178217821784,6.13727874645222
2.1980198019801978,6.109754083626738
2.217821782178218,6.080056261797315
2.237623762376238,6.04827316517639
2.257425742574257,6.014500109271239
2.2772277227722775,5.978839849056186
2.297029702970297,5.941402578706934
2.3168316831683167,5.9023059202129575
2.336633663366337,5.86167489774363
2.3564356435643563,5.819641894158496
2.376237623762376,5.776346585521527
2.3960396039603964,5.731935848909188
2.4158415841584158,5.686563638200139
2.4356435643564356,5.640390821912893
2.455445544554456,5.59358497653406
2.4752475247524752,5.546320128179159
2.495049504950495,5.498776434880289
2.514851485148515,5.451139801340614
2.5346534653465347,5.403601417683494
2.5544554455445545,5.356357213610274
2.5742574257425743,5.309607219531085
2.594059405940594,5.263554826719182
2.6138613861386135,5.218405939436087
2.633663366336634,5.174368013356279
2.6534653465346536,5.131648976552659
2.673267326732673,5.090456031839477
2.6930693069306932,5.050994342432582
2.712871287128713,5.013465606671712
2.7326732673267324,4.978066531897952
2.7524752475247527,4.944987222385564
2.7722772277227725,4.914409501317039
2.792079207920792,4.886505191932553
2.811881188118812,4.861434387886866
2.8316831683168315,4.8393437471743725
2.8514851485148514,4.820364847377663
2.8712871287128716,4.80461264210599
2.891089108910891,4.792184059011201
2.910891089108911,4.783156778469469
2.9306930693069306,4.777588228787972
2.9504950495049505,4.775514828661505
2.9702970297029703,4.776951500748059
2.99009900990099,4.781891471984597
3.00990099009901,4.790306367081369
3.0297029702970297,4.802146592061698
3.0495049504950495,4.817341995334614
3.0693069306930694,4.835802785165732
3.089108910891089,4.857420675037548
3.108910891089109,4.882070222641943
3.128712871287129,4.909610324356847
3.148514851485148,4.939885825105914
3.1683168316831685,4.972729203416574
3.1881188118811883,5.007962293085738
3.2079207920792077,5.045398005849392
3.227722772277228,5.08484202349288
3.2475247524752473,5.126094432573272
3.267326732673267,5.168951280010258
3.2871287128712874,5.213206032927944
3.3069306930693068,5.258650931045294
3.3267326732673266,5.305078224423813
3.346534653465347,5.352281293359953
3.366336633663366,5.4000556505819475
3.386138613861386,5.448199828655251
3.4059405940594063,5.496516157631938
3.4257425742574257,5.544811439540987
3.4455445544554455,5.592897527371001
3.4653465346534653,5.6405918168159745
3.485148514851485,5.687717659313669
3.504950495049505,5.734104704878068
3.5247524752475248,5.779589182978478
3.5445544554455446,5.824014129310157
3.564356435643564,5.8672295657840685
3.5841584158415842,5.90909264048004
3.603960396039604,5.94946773369183
3.6237623762376234,5.9882265355714654
3.6435643564356437,6.025248100272306
3.6633663366336635,6.060418880910773
3.683168316831683,6.093632749124399
3.702970297029703,6.124791002504264
3.722772277227723,6.153802362726233
3.7425742574257423,6.180582966797762
3.762376237623762,6.205056353474426
3.7821782178217824,6.227153446580221
3.801980198019802,6.246812536686017
3.8217821782178216,6.26397926235606
3.841584158415842,6.278606591961423
3.8613861386138613,6.290654806876299
3.881188118811881,6.300091486715254
3.9009900990099013,6.3068914971326855
3.9207920792079207,6.311036980586417
3.9405940594059405,6.312517350362239
3.96039603960396,6.311329288061266
3.98019801980198,6.307476744665079
4.0,6.300970945210525
4.01980198019802,6.2918303970241345
4.03960396039604,6.280080901382426
4.0594059405940595,6.265755568375435
4.079207920792079,6.248894834653417
4.099009900990099,6.229546483628196
4.118811881188119,6.207765667576513
4.138613861386139,6.183614930950773
4.158415841584159,6.15716423403777
4.178217821782178,6.128490975915937
4.198019801980198,6.09768001544108
4.217821782178218,6.0648236887367615
4.237623762376238,6.030021821374194
4.257425742574258,5.993381733094169
4.2772277227722775,5.955018232547781
4.297029702970297,5.915053599110624
4.316831683168317,5.873617548356957
4.336633663366336,5.830847177265982
4.356435643564357,5.786886884675704
4.376237623762377,5.74188826190744
4.3960396039603955,5.696009947865648
4.415841584158416,5.649417442289406
4.435643564356436,5.602282870214323
4.455445544554455,5.554784690125893
4.475247524752476,5.50710733778221
4.4950495049504955,5.459440797301742
4.514851485148514,5.411980090903087
4.534653465346535,5.36492467871076
4.554455445544555,5.318477760373608
4.574257425742574,5.272845470954364
4.594059405940594,5.228235964716217
4.613861386138614,5.184858382124909
4.633663366336633,5.1429216976630165
4.653465346534653,5.10263344895468
4.673267326732674,5.064198351232171
4.693069306930693,5.027816805306753
4.712871287128713,4.9936833118504245
4.732673267326733,4.961984809808113
4.752475247524752,4.9328989619348125
4.772277227722772,4.906592415520787
4.792079207920793,4.883219071011172
4.811881188118812,4.8629183950919685
4.8316831683168315,4.845813817543068
4.851485148514852,4.832011252418648
4.871287128712871,4.821597783638029
4.891089108910891,4.81464055268789
4.910891089108912,4.811185881813041
4.930693069306931,4.811258659921595
4.9504950495049505,4.8148620107187865
4.97029702970297,4.821977253717781
4.99009900990099,4.8325641592698565
5.00990099009901,4.846561489184014
5.02970297029703,4.8638878054484564
5.0495049504950495,4.884442521553659
5.069306930693069,4.908107164383568
5.089108910891089,4.934746809886789
5.108910891089109,4.964211652911673
5.128712871287129,4.996338670683998
5.148514851485149,5.030953340282388
5.1683168316831685,5.067871372876843
5.188118811881188,5.106900431118914
5.207920792079208,5.147841800553148
5.227722772277227,5.190491990902639
5.247524752475248,5.23464424823958
5.267326732673268,5.280089964104438
5.2871287128712865,5.326619972364374
5.306930693069307,5.374025728845419
5.326732673267327,5.4221003724356915
5.346534653465346,5.470639669394861
5.366336633663367,5.519442845017521
5.3861386138613865,5.568313308616656
5.405940594059405,5.617059279074305
5.425742574257426,5.665494319017039
5.445544554455446,5.713437786089576
5.465346534653465,5.760715209894411
5.485148514851486,5.807158603009904
5.504950495049505,5.852606714156901
5.524752475247524,5.896905231110215
5.544554455445545,5.939906940392555
5.564356435643565,5.981471850183275
5.584158415841584,6.0214672822507165
5.603960396039604,6.059767938100639
5.623762376237624,6.096255943937215
5.643564356435643,6.130820878472033
5.663366336633663,6.163359787095294
5.683168316831684,6.193777185447833
5.702970297029703,6.22198505500188
5.7227722772277225,6.247902832875317
5.742574257425743,6.2714573977631884
5.762376237623762,6.292583053571802
5.782178217821782,6.311221512079411
5.801980198019803,6.32732187572104
5.821782178217822,6.3408406213985735
5.841584158415841,6.351741586047605
5.861386138613861,6.359995954545861
5.881188118811881,6.365582250420274
5.900990099009901,6.368486329697723
5.920792079207921,6.368701378144577
5.9405940594059405,6.36622791204918
5.96039603960396,6.3610737826158505
5.98019801980198,6.353254183956216
6.0,6.342791664579741
6.01980198019802,6.3297161421984605
6.03960396039604,6.314064921565766
6.0594059405940595,6.295882714965262
6.079207920792079,6.275221664846705
6.099009900990099,6.25214136797114
6.118811881188119,6.2267089002710145
6.138613861386139,6.198998841450234
6.158415841584159,6.169093298140113
6.178217821782178,6.137081924185952
6.198019801980198,6.103061936361223
6.217821782178218,6.0671381234892285
6.237623762376237,6.0294228465920545
6.257425742574258,5.990036027281002
6.2772277227722775,5.949105121150652
6.297029702970296,5.906765072439334
6.316831683168317,5.863158245676084
6.336633663366337,5.818434329450899
6.356435643564356,5.77275020683219
6.376237623762377,5.726269786324542
6.396039603960396,5.67916378663054
6.415841584158415,5.6316094678777855
6.435643564356436,5.583790301429467
6.455445544554456,5.53589556995486
6.475247524752475,5.488119889145059
6.495049504950495,5.440662642378649
6.514851485148515,5.393727319838186
6.534653465346534,5.347520754124008
6.554455445544554,5.302252245384158
6.574257425742575,5.258132570450325
6.594059405940594,5.215372872506778
6.6138613861386135,5.174183430469064
6.633663366336634,5.134772310536602
6.653465346534653,5.0973439062903365
6.673267326732673,5.062097378173971
6.693069306930694,5.029225008104163
6.712871287128713,4.998910490121332
6.732673267326732,4.971327183174708
6.752475247524753,4.946636357032009
6.772277227722772,4.924985466573542
6.792079207920792,4.906506493011303
6.811881188118813,4.891314392515764
6.8316831683168315,4.8795056930350835
6.851485148514851,4.871157278537786
6.871287128712871,4.866325396402979
6.891089108910891,4.865044918270699
6.910891089108911,4.867328877550034
6.930693069306931,4.873168298316058
6.9504950495049505,4.882532320980985
6.97029702970297,4.895368620458082
6.99009900990099,4.911604103134063
7.00990099009901,4.931145860389817
7.02970297029703,4.953882349142601
7.0495049504950495,4.979684764288434
7.069306930693069,5.008408564218432
7.089108910891089,5.039895108828175
7.108910891089109,5.0739733695518225
7.128712871287128,5.11046167272667
7.148514851485149,5.149169440735189
7.1683168316831685,5.1898988995343345
7.188118811881187,5.232446726006111
7.207920792079208,5.276605613704693
7.227722772277228,5.3221657407293925
7.247524752475247,5.368916128371734
7.267326732673268,5.416645883681603
7.287128712871287,5.465145323048111
7.306930693069306,5.514206977228306
7.326732673267327,5.563626480962121
7.346534653465347,5.613203352403128
7.366336633663366,5.66274166911933
7.3861386138613865,5.712050648438061
7.405940594059406,5.760945140498981
7.425742574257425,5.8092460426124415
7.445544554455446,5.856780643471975
7.465346534653466,5.903382905504707
7.485148514851485,5.948893693222821
7.504950495049505,5.993160954912804
7.524752475247524,6.036039864409244
7.544554455445544,6.077392929079427
7.564356435643565,6.117090069521143
7.584158415841584,6.155008675866494
7.603960396039604,6.191033645004248
7.623762376237624,6.225057402490981
7.643564356435643,6.256979912421985
7.663366336633663,6.286708678079914
7.683168316831684,6.314158735772117
7.702970297029703,6.339252643905741
7.7227722772277225,6.361920469030547
7.742574257425743,6.3820997702996465
7.762376237623762,6.399735583555245
7.782178217821782,6.414780406034709
7.801980198019803,6.4271941825103145
7.821782178217822,6.436944293517265
7.841584158415841,6.444005546187958
7.861386138613862,6.448360168089883
7.881188118811881,6.44999780435887
7.900990099009901,6.448915518322969
7.92079207920792,6.445117795723519
7.9405940594059405,6.438616552554902
7.96039603960396,6.429431146459907
7.980198019801979,6.417588391530656
8.0,6.403122576272464
8.01980198019802,6.386075484386274
8.03960396039604,6.366496417911196
8.05940594059406,6.3444422221391195
8.07920792079208,6.319977311563786
8.099009900990099,6.293173695954447
8.118811881188119,6.264111005444718
8.138613861386139,6.232876513296538
8.158415841584159,6.199565154734065
8.178217821782178,6.164279539938166
8.198019801980198,6.127129958946088
8.217821782178218,6.0882343758105675
8.237623762376238,6.047718408934319
8.257425742574258,6.00571529401185
8.277227722772277,5.962365825479418
8.297029702970297,5.9178182718014725
8.316831683168317,5.87222825931438
8.336633663366337,5.825758618717412
8.356435643564357,5.778579187663402
8.376237623762377,5.730866562279323
8.396039603960396,5.682803789871752
8.415841584158416,5.63457999457969
8.435643564356436,5.586389927376853
8.455445544554456,5.538433431650641
8.475247524752476,5.490914815661914
8.495049504950495,5.444042123588232
8.514851485148515,5.398026297649356
8.534653465346535,5.353080225084273
8.554455445544555,5.309417665561956
8.574257425742575,5.267252057022492
8.594059405940595,5.226795200994413
8.613861386138613,5.188255832119419
8.633663366336634,5.1518380808963515
8.653465346534654,5.1177398434358
8.673267326732672,5.086151077140479
8.693069306930694,5.05725204647385
8.712871287128714,5.031211548071732
8.732673267326732,5.00818514905931
8.752475247524753,4.988313476200031
8.772277227722773,4.971720596063763
8.792079207920791,4.958512527430564
8.811881188118813,4.948775926386686
8.831683168316832,4.942576981869959
8.85148514851485,4.939960554766419
8.871287128712872,4.940949587188083
8.891089108910892,4.945544800562735
8.91089108910891,4.953724692069775
8.930693069306932,4.965445829290118
8.950495049504951,4.980643433286811
8.97029702970297,4.999232231277794
8.990099009900991,5.021107552127549
9.00990099009901,5.046146631491645
9.029702970297029,5.07421008887918
9.04950495049505,5.105143536282517
9.06930693069307,5.138779277337627
9.089108910891088,5.174938057065858
9.10891089108911,5.213430824846283
9.12871287128713,5.254060477049478
9.148514851485148,5.296623550367894
9.16831683168317,5.340911841949238
9.188118811881187,5.386713937652417
9.207920792079207,5.433816634825238
9.227722772277229,5.4820062507333125
9.247524752475247,5.5310698120004895
9.267326732673267,5.580796124058153
9.287128712871288,5.630976722607037
9.306930693069306,5.681406711471826
9.326732673267326,5.731885493012604
9.346534653465348,5.782217398504134
9.366336633663366,5.832212226674541
9.386138613861386,5.881685698984225
9.405940594059407,5.930459840297741
9.425742574257425,5.978363293427825
9.445544554455445,6.025231575673123
9.465346534653467,6.0709072849858385
9.485148514851485,6.115240262837576
9.504950495049505,6.1580877202393705
9.524752475247526,6.199314332743405
9.544554455445544,6.238792309633295
9.564356435643564,6.2764014419114575
9.584158415841586,6.312029133128668
9.603960396039604,6.345570416578481
9.623762376237623,6.3769279619019565
9.643564356435645,6.406012073717502
9.663366336633663,6.432740684505597
9.683168316831683,6.457039343637631
9.702970297029704,6.478841204138116
9.722772277227723,6.498087008508294
9.742574257425742,6.514725074711276
9.762376237623764,6.52871128322198
9.782178217821782,6.540009065874387
9.801980198019802,6.548589397090416
9.821782178217823,6.554430787946041
9.841584158415841,6.557519283415872
9.861386138613861,6.55784846303598
9.881188118811881,6.555419445130918
9.900990099009901,6.550240894662553
9.92079207920792,6.542329034672237
9.94059405940594,6.531707661199707
9.96039603960396,6.518408161470444
9.98019801980198,6.502469535043119
10.0,6.483938417497627
10.01980198019802,6.462869106118901
10.03960396039604,6.439323586887578
10.05940594059406,6.413371561922838
10.07920792079208,6.3850904763313565
10.099009900990099,6.354565543194509
10.118811881188119,6.321889765171253
10.138613861386139,6.287163950901162
10.158415841584159,6.250496724058538
10.178217821782178,6.212004522530158
10.198019801980198,6.171811584765033
10.217821782178218,6.130049919872212
10.237623762376238,6.086859257523594
10.257425742574258,6.042386973155518
10.277227722772277,5.996787983361521
10.297029702970297,5.950224605739001
10.316831683168317,5.90286637680901
10.336633663366337,5.854889820991832
10.356435643564357,5.806478163018413
10.376237623762377,5.75782097562475
10.396039603960396,5.709113753956037
10.415841584158416,5.660557407853507
10.435643564356436,5.612357663170309
10.455445544554454,5.56472436353251
10.475247524752476,5.517870664603338
10.495049504950495,5.472012113998244
10.514851485148514,5.427365611610153
10.534653465346535,5.384148247300996
10.554455445544555,5.342576015741686
10.574257425742573,5.302862411654358
10.594059405940595,5.265216912803062
10.613861386138614,5.229843362719068
10.633663366336632,5.196938270201585
10.653465346534654,5.1666890479088154
10.673267326732674,5.139272217589137
10.693069306930692,5.114851614385255
10.712871287128714,5.093576626822758
10.732673267326733,5.0755805122042945
10.752475247524751,5.06097882882367
10.772277227722773,5.049868026399494
10.792079207920793,5.042324234206663
10.81188118811881,5.038402282483061
10.831683168316832,5.038134986883189
10.851485148514852,5.041532718271663
10.87128712871287,5.048583271374634
10.891089108910892,5.059252036231659
