Time (s),Filtered Signal
0.0,-0.056014824594704006
0.03337004405286344,-0.3415462689303993
0.06674008810572687,-0.5886532177264006
0.10011013215859031,-0.7644375512483562
0.13348017621145375,-0.8471845388215119
0.16685022026431717,-0.83423363862366
0.20022026431718062,-0.7469049776267742
0.23359030837004408,-0.6273675937133418
0.2669603524229075,-0.525531124140141
0.3003303964757709,-0.479872802696789
0.33370044052863435,-0.500872891359761
0.3670704845814978,-0.5659061832751507
0.40044052863436125,-0.6292504056684192
0.43381057268722467,-0.6430577583367117
0.46718061674008815,-0.5792566969016988
0.5005506607929515,-0.44185067459768557
0.533920704845815,-0.26414266855068125
0.5672907488986785,-0.09302495067359032
0.6006607929515418,0.03155349036929583
0.6340308370044053,0.09236099299084538
0.6674008810572687,0.09951674333911747
0.7007709251101322,0.08327999911298309
0.7341409691629956,0.0794640075536802
0.767511013215859,0.11444076480825037
0.8008810572687225,0.1959433730919008
0.834251101321586,0.31268373101197067
0.8676211453744493,0.44176352269267805
0.9009911894273128,0.5596468012285257
0.9343612334801763,0.651345277442623
0.9677312775330397,0.7138483045433022
1.001101321585903,0.7530082689312798
1.0344713656387665,0.7764588439818749
1.06784140969163,0.7869264639246867
1.1012114537444935,0.7795671952740431
1.134581497797357,0.744271803293214
1.1679515418502202,0.6709692975419618
1.2013215859030837,0.5546123616954315
1.2346916299559472,0.39738256346605516
1.2680616740088106,0.2078274227365905
1.3014317180616741,-0.0015227011315307943
1.3348017621145374,-0.21619771869690677
1.3681718061674009,-0.42076177752426375
1.4015418502202643,-0.5994345997203342
1.4349118942731278,-0.737622291611925
1.4682819383259913,-0.8248654657140434
1.5016519823788548,-0.8582668761854193
1.535022026431718,-0.844413146411861
1.5683920704845815,-0.7979676910113811
1.601762114537445,-0.7365430116040813
1.6351321585903085,-0.6734724536534796
1.668502202643172,-0.6116415029308213
1.7018722466960352,-0.5416961561533593
1.7352422907488987,-0.4463771719735574
1.7686123348017622,-0.3098960906197806
1.8019823788546256,-0.12841103971413098
1.8353524229074891,0.0836341054587259
1.8687224669603526,0.29518605429669637
1.9020925110132159,0.4684340746856716
1.9354625550660793,0.5727602460167145
1.9688325991189428,0.5963830750689103
2.002202643171806,0.5503038004746463
2.0355726872246698,0.4629540070453444
2.068942731277533,0.36833518646767693
2.1023127753303967,0.29311387034718217
2.13568281938326,0.24800033433191818
2.1690528634361232,0.22632167976461415
2.202422907488987,0.20950560128657023
2.23579295154185,0.17670032488440482
2.269162995594714,0.11473146811936645
2.302533039647577,0.024957973232248618
2.3359030837004404,-0.07522234951588236
2.369273127753304,-0.1569507359142645
2.4026431718061674,-0.18961283894107167
2.436013215859031,-0.15289151634106604
2.4693832599118943,-0.04684240340296209
2.5027533039647576,0.1046434826001962
2.5361233480176213,0.25976475633329316
2.5694933920704845,0.3729320634415932
2.6028634361233483,0.41148659116273745
2.6362334801762115,0.3672032235662585
2.6696035242290748,0.25669411816349186
2.7029735682819385,0.1104664358272709
2.7363436123348017,-0.043252399094606375
2.7697136563876654,-0.19060581576885
2.8030837004405287,-0.33302224374624545
2.8364537444933924,-0.4765571617597348
2.8698237885462556,-0.6166554086756965
2.903193832599119,-0.7289264625148341
2.9365638766519826,-0.7738054790207283
2.969933920704846,-0.7149787349403224
3.0033039647577096,-0.5425095458260727
3.036674008810573,-0.28708751962357953
3.070044052863436,-0.015044301267909716
3.1034140969162998,0.19631931004901035
3.136784140969163,0.2922347673800732
3.1701541850220267,0.26584913583300873
3.20352422907489,0.1616933905405351
3.2368942731277532,0.054544524586958035
3.270264317180617,0.013996954878403921
3.30363436123348,0.0726161462952385
3.337004405286344,0.21336797090617152
3.370374449339207,0.3814311005050543
3.4037444933920704,0.5126282730101904
3.437114537444934,0.5627852819515973
3.4704845814977974,0.5234355423994818
3.503854625550661,0.4181552437066905
3.5372246696035243,0.28482498647725757
3.5705947136563876,0.15584498540555286
3.6039647577092513,0.04735819714206525
3.6373348017621145,-0.0387489950926471
3.6707048458149782,-0.10484973190759489
3.7040748898678415,-0.14878473964251063
3.737444933920705,-0.16334930984883037
3.7708149779735685,-0.1443223771610067
3.8041850220264317,-0.10054019896185833
3.8375550660792954,-0.0573139738086887
3.8709251101321587,-0.048337477901501134
3.9042951541850224,-0.09875836073730183
3.9376651982378856,-0.2085584989764596
3.971035242290749,-0.3465947162320284
4.004405286343612,-0.46050937842637196
4.037775330396476,-0.4990342965332641
4.0711453744493395,-0.4360352784779419
4.104515418502203,-0.28418492573783716
4.137885462555066,-0.09120127911888003
4.171255506607929,0.07978744453328988
4.2046255506607935,0.17665964089924996
4.237995594713657,0.1796014785637507
4.27136563876652,0.10823020588845719
4.304735682819383,0.012158414436512645
4.3381057268722465,-0.050141441348942176
4.371475770925111,-0.034728173688022834
4.404845814977974,0.07172466830041178
4.438215859030837,0.24868264717526264
4.4715859030837,0.45090805491301367
4.504955947136564,0.6246697309710031
4.538325991189428,0.7239370511201174
4.571696035242291,0.7212322734022318
4.605066079295154,0.6114363523516776
4.638436123348018,0.410045670652206
4.671806167400881,0.1485648023090064
4.705176211453745,-0.13116511431343156
4.738546255506608,-0.38356552792858956
4.7719162995594715,-0.5675002543304843
4.805286343612335,-0.6557658507536059
4.838656387665198,-0.643554258463082
4.872026431718062,-0.5519641727328272
4.905396475770925,-0.4231427650243311
4.938766519823789,-0.3066849782840836
4.972136563876652,-0.24130949778147304
5.005506607929515,-0.23921958058142911
5.038876651982379,-0.28070029771701355
5.072246696035243,-0.3226464057771275
5.105616740088106,-0.31828742682031014
5.138986784140969,-0.2394993461346747
5.172356828193832,-0.09103042038781324
5.2057268722466965,0.09070572311672989
5.23909691629956,0.25415026109401456
5.272466960352423,0.3564335374614038
5.305837004405286,0.3825620711282762
5.3392070484581495,0.3503567946606923
5.372577092511014,0.29908372347695594
5.405947136563877,0.2682660384432114
5.43931718061674,0.2779688018032846
5.4726872246696034,0.32041478037288834
5.506057268722468,0.3662633425484748
5.539427312775331,0.38115937471868744
5.572797356828194,0.3434558299537378
5.606167400881057,0.25447145556912665
5.639537444933921,0.13735841184073933
5.672907488986785,0.02656769758061233
5.706277533039648,-0.0461829207186576
5.739647577092511,-0.06317259262700953
5.7730176211453745,-0.02548427864433458
5.806387665198238,0.04881791645585535
5.839757709251102,0.1308393700698396
5.873127753303965,0.18847396436273087
5.9064977973568284,0.1935515653445179
5.939867841409692,0.12781298310620037
5.973237885462555,-0.012422802060164701
6.006607929515419,-0.2133675844078447
6.039977973568282,-0.4437992243935045
6.073348017621146,-0.6593635765680167
6.106718061674009,-0.8116445497539092
6.140088105726872,-0.8607301232922999
6.173458149779736,-0.7879882819536829
6.2068281938325995,-0.6045325932330274
6.240198237885463,-0.3513208948052715
6.273568281938326,-0.0892921764527078
6.306938325991189,0.11829738691691837
6.3403083700440535,0.2257193006263462
6.373678414096917,0.21974164573609925
6.40704845814978,0.12411359814348498
6.440418502202643,-0.008255224859352333
6.4737885462555065,-0.11276783633455258
6.507158590308371,-0.13429070398710885
6.540528634361234,-0.04496907016913025
6.573898678414097,0.14696224134875296
6.60726872246696,0.39999046314987124
6.640638766519824,0.652630578655268
6.674008810572688,0.842731720279661
6.707378854625551,0.926322299811802
6.740748898678414,0.8896936018373061
6.774118942731278,0.7508157967407437
6.807488986784141,0.5500570787528025
6.840859030837005,0.33411114636495587
6.874229074889868,0.13949552393966644
6.9075991189427315,-0.01802037088530838
6.940969162995595,-0.14419129821746657
6.974339207048458,-0.25748051043461356
7.007709251101322,-0.37497350141136654
7.041079295154185,-0.49981250944629513
7.074449339207049,-0.6164876302964923
7.107819383259912,-0.6967579211658692
7.141189427312775,-0.7136627543944256
7.174559471365639,-0.656584430517067
7.207929515418503,-0.5391841618122751
7.241299559471366,-0.395264703437029
7.274669603524229,-0.2638549371732799
7.308039647577092,-0.1708408870118806
7.3414096916299565,-0.11688512956785713
7.37477973568282,-0.07856595409984582
7.408149779735683,-0.022851078015009
7.441519823788546,0.07227568159387698
7.47488986784141,0.2020275060340024
7.508259911894274,0.33293897068960954
7.541629955947137,0.41706977066238593
7.575,0.41602760742600353
7.608370044052863,0.32300188890132975
7.641740088105728,0.1713333858266688
7.675110132158591,0.024310285871842346
7.708480176211454,-0.050195559062465596
7.741850220264317,-0.009361904178403973
7.775220264317181,0.14379049622675621
7.808590308370045,0.3578984970838207
7.841960352422908,0.5508416443944748
7.875330396475771,0.640888664142636
7.9087004405286345,0.5792100034905233
7.942070484581498,0.37063177348684573
7.975440528634362,0.07373543801628225
8.008810572687224,-0.22057637624312817
8.042180616740088,-0.42405364560755127
8.075550660792953,-0.4855557687055632
8.108920704845815,-0.4105969360791732
8.142290748898679,-0.2575493613826941
8.175660792951541,-0.11197211979491666
8.209030837004406,-0.05000508911567063
8.24240088105727,-0.10651663770090933
8.275770925110132,-0.2615261922478838
8.309140969162996,-0.4502692395595598
8.342511013215859,-0.5918008923860681
8.375881057268723,-0.6230301548111128
8.409251101321587,-0.5232279347667707
8.44262114537445,-0.3191231363583295
8.475991189427313,-0.07007661976731482
8.509361233480176,0.15820168966008052
8.54273127753304,0.3186797678684517
8.576101321585904,0.3962182101269245
8.609471365638766,0.4052560530694327
8.64284140969163,0.3758625251799177
8.676211453744493,0.3366528736480524
8.709581497797357,0.3029580153774252
8.742951541850221,0.27468381065194314
8.776321585903084,0.24298972139409297
8.809691629955948,0.2008700112299359
8.84306167400881,0.15150705412631976
8.876431718061674,0.11000144819182016
8.909801762114538,0.09763707837012292
8.9431718061674,0.13145379797266799
8.976541850220265,0.21399977887086258
9.009911894273127,0.327995309563846
9.043281938325991,0.4385772309839228
9.076651982378856,0.5028216800512811
9.110022026431718,0.4834973303444483
9.143392070484582,0.36232173078437
9.176762114537445,0.14782761515677087
9.210132158590309,-0.12556652501080628
9.243502202643173,-0.4077361922992064
9.276872246696035,-0.6490623041200074
9.3102422907489,-0.8164781743242742
9.343612334801762,-0.9025397510808907
9.376982378854626,-0.9233605273380402
9.41035242290749,-0.9063971334021436
9.443722466960352,-0.8742360748607397
9.477092511013216,-0.83277585719627
9.510462555066079,-0.7699394218723464
9.543832599118943,-0.6652816662353808
9.577202643171807,-0.5047780324513829
9.61057268722467,-0.2922280662837976
9.643942731277534,-0.050749198982323045
9.677312775330396,0.1864701821626597
9.71068281938326,0.39097810950031464
9.744052863436124,0.5512791437304357
9.777422907488987,0.6758597210166369
9.81079295154185,0.7853985398586026
9.844162995594713,0.8982169356892399
9.877533039647577,1.016492788427414
9.910903083700441,1.1203994014978864
9.944273127753304,1.1734579505450313
9.977643171806168,1.1370148933592719
10.01101321585903,0.9875129910052343
10.044383259911895,0.7290491905355236
10.077753303964759,0.3959291738186387
10.111123348017621,0.04426178290144151
10.144493392070485,-0.2639768605887455
10.177863436123348,-0.47834897875164123
10.211233480176212,-0.5727513532916435
10.244603524229076,-0.5498642219636295
10.277973568281938,-0.43707521669172256
10.311343612334802,-0.2768704119590594
10.344713656387665,-0.11601815682326733
10.378083700440529,0.0031348373670154776
10.411453744493393,0.048388035716349115
10.444823788546255,0.001612092658768331
10.47819383259912,-0.13782377542212035
10.511563876651982,-0.3505769752555243
10.544933920704846,-0.5982015941235711
10.57830396475771,-0.8298298179388309
10.611674008810573,-0.9946695511016224
10.645044052863437,-1.0567030124158647
10.678414096916299,-1.0056635919572352
10.711784140969163,-0.8591491479906143
10.745154185022027,-0.6544609493309733
10.77852422907489,-0.4335156208169836
10.811894273127754,-0.22745541964665206
10.845264317180618,-0.047692679723188865
10.87863436123348,0.11297691783918715
10.912004405286345,0.27034551937870566
10.945374449339207,0.43518169341110197
10.978744493392071,0.6029648151164526
11.012114537444935,0.7521606621078113
11.045484581497798,0.852021160059336
11.078854625550662,0.8762545863835786
11.112224669603524,0.8161039803118518
11.145594713656388,0.6866936022307522
11.178964757709252,0.5236623840116428
11.212334801762115,0.371446207593354
11.245704845814979,0.2680405475197706
11.279074889867841,0.2322612919472578
11.312444933920705,0.2581886747449339
11.34581497797357,0.3184279727621588
11.379185022026432,0.37440095578387383
11.412555066079296,0.38947010897778855
11.445925110132158,0.3401884716487031
11.479295154185023,0.222348994869285
11.512665198237887,0.05083140907079854
11.546035242290749,-0.14576191853277978
11.579405286343613,-0.33373157327058134
11.612775330396476,-0.48402956444134665
11.64614537444934,-0.580842812274762
11.679515418502204,-0.626368549077408
11.712885462555066,-0.6392491295596492
11.74625550660793,-0.6457183246556409
11.779625550660793,-0.6657548561291252
11.812995594713657,-0.7000783520649762
11.846365638766521,-0.7252363115546676
11.879735682819383,-0.7014492225297299
11.913105726872248,-0.591674762373497
11.94647577092511,-0.38353598719847654
11.979845814977974,-0.10249998865455547
12.013215859030838,0.19232256229362613
12.0465859030837,0.4299950963230723
12.079955947136565,0.5579004085898094
12.113325991189427,0.5656139765392637
12.146696035242291,0.49006982704381646
12.180066079295155,0.3984162890750954
12.213436123348018,0.3560251406439709
12.246806167400882,0.3947679967890386
12.280176211453744,0.4969749473329927
12.313546255506608,0.6031683191072541
12.346916299559473,0.6402293481833421
12.380286343612335,0.5567117728410907
12.413656387665199,0.34850457887717146
12.447026431718061,0.0627119588518174
12.480396475770926,-0.22192484566304949
12.51376651982379,-0.4287204404814147
12.547136563876652,-0.5152007710140554
12.580506607929516,-0.48917679240000356
12.613876651982379,-0.4018421484440616
12.647246696035243,-0.3215063660186793
12.680616740088107,-0.30023510434862516
12.71398678414097,-0.3487374647319109
12.747356828193833,-0.4310325738242835
12.780726872246696,-0.48145671807675666
12.81409691629956,-0.43643272498508656
12.847466960352424,-0.26664985950694825
12.880837004405286,0.0050503237961958755
12.91420704845815,0.3085356106376411
12.947577092511013,0.5523834615595591
12.980947136563877,0.66003950344869
13.014317180616741,0.6006325608014607
13.047687224669604,0.4012495259068939
13.081057268722468,0.1355713296387936
13.11442731277533,-0.10591893567266764
13.147797356828194,-0.2510317709737028
13.181167400881058,-0.2712237346612961
13.21453744493392,-0.18706811032374646
13.247907488986785,-0.053036321934097214
13.281277533039647,0.06996806891944056
13.314647577092511,0.14104948627564512
13.348017621145376,0.15308610219843896
13.381387665198238,0.1290940030708458
13.414757709251102,0.10502427589638139
13.448127753303964,0.10878901143606912
13.481497797356829,0.14600663844723633
13.514867841409693,0.1985525720470698
13.548237885462555,0.23518146914030608
13.58160792951542,0.22782657776734122
13.614977973568282,0.16524502783771428
13.648348017621146,0.0578961175108763
13.68171806167401,-0.06728605548595738
13.715088105726872,-0.17879138793957755
13.748458149779736,-0.25308640541582256
13.781828193832599,-0.2823064294954925
13.815198237885463,-0.2745357316559919
13.848568281938327,-0.2478153189356041
13.88193832599119,-0.22151632157382742
13.915308370044054,-0.20896455682039108
13.948678414096916,-0.2135808552534831
13.98204845814978,-0.22874474852319987
14.015418502202644,-0.24043728729817612
14.048788546255507,-0.23172766026002417
14.08215859030837,-0.18849309336247125
14.115528634361233,-0.105419062601724
14.148898678414097,0.00972652006133341
14.182268722466961,0.13621324899213663
14.215638766519824,0.24647961230883866
14.249008810572688,0.31692865237319723
14.28237885462555,0.3386708557753844
14.315748898678414,0.32214282602624467
14.349118942731279,0.29179497182060105
14.382488986784141,0.2722936875691939
14.415859030837005,0.2730714303878822
14.449229074889868,0.28012878573423233
14.482599118942732,0.26094845935904537
14.515969162995596,0.18145542022612032
14.549339207048458,0.02689993884213292
14.582709251101322,-0.18452400147471132
14.616079295154185,-0.40352105657700277
14.649449339207049,-0.5674407905004931
14.682819383259913,-0.6259392189396228
14.716189427312775,-0.5621477860096765
14.74955947136564,-0.39913297673146386
14.782929515418502,-0.1890639634069916
14.816299559471366,0.008782132345202854
14.84966960352423,0.1501534037095983
14.883039647577093,0.21836637435934164
14.916409691629957,0.22356884916649
14.94977973568282,0.1918479475953585
14.983149779735683,0.15118212118169663
15.016519823788547,0.12083721489120185
15.04988986784141,0.1074367139715424
15.083259911894274,0.10712425121587771
15.116629955947138,0.11097854747025956
15.15,0.11065297135639801
15.183370044052865,0.10232746435251884
15.216740088105727,0.08831660402885817
15.250110132158591,0.07636805471530898
15.283480176211455,0.07688487799598791
15.316850220264318,0.09855972229257723
15.350220264317182,0.1435844839028599
15.383590308370044,0.20441053826927355
15.416960352422908,0.2641795067736383
15.450330396475772,0.3017756586462126
15.483700440528635,0.30015082607214366
15.517070484581499,0.2542705595893368
15.550440528634361,0.17423494815708007
15.583810572687225,0.08080504482173444
15.61718061674009,-0.005620667970040124
15.650550660792952,-0.0773647058863816
15.683920704845816,-0.14592068463329935
15.717290748898678,-0.2371834167047007
15.750660792951543,-0.3757955499911879
15.784030837004407,-0.5656280048142076
15.817400881057269,-0.7771930880427205
15.850770925110133,-0.9508226689809162
15.884140969162996,-1.0170055958337703
15.91751101321586,-0.9260326826662839
15.950881057268724,-0.6731784036845555
15.984251101321586,-0.30665745575658326
16.01762114537445,0.0866234512285691
16.050991189427315,0.4118974643235157
16.084361233480177,0.6004625692100602
16.11773127753304,0.6320765531868661
16.151101321585905,0.5370925745703186
16.184471365638768,0.3791689973088434
16.21784140969163,0.22771781199546762
16.251211453744492,0.13258920350712333
16.284581497797358,0.11089125567172764
16.31795154185022,0.14923257569684845
16.351321585903083,0.21752166038268025
16.38469162995595,0.2860268077638684
16.41806167400881,0.3373716533105088
16.451431718061674,0.36903153295620217
16.48480176211454,0.38740667535701134
16.518171806167402,0.3987083692659615
16.551541850220264,0.40261265523173106
16.584911894273127,0.3918905761074552
16.618281938325993,0.35704855073927755
16.651651982378855,0.2921378869754754
16.685022026431717,0.19793322794147544
16.718392070484583,0.08116147560415567
16.751762114537446,-0.04865907715127469
16.785132158590308,-0.18199596215221742
16.818502202643174,-0.3100059428314002
16.851872246696036,-0.42372491427084147
16.8852422907489,-0.513792582802796
16.91861233480176,-0.5722638354936901
16.951982378854627,-0.5959813498688301
16.98535242290749,-0.5890249481413667
17.01872246696035,-0.5616201226814707
17.052092511013218,-0.5249971281773104
17.08546255506608,-0.4847565459566997
17.118832599118942,-0.4371098259166914
17.152202643171808,-0.3713098038681073
17.18557268722467,-0.27790098762124676
17.218942731277533,-0.15826151248383044
17.2523127753304,-0.029087407698187042
17.28568281938326,0.08240263969289888
17.319052863436124,0.1514846898229318
17.352422907488986,0.17063694440221094
