Time (s),Filtered Signal
0.0,-0.01868223851097521
0.0334075723830735,-0.033046306123186334
0.066815144766147,-0.065416712941372
0.1002227171492205,-0.12242964993689709
0.133630289532294,-0.19300029873972543
0.1670378619153675,-0.25187116073956045
0.200445434298441,-0.27085666091572635
0.23385300668151449,-0.23230118365582972
0.267260579064588,-0.13820292916795598
0.3006681514476615,-0.01067338952638344
0.334075723830735,0.1162970031718058
0.3674832962138085,0.2096765205232439
0.400890868596882,0.2489050177600454
0.4342984409799555,0.23137461521622193
0.46770601336302897,0.1705246348936053
0.5011135857461025,0.08870808329968356
0.534521158129176,0.008841788141733907
0.5679287305122495,-0.05160741533712007
0.601336302895323,-0.08282140532791775
0.6347438752783965,-0.08176825159912895
0.66815144766147,-0.050178696442047
0.7015590200445435,0.0070224698337008175
0.734966592427617,0.08234141516914756
0.7683741648106905,0.1659186089865952
0.801781737193764,0.24609534999766725
0.8351893095768375,0.31069103045173263
0.868596881959911,0.3487414300233333
0.9020044543429845,0.3522070257794553
0.9354120267260579,0.3173486653492257
0.9688195991091315,0.2457287583509675
1.002227171492205,0.1447488102176893
1.0356347438752784,0.02729515728939767
1.069042316258352,-0.09012652659321722
1.1024498886414256,-0.1909854674327465
1.135857461024499,-0.26329724029446966
1.1692650334075725,-0.3034653415576932
1.202672605790646,-0.3174754244502545
1.2360801781737194,-0.3183962036238887
1.269487750556793,-0.3207759433572842
1.3028953229398665,-0.33412055303073857
1.33630289532294,-0.35834965411795433
1.3697104677060135,-0.3834874781950468
1.403118040089087,-0.39402599817708145
1.4365256124721606,-0.3761749250763366
1.469933184855234,-0.324659612130629
1.5033407572383075,-0.24570722148643384
1.536748329621381,-0.15454584893367956
1.5701559020044544,-0.06841962321543425
1.603563474387528,0.0015281907615494524
1.6369710467706016,0.05540258215081827
1.670378619153675,0.10397777978686637
1.7037861915367485,0.16245857612062953
1.737193763919822,0.24152663748739092
1.7706013363028954,0.34007805261131613
1.804008908685969,0.44335224234593723
1.8374164810690425,0.5276030593214363
1.8708240534521159,0.5692952031356869
1.9042316258351895,0.5545706036270897
1.937639198218263,0.4845638309373553
1.9710467706013366,0.37420483918661523
2.00445434298441,0.24542481808153602
2.0378619153674835,0.11844275530797378
2.071269487750557,0.005525357524305993
2.1046770601336307,-0.09009918356901862
2.138084632516704,-0.17055640114268925
2.1714922048997773,-0.2377966619592546
2.204899777282851,-0.28973761108433493
2.2383073496659245,-0.3201208278646006
2.271714922048998,-0.3217401745479823
2.3051224944320716,-0.2909011264834346
2.338530066815145,-0.23062910085156782
2.3719376391982183,-0.1511140941136264
2.405345211581292,-0.06733366941416062
2.4387527839643655,0.005099274585448674
2.472160356347439,0.05442736343621321
2.5055679287305126,0.07631421933859865
2.538975501113586,0.07558210493423939
2.5723830734966593,0.06552663226976632
2.605790645879733,0.0645246818007553
2.6391982182628064,0.09021271211796951
2.67260579064588,0.15244038349228992
2.7060133630289536,0.24721934503948892
2.739420935412027,0.35435616248045754
2.7728285077951007,0.4407827673267522
2.806236080178174,0.46968636731111196
2.8396436525612474,0.4130229558267632
2.873051224944321,0.2630082639576746
2.9064587973273945,0.037812880237440845
2.939866369710468,-0.22158706483518667
2.9732739420935417,-0.46312389890908345
3.006681514476615,-0.6400326116993761
3.0400890868596884,-0.7257835858090796
3.073496659242762,-0.7216751838162958
3.1069042316258355,-0.6540836836275842
3.140311804008909,-0.5626877431245353
3.1737193763919826,-0.48477072229675533
3.207126948775056,-0.44214057529690753
3.2405345211581293,-0.4356195279656763
3.273942093541203,-0.44829871411800337
3.3073496659242765,-0.45474253158675515
3.34075723830735,-0.4310239303363986
3.3741648106904236,-0.3609112045926779
3.407572383073497,-0.2363622164597747
3.4409799554565703,-0.054161507724747336
3.474387527839644,0.1869906863356188
3.5077951002227175,0.4849101816740894
3.541202672605791,0.8270288845429412
3.5746102449888646,1.181783668769405
3.608017817371938,1.494987022649023
3.6414253897550113,1.6971887511194694
3.674832962138085,1.7231247862243368
3.7082405345211584,1.537288798033755
3.7416481069042318,1.1543178736325377
3.7750556792873056,0.6428720506635118
3.808463251670379,0.10808642000012877
3.8418708240534527,-0.34215072040841016
3.875278396436526,-0.6332330401921719
3.9086859688195994,-0.746343647799885
3.942093541202673,-0.7177849576160185
3.9755011135857465,-0.6166894772945964
4.00890868596882,-0.5128538866015669
4.042316258351893,-0.45023958959850324
4.075723830734967,-0.43740581708990806
4.109131403118041,-0.4564813409004012
4.142538975501114,-0.482656291572788
4.1759465478841875,-0.501718491940645
4.209354120267261,-0.5159373954083613
4.242761692650334,-0.5365547899458307
4.276169265033408,-0.5693944336005071
4.309576837416482,-0.6038859682670974
4.342984409799555,-0.6132202059291602
4.3763919821826285,-0.5663054775550672
4.409799554565702,-0.4449867071277408
4.443207126948775,-0.25671289049139706
4.476614699331849,-0.035132475328348525
4.510022271714923,0.17250371198152167
4.543429844097996,0.32526070924576933
4.5768374164810695,0.4059359831619691
4.610244988864143,0.4272179706851004
4.643652561247216,0.42337150729015544
4.67706013363029,0.4314932125290054
4.710467706013364,0.4717087538983699
4.743875278396437,0.5363415287692267
4.77728285077951,0.5936506360202145
4.810690423162584,0.6043996791188694
4.844097995545657,0.5429845102688953
4.877505567928731,0.412446653525848
4.910913140311805,0.24566294667872055
4.944320712694878,0.09183782373768729
4.977728285077951,-0.005307602250357399
5.011135857461025,-0.02717768716656976
5.044543429844098,0.011598812434041993
5.077951002227172,0.07031803166547365
5.111358574610246,0.10091897914552947
5.144766146993319,0.06917886475892271
5.178173719376392,-0.03147481680666616
5.211581291759466,-0.17926770829980396
5.244988864142539,-0.33552900804495633
5.278396436525613,-0.4616665029353199
5.311804008908687,-0.5332818116496069
5.34521158129176,-0.5456682454588951
5.378619153674833,-0.5100163423666594
5.412026726057907,-0.4441896052545559
5.445434298440981,-0.36366733203374
5.478841870824054,-0.2767964124737049
5.512249443207128,-0.18524949889679856
5.545657015590201,-0.08767781613403992
5.579064587973274,0.01648860689111028
5.612472160356348,0.12514391414503692
5.645879732739422,0.23363255857633627
5.679287305122495,0.3356363948219029
5.712694877505569,0.4235796328903071
5.746102449888642,0.48845022266678595
5.779510022271715,0.5200985272725306
5.812917594654789,0.5091989896669135
5.846325167037863,0.4509306154612979
5.879732739420936,0.3488327319981538
5.91314031180401,0.21644050842821866
5.946547884187083,0.07497196572994688
5.979955456570156,-0.052706864767069574
6.01336302895323,-0.1494767328191467
6.046770601336304,-0.20933275052206043
6.080178173719377,-0.23810370445312007
6.1135857461024505,-0.24911703324397877
6.146993318485524,-0.25589210524070743
6.180400890868597,-0.2653811722097935
6.213808463251671,-0.27494487614504015
6.247216035634745,-0.2743979427096506
6.280623608017818,-0.25207615003694106
6.3140311804008915,-0.2020798202930414
6.347438752783965,-0.12935649693531853
6.380846325167038,-0.0501861542966819
6.414253897550112,0.012506872614817807
6.447661469933186,0.037481330441735114
6.481069042316259,0.014009759607095962
6.5144766146993325,-0.05240179640223958
6.547884187082406,-0.1400798704442938
6.581291759465479,-0.21756351667158344
6.614699331848553,-0.2542410783788595
6.648106904231627,-0.23126254314955264
6.6815144766147,-0.14841758813540212
6.7149220489977735,-0.0241958219303259
6.748329621380847,0.11099128308378094
6.78173719376392,0.22568205485389917
6.815144766146994,0.29805391610294835
6.848552338530068,0.3224621275268387
6.881959910913141,0.30970858596303724
6.915367483296214,0.28136988614804276
6.948775055679288,0.26056159894697967
6.982182628062361,0.2625665191052583
7.015590200445435,0.2886806515859123
7.048997772828509,0.32556003801869965
7.082405345211582,0.35051807044076577
7.115812917594655,0.3410342495553267
7.149220489977729,0.28488363807423944
7.182628062360802,0.1866315391277382
7.216035634743876,0.06733642966924683
7.24944320712695,-0.04301127934545384
7.282850779510023,-0.11757332723158054
7.316258351893096,-0.1442829531944098
7.34966592427617,-0.13187379765986657
7.383073496659243,-0.10731444508051316
7.416481069042317,-0.10513134820538753
7.449888641425391,-0.15250377613566563
7.4832962138084635,-0.25598932072498864
7.516703786191537,-0.3955296510540173
7.550111358574611,-0.5289818273605449
7.583518930957685,-0.6065120421872299
7.616926503340758,-0.5900411409555404
7.650334075723832,-0.47014352645085244
7.683741648106905,-0.27283123875856324
7.717149220489978,-0.052104217723543365
7.750556792873052,0.12989470833200997
7.783964365256126,0.2272878433109483
7.817371937639199,0.2286615936658138
7.850779510022273,0.16041833488157875
7.884187082405346,0.0733431362397056
7.917594654788419,0.018561491246460293
7.951002227171493,0.024357025699871807
7.984409799554567,0.08486659928930297
8.01781737193764,0.16561008695780294
8.051224944320714,0.22233225183391442
8.084632516703786,0.2232120737868842
8.118040089086861,0.16341807074804032
8.151447661469934,0.06558593920794879
8.184855233853007,-0.03264600401137899
8.218262806236082,-0.09655248505719669
8.251670378619155,-0.10832871143326495
8.285077951002227,-0.07108433573937722
8.318485523385302,-0.002845049966309376
8.351893095768375,0.07414323059973363
8.385300668151448,0.14205094239846044
8.418708240534523,0.19008773518598804
8.452115812917596,0.21199513734337447
8.485523385300668,0.2027839704211118
8.518930957683743,0.15895066495485083
8.552338530066816,0.0829376544951292
8.585746102449889,-0.011570802286820413
8.619153674832964,-0.09870896081890936
8.652561247216036,-0.14700358863300497
8.68596881959911,-0.13196573291737446
8.719376391982184,-0.0489045979094949
8.752783964365257,0.08100888109274061
8.78619153674833,0.2156086323213191
8.819599109131405,0.3064328773929224
8.853006681514477,0.3172322442723422
8.88641425389755,0.23824329356183446
8.919821826280625,0.09003166395140479
8.953229398663698,-0.08459106986116023
8.98663697104677,-0.23685708981464557
9.020044543429846,-0.3295088672093861
9.053452115812918,-0.34836797245732565
9.086859688195991,-0.3039352369990069
9.120267260579066,-0.22347251649867148
9.153674832962139,-0.13799455737281535
9.187082405345212,-0.07033798313013394
9.220489977728286,-0.02931405321171652
9.25389755011136,-0.011543716418052498
9.287305122494432,-0.00863489185835213
9.320712694877507,-0.014900255666242992
9.35412026726058,-0.031082647927802572
9.387527839643653,-0.06231194768205957
9.420935412026727,-0.11211198522977289
9.4543429844098,-0.17660310337208984
9.487750556792873,-0.24279308427475485
9.521158129175948,-0.29226474897133115
9.55456570155902,-0.3082802365373439
9.587973273942094,-0.28232988331690495
9.621380846325168,-0.2166130973905767
9.654788418708241,-0.12147289803356778
9.688195991091314,-0.00977816587968007
9.721603563474389,0.10817545642841411
9.755011135857462,0.22636730834544733
9.788418708240535,0.34086564257817586
9.82182628062361,0.4457910103786707
9.855233853006682,0.5306210310184712
9.888641425389755,0.5812161409622691
9.92204899777283,0.5847095086090426
9.955456570155903,0.5359983345199808
9.988864142538976,0.4422811415686296
10.02227171492205,0.32264312561707204
10.055679287305123,0.2019647374516846
10.089086859688196,0.1013920830429496
10.12249443207127,0.0297353979461122
10.155902004454344,-0.019806167290403166
10.189309576837417,-0.06549229423318136
10.222717149220491,-0.12696214335764197
10.256124721603564,-0.21384518045402168
10.289532293986637,-0.31868169563325344
10.322939866369712,-0.4180245124784853
10.356347438752785,-0.48179927527390104
10.389755011135858,-0.48691714743461245
10.423162583518932,-0.4287709570589264
10.456570155902005,-0.32489287155980984
10.489977728285078,-0.20857351959679635
10.523385300668153,-0.11503392921850666
10.556792873051226,-0.06645151524153847
10.590200445434299,-0.06286208570365333
10.623608017817373,-0.08325003152145828
10.657015590200446,-0.09628834599942888
10.69042316258352,-0.07557540363650604
10.723830734966594,-0.012108311802984864
10.757238307349667,0.08182520292166467
10.790645879732741,0.17887892576540584
10.824053452115814,0.2495853561243823
10.857461024498887,0.2754427309491805
10.890868596881962,0.25585122019035245
10.924276169265035,0.20602149187374744
10.957683741648108,0.14769363627927526
10.991091314031182,0.09801278906433762
11.024498886414255,0.062433312860203156
11.057906458797328,0.03491929563533614
11.091314031180403,0.0044945040625226085
11.124721603563476,-0.036265575651767724
11.158129175946549,-0.08597854888919533
11.191536748329623,-0.135297289475677
11.224944320712696,-0.17274000993925798
11.25835189309577,-0.19126791830468381
11.291759465478844,-0.1910891120291731
11.325167037861917,-0.17692752891454722
11.35857461024499,-0.15197154101520474
11.391982182628064,-0.1132278783153785
11.425389755011137,-0.052291315135429485
11.45879732739421,0.03805441126691313
11.492204899777285,0.15519095233312707
11.525612472160358,0.2818018460425266
11.55902004454343,0.38900078253335185
11.592427616926505,0.4471585870085574
11.625835189309578,0.43937464802935133
11.659242761692651,0.3704178944984162
11.692650334075726,0.26588407722678153
11.726057906458799,0.16132195528465476
11.759465478841872,0.08640912995084997
11.792873051224946,0.051953344666651934
11.82628062360802,0.04609647328901489
11.859688195991092,0.0414205937571144
11.893095768374167,0.009247473801942544
11.92650334075724,-0.0659097213552102
11.959910913140313,-0.1784895646494973
11.993318485523387,-0.30385596476861565
12.02672605790646,-0.4085850549753128
12.060133630289533,-0.4639419400963207
12.093541202672608,-0.456535295504841
12.12694877505568,-0.39204979532829576
12.160356347438753,-0.29141987151871396
12.193763919821828,-0.18203913025976548
12.227171492204901,-0.08820967456977812
12.260579064587974,-0.02459896196867515
12.293986636971049,0.005470925859574186
12.327394209354122,0.0074363740545009376
12.360801781737194,-0.009167285477788882
12.39420935412027,-0.03482601944092507
12.427616926503342,-0.06190853054258542
12.461024498886415,-0.08412900240720544
12.49443207126949,-0.09490197749524577
12.527839643652563,-0.08646925315099899
12.561247216035635,-0.0511614493151935
12.59465478841871,0.015203237730312083
12.628062360801783,0.10929486803243588
12.661469933184856,0.21798211730488598
12.69487750556793,0.3197666410647211
12.728285077951004,0.39037491666195107
12.761692650334076,0.4108644680656236
12.795100222717151,0.3750217726725822
12.828507795100224,0.2926321402430163
12.861915367483297,0.18667530529607523
12.895322939866372,0.08511367775395444
12.928730512249444,0.010510522924234518
12.962138084632517,-0.028056272885041467
12.995545657015592,-0.03716625485195015
13.028953229398665,-0.03432542025245578
13.062360801781738,-0.038515563040435956
13.095768374164813,-0.060375019003686206
13.129175946547885,-0.09650813395150463
13.162583518930958,-0.13055761892451676
13.195991091314033,-0.1407197422763373
13.229398663697106,-0.11060352974985053
13.262806236080179,-0.038789223162568415
13.296213808463254,0.057311246427641044
13.329621380846326,0.14565667465017734
13.3630289532294,0.19098593960575727
13.396436525612474,0.1693157750407491
13.429844097995547,0.0795295190783093
13.46325167037862,-0.053336425377110176
13.496659242761694,-0.18534150496554996
13.530066815144767,-0.2691852556093708
13.56347438752784,-0.2720903614131617
13.596881959910915,-0.18890974662672474
13.630289532293988,-0.045260424479778995
13.66369710467706,0.11052948021318512
13.697104677060135,0.22368619191137895
13.730512249443208,0.25174428621869216
13.763919821826281,0.17946456692608495
13.797327394209356,0.024940008088996185
13.830734966592429,-0.16539990546643998
13.864142538975502,-0.3317807967667566
13.897550111358576,-0.42153144720367586
13.93095768374165,-0.4079412925922623
13.964365256124722,-0.30013517666373973
13.997772828507797,-0.1392859919986587
14.03118040089087,0.01811872182126593
14.064587973273943,0.12326517122018339
14.097995545657017,0.15410931853874565
14.13140311804009,0.12180065746934493
14.164810690423163,0.061655914523019925
14.198218262806238,0.013589667691735103
14.23162583518931,0.0021325046202486206
14.265033407572384,0.026045898691648552
14.298440979955458,0.062181828039677596
14.331848552338531,0.08064509661514528
14.365256124721604,0.06262886373905846
14.398663697104679,0.011416082064081822
14.432071269487752,-0.048861036141520695
14.465478841870825,-0.08549814427180884
14.4988864142539,-0.07377558210262898
14.532293986636972,-0.009283187221003873
14.565701559020045,0.0898730858408751
14.59910913140312,0.19151851024763064
14.632516703786193,0.2638379572983194
14.665924276169266,0.28859628195038284
14.69933184855234,0.26713480857292476
14.732739420935413,0.2170774538050936
14.766146993318486,0.16222621277357635
14.79955456570156,0.12103649213116784
14.832962138084634,0.09914468377965074
14.866369710467707,0.0889519563634388
14.899777282850781,0.07567110721181504
14.933184855233854,0.04628154652554717
14.966592427616927,-0.0032098161234333338
15.0,-0.06563874067482955
