Frequency (Hz),Amplitude
0.0,7.869657142802229
0.019823788546255508,7.866906855360461
0.039647577092511016,7.858661029314154
0.059471365638766524,7.844934783929103
0.07929515418502203,7.825753352889443
0.09911894273127755,7.801152137166434
0.11894273127753305,7.771176780053795
0.13876651982378857,7.735883265396132
0.15859030837004406,7.69533804034371
0.17841409691629956,7.649618164279
0.1982378854625551,7.598811485882709
0.2180616740088106,7.5430168506361825
0.2378854625550661,7.482344341392336
0.25770925110132165,7.41691555498585
0.27753303964757714,7.346863918186521
0.29735682819383263,7.272335046621826
0.31718061674008813,7.193487150587032
0.3370044052863437,7.1104914919092455
0.3568281938325991,7.0235328962024575
0.37665198237885467,6.932810324910296
0.3964757709251102,6.838537511428408
0.41629955947136565,6.740943665261978
0.4361233480176212,6.640274247517137
0.4559471365638767,6.536791819931497
0.4757709251101322,6.430776967972106
0.49559471365638774,6.3225292960809245
0.5154185022026433,6.212368489699083
0.5352422907488987,6.100635433969366
0.5550660792951543,5.987693372671885
0.5748898678414097,5.873929082611474
0.5947136563876653,5.75975402793758
0.6145374449339208,5.645605445328693
0.6343612334801763,5.53194729425722
0.6541850220264318,5.419270986461486
0.6740088105726874,5.308095785360401
0.6938325991189428,5.19896874000442
0.7136563876651982,5.092463990533752
0.7334801762114539,4.989181255303794
0.7533039647577093,4.889743287452184
0.7731277533039648,4.794792075895475
0.7929515418502204,4.704983569321973
0.8127753303964759,4.620980729702556
0.8325991189427313,4.543444782483012
0.8524229074889869,4.473024630840492
0.8722466960352424,4.410344544142085
0.8920704845814978,4.355990412056919
0.9118942731277534,4.310495061963514
0.931718061674009,4.274323343656767
0.9515418502202644,4.247857857642394
0.9713656387665199,4.231386302965926
0.9911894273127755,4.225091413512559
1.0110132158590308,4.229044318908375
1.0308370044052866,4.243201911924389
1.0506607929515421,4.267408459467017
1.0704845814977975,4.3014013112072735
1.090308370044053,4.34482020050842
1.1101321585903086,4.39721935251759
1.1299559471365639,4.458081450857974
1.1497797356828194,4.526832478034803
1.1696035242290752,4.602856521344693
1.1894273127753305,4.685509794355193
1.209251101321586,4.774133325532277
1.2290748898678416,4.868063974434687
1.248898678414097,4.966643624803458
1.2687224669603525,5.069226556561794
1.288546255506608,5.17518510911498
1.3083700440528636,5.283913817971074
1.3281938325991192,5.394832241789893
1.3480176211453747,5.5073867056628245
1.36784140969163,5.621051176922341
1.3876651982378856,5.735327469191212
1.4074889867841411,5.849744944269864
1.4273127753303965,5.96385985379737
1.4471365638766522,6.077254435989366
1.4669603524229078,6.189535858643875
1.4867841409691631,6.30033507871065
1.5066079295154187,6.409305671211021
1.5264317180616742,6.516122666018004
1.5462555066079295,6.620481419633072
1.5660792951541853,6.722096540221568
1.5859030837004409,6.820700877382921
1.6057268722466962,6.916044583044272
1.6255506607929517,7.007894246136491
1.6453744493392073,7.0960321010450045
1.6651982378854626,7.180255307983339
1.6850220264317182,7.260375302217906
1.7048458149779737,7.336217208321329
1.7246696035242293,7.407619315226532
1.7444933920704848,7.474432607699833
1.7643171806167404,7.5365203498751265
1.7841409691629957,7.593757716639688
1.8039647577092512,7.646031468892784
1.8237885462555068,7.693239668982217
1.8436123348017623,7.735291432939695
1.863436123348018,7.772106716467217
1.8832599118942732,7.8036161319642465
1.9030837004405288,7.829760794221777
1.9229074889867843,7.850492192739937
1.9427312775330399,7.865772088949886
1.9625550660792954,7.875572436935258
1.982378854625551,7.879875326555703
2.002202643171806,7.878672948175484
2.0220264317180616,7.871967578494271
2.041850220264317,7.859771587268245
2.061674008810573,7.842107464999595
2.0814977973568287,7.819007871961313
2.1013215859030843,7.790515709218046
2.1211453744493394,7.756684212599903
2.140969162995595,7.717577070890029
2.1607929515418505,7.673268569797967
2.180616740088106,7.623843763609488
2.2004405286343616,7.569398676731289
2.220264317180617,7.510040537682102
2.2400881057268722,7.445888048418727
2.2599118942731278,7.377071692219898
2.2797356828193833,7.303734083674254
2.299559471365639,7.226030364618058
2.319383259911895,7.144128650125712
2.3392070484581504,7.058210528844741
2.3590308370044055,6.968471622052744
2.378854625550661,6.875122205747477
2.3986784140969166,6.778387899801078
2.418502202643172,6.678510427629512
2.4383259911894277,6.5757484488415505
2.4581497797356833,6.470378465797608
2.4779735682819384,6.362695802750585
2.497797356828194,6.253015653039707
2.5176211453744495,6.141674185395799
2.537444933920705,6.029029694473683
2.5572687224669606,5.915463772889289
2.577092511013216,5.801382471902124
2.5969162995594717,5.687217405038942
2.6167400881057272,5.573426733029468
2.6365638766519828,5.460495949174087
2.6563876651982383,5.348938361683769
2.676211453744494,5.2392951440467845
2.6960352422907494,5.132134797166615
2.715859030837005,5.0280518399048315
2.73568281938326,4.927664521023538
2.7555066079295156,4.83161133013212
2.775330396475771,4.740546084475652
2.7951541850220267,4.6551313899886235
2.8149779735682823,4.576030327275666
2.834801762114538,4.503896303422106
2.854625550660793,4.439361142861137
2.874449339207049,4.383021662829746
2.8942731277533045,4.33542518006747
2.91409691629956,4.297054603362162
2.9339207048458156,4.268313949225513
2.953744493392071,4.249515237468991
2.9735682819383262,4.240867744002938
2.993392070484582,4.242470486425874
3.0132158590308373,4.254308592183457
3.033039647577093,4.276253873724162
3.0528634361233484,4.30806955786795
3.072687224669604,4.349418747983989
3.092511013215859,4.399875895848176
3.1123348017621146,4.458940367237319
3.1321585903083706,4.526051118566441
3.151982378854626,4.600601552741454
3.1718061674008817,4.68195376305897
3.1916299559471373,4.769451567136235
3.2114537444933924,4.8624319415625195
3.231277533039648,4.960234662683785
3.2511013215859035,5.062210120749217
3.270925110132159,5.167725395155383
3.2907488986784146,5.276168757635503
3.31057268722467,5.386952813206103
3.3303964757709252,5.499516503303311
3.350220264317181,5.613326190063532
3.3700440528634363,5.727876022526311
3.389867841409692,5.842687760591555
3.4096916299559474,5.957310205186904
3.4295154185022034,6.071318356188623
3.4493392070484585,6.184312394923668
3.469162995594714,6.295916566432811
3.4889867841409696,6.4057780183815165
3.508810572687225,6.513565638481934
3.5286343612334807,6.618968920244786
3.5484581497797363,6.721696877428675
3.5682819383259914,6.82147702028302
3.588105726872247,6.918054401198855
3.6079295154185025,7.0111907333338985
3.627753303964758,7.100663582861459
3.6475770925110136,7.1862656334539565
3.667400881057269,7.267804020242807
3.6872246696035247,7.345099729632489
3.7070484581497802,7.417987060857409
3.726872246696036,7.486313144954282
3.7466960352422913,7.549937516801737
3.7665198237885464,7.608731735996252
3.7863436123348024,7.6625790525417665
3.8061674008810575,7.711374113600716
3.8259911894273135,7.755022707859942
3.8458149779735686,7.793441544392217
3.8656387665198246,7.826558063228081
3.8854625550660797,7.8543102751890235
3.905286343612335,7.876646628864146
3.925110132158591,7.89352590293707
3.9449339207048464,7.904917122386535
3.964757709251102,7.910799497392523
3.9845814977973575,7.9111623840818135
4.004405286343612,7.9060052665414515
4.024229074889869,7.895337759821386
4.044052863436123,7.879179633936104
4.06387665198238,7.857560859165201
4.083700440528634,7.830521673244264
4.103524229074891,7.798112671333157
4.123348017621146,7.760394919950367
4.143171806167401,7.717440096370522
4.162995594713657,7.669330655298902
4.182819383259912,7.616160024960591
4.2026431718061685,7.558032835073094
4.222466960352423,7.4950651795048735
4.242290748898679,7.427384916755752
4.262114537444934,7.355132011717954
4.28193832599119,7.278458922478868
4.301762114537445,7.197531036189506
4.321585903083701,7.112527158223565
4.3414096916299565,7.023640058956253
4.361233480176212,6.931077082456072
4.381057268722468,6.8350608211461745
4.400881057268723,6.73582985997544
4.420704845814979,6.633639592741725
4.440528634361234,6.528763111797244
4.46035242290749,6.42149217027325
4.4801762114537445,6.312138212978174
4.500000000000001,6.201033467996556
4.5198237885462555,6.0885320854394305
4.539647577092512,5.975011302419116
4.559471365638767,5.860872603750675
4.579295154185023,5.7465428357134725
4.599118942731278,5.632475215062707
4.618942731277533,5.519150157085514
4.63876651982379,5.4070758247916055
4.658590308370044,5.296788276628958
4.678414096916301,5.18885106333838
4.6982378854625555,5.083854097486048
4.718061674008811,4.982411594791916
4.737885462555067,4.8851588689848775
4.757709251101322,4.792747757519072
4.777533039647578,4.705840471451477
4.797356828193833,4.625101707258551
4.817180616740089,4.551188938963356
4.837004405286344,4.484740930599341
4.856828193832599,4.426364671278341
4.876651982378855,4.376621129153337
4.896475770925111,4.3360104271603745
4.9162995594713665,4.304957233009402
4.936123348017622,4.283797291881008
4.955947136563877,4.27276607614081
4.975770925110133,4.271990455347659
4.995594713656388,4.281484094555599
5.015418502202644,4.301146987306468
5.035242290748899,4.330769163935512
5.055066079295155,4.370038243581379
5.07488986784141,4.418550178910373
5.094713656387666,4.475822322405169
5.114537444933921,4.541307845487584
5.134361233480177,4.614410564423164
5.154185022026432,4.694499346508167
5.174008810572688,4.780921451171151
5.193832599118943,4.873014366088878
5.213656387665199,4.9701158967936205
5.2334801762114544,5.071572438064251
5.25330396475771,5.1767454857784045
5.2731277533039655,5.285016536854001
5.292951541850221,5.395790576457216
5.312775330396477,5.508498373027914
5.332599118942731,5.622597801023452
5.352422907488988,5.737574396201258
5.372246696035242,5.85294132501832
5.392070484581499,5.968238923022352
5.4118942731277535,6.083033930174078
5.43171806167401,6.196918525873351
5.451541850220265,6.30950924413821
5.47136563876652,6.4204458303304675
5.491189427312777,6.529390085039502
5.511013215859031,6.636024727990227
5.530837004405288,6.7400523047689465
5.550660792951542,6.841194151361642
5.570484581497798,6.939189425577217
5.5903083700440535,7.03379421002239
5.610132158590309,7.124780688092687
5.6299559471365646,7.21193639217875
5.64977973568282,7.295063521743348
5.669603524229076,7.3739783279261975
5.689427312775331,7.448510560742324
5.709251101321586,7.518502974647494
5.729074889867842,7.583810888168099
5.748898678414098,7.644301793368319
5.768722466960353,7.699855011108212
5.788546255506609,7.750361388295616
5.808370044052864,7.795723033628645
5.82819383259912,7.835853088642767
5.848017621145375,7.870675531207284
5.867841409691631,7.900125008948589
5.887665198237886,7.924146700408648
5.907488986784142,7.942696202071964
5.927312775330397,7.955739439711815
5.9471365638766525,7.963252602816221
5.966960352422908,7.965222101157037
5.986784140969164,7.961644542862006
6.00660792951542,7.95252673364188
6.026431718061675,7.937885697114472
6.04625550660793,7.917748716457049
6.066079295154186,7.892153397908817
6.085903083700441,7.861147756940113
6.105726872246697,7.824790328203872
6.125550660792952,7.783150300691509
6.145374449339208,7.736307679828361
6.1651982378854635,7.68435347856488
6.185022026431718,7.627389939846659
6.204845814977975,7.56553079317709
6.224669603524229,7.4989015483164545
6.244493392070486,7.427639829482012
6.264317180616741,7.351895753715685
6.284140969162996,7.271832357351438
6.303964757709252,7.187626074722037
6.323788546255507,7.099467273362299
6.3436123348017635,7.007560849952004
6.363436123348018,6.912126891039123
6.3832599118942746,6.81340140211924
6.403083700440529,6.711637107822542
6.422907488986785,6.607104324651557
6.44273127753304,6.500091905762644
6.462555066079296,6.390908254494353
6.482378854625551,6.279882399474788
6.502202643171807,6.167365118897048
6.5220264317180625,6.053730094599738
6.541850220264318,5.939375067551348
6.561674008810574,5.824722954816668
6.581497797356829,5.710222873703295
6.601321585903085,5.5963510012547015
6.62114537444934,5.483611176467655
6.640969162995596,5.372535128797803
6.6607929515418505,5.263682190447662
6.680616740088107,5.15763832317102
6.700440528634362,5.055014265521781
6.720264317180618,4.956442587623155
6.740088105726873,4.862573433155378
6.759911894273129,4.774068739315909
6.779735682819384,4.691594762886249
6.799559471365639,4.615812811921681
6.819383259911895,4.547368193543466
6.83920704845815,4.486877539752614
6.859030837004407,4.434914858465221
6.8788546255506615,4.391996859628398
6.898678414096917,4.358568299508817
6.918502202643173,4.334988235368597
6.938325991189428,4.321518151281285
6.958149779735684,4.318312874540135
6.977973568281939,4.3254150386207275
6.997797356828195,4.342753574389397
7.01762114537445,4.370146362152244
7.037444933920705,4.407306806989758
7.0572687224669615,4.453853767555697
7.077092511013216,4.50932402378923
7.096916299559473,4.573186340920472
7.116740088105728,4.644856179801318
7.136563876651983,4.723710198787988
7.156387665198239,4.8090998577893105
7.176211453744494,4.900363633945704
7.19603524229075,4.996837557923942
7.215859030837005,5.0978639561531285
7.235682819383261,5.2027984240687335
7.255506607929516,5.311015154419294
7.275330396475772,5.421910805462115
7.295154185022027,5.534907122837365
7.314977973568283,5.649452533937235
7.334801762114538,5.765022922360486
7.354625550660794,5.881121769112028
7.374449339207049,5.997279821631658
7.394273127753305,6.113054425087232
7.4140969162995605,6.228028624942721
7.433920704845816,6.341810126915158
7.453744493392072,6.454030180656016
7.473568281938327,6.5643424369493175
7.493392070484583,6.6724218147429655
7.513215859030838,6.777963403595181
7.533039647577093,6.880681418742749
7.552863436123348,6.980308219588013
7.572687224669605,7.076593397593748
7.59251101321586,7.169302936045725
7.612334801762115,7.258218441617542
7.6321585903083715,7.343136445923354
7.651982378854627,7.423867774086246
7.671806167400882,7.5002369766365575
7.691629955947137,7.572081820669821
7.711453744493394,7.639252836047824
7.731277533039649,7.701612912451369
7.751101321585904,7.7590369432361515
7.7709251101321595,7.811411512267203
7.790748898678416,7.8586346201816255
7.81057268722467,7.900615446835815
7.830396475770926,7.937274147015296
7.850220264317182,7.9685416768140165
7.870044052863436,7.994359648418719
7.889867841409693,8.014680211357758
7.909691629955948,8.029465958591723
7.929515418502204,8.03868985613384
7.9493392070484585,8.042335195191567
7.969162995594715,8.040395566118592
7.9889867841409705,8.032874853759218
8.008810572687224,8.019787254057318
8.02863436123348,8.001157312091266
8.048458149779737,7.977019981986175
8.068281938325994,7.9474207094481
8.088105726872246,7.9124155379621754
8.107929515418503,7.87207124000005
8.12775330396476,7.82646547489278
8.147577092511014,7.775686975341529
8.167400881057269,7.7198357648620615
8.187224669603525,7.659023408784933
8.207048458149782,7.593373301758881
8.226872246696036,7.523020995022433
8.246696035242293,7.448114567007723
8.266519823788547,7.368815041105878
8.286343612334802,7.285296854633826
8.306167400881058,7.19774838316786
8.325991189427315,7.106372524410966
8.345814977973568,7.011387345584794
8.365638766519824,6.913026797913143
8.38546255506608,6.8115415010009
8.405286343612337,6.707199598692619
8.42511013215859,6.600287686168785
8.444933920704846,6.491111805419603
8.464757709251103,6.379998502594867
8.484581497797357,6.267295935790855
8.504405286343614,6.153375015277742
8.524229074889869,6.038630549633826
8.544052863436125,5.923482360352457
8.56387665198238,5.808376313851381
8.583700440528636,5.693785203142826
8.60352422907489,5.580209391576448
8.623348017621145,5.468177108207979
8.643171806167402,5.358244259119024
8.662995594713658,5.250993592787386
8.682819383259913,5.147033032745582
8.702643171806168,5.0469929708985655
8.722466960352424,4.951522305080291
8.74229074889868,4.861283011225252
8.762114537444935,4.776943071458852
8.78193832599119,4.699167642078234
8.801762114537446,4.628608445803597
8.821585903083701,4.565891512857637
8.841409691629957,4.51160357069159
8.861233480176212,4.466277578718598
8.881057268722468,4.430378098348105
8.900881057268723,4.404287347620513
8.92070484581498,4.388292878145867
8.940528634361234,4.382577798989441
8.960352422907489,4.387214340989698
8.980176211453745,4.4021613109022955
9.000000000000002,4.4272656570729145
9.019823788546258,4.462268005851069
9.039647577092511,4.5068116878910836
9.059471365638768,4.560454507586996
9.079295154185024,4.6226823513875575
9.099118942731279,4.6929236921157145
9.118942731277533,4.770564114324804
9.13876651982379,4.854960131669889
9.158590308370046,4.94545175592622
9.1784140969163,5.041373475106223
9.198237885462555,5.142063479172961
9.218061674008812,5.246871120143659
9.237885462555067,5.355162702412214
9.257709251101323,5.46632576966747
9.27753303964758,5.5797720921634
9.297356828193834,5.6949395696993665
9.317180616740089,5.8112932591229125
9.337004405286345,5.928325717238837
9.356828193832602,6.04555682608511
9.376651982378855,6.1625332415443435
9.396475770925111,6.278827580815167
9.416299559471367,6.394037440931962
9.436123348017622,6.50778432007916
9.455947136563877,6.619712496150308
9.475770925110133,6.729487902770056
9.49559471365639,6.836797031559095
9.515418502202644,6.941345880418994
9.5352422907489,7.042858960665039
9.555066079295155,7.141078370574151
9.57488986784141,7.235762939014205
9.594713656387666,7.326687439995262
9.614537444933923,7.413641876994619
9.634361233480178,7.496430834562103
9.654185022026432,7.574872893852527
9.674008810572689,7.6488001082352
9.693832599118945,7.718057534899535
9.713656387665198,7.782502818337148
9.733480176211454,7.842005821677134
9.75330396475771,7.896448302040406
9.773127753303967,7.945723626330259
9.792951541850222,7.989736524164979
9.812775330396477,8.028402874969863
9.832599118942733,8.06164952656755
9.852422907488988,8.089414142929913
9.872246696035244,8.111645079077007
9.892070484581499,8.128301281425552
9.911894273127754,8.139352212200535
9.93171806167401,8.144777796827276
9.951541850220266,8.144568393520261
9.971365638766521,8.138724784578342
9.991189427312776,8.127258189186675
10.011013215859032,8.110190297814732
10.030837004405289,8.087553328589491
10.050660792951543,8.059390106314865
10.070484581497798,8.025754165103825
10.090308370044054,7.986709875891138
10.11013215859031,7.942332600401213
10.129955947136565,7.892708873459007
10.14977973568282,7.837936615850041
10.169603524229077,7.778125380257436
10.189427312775331,7.713396633123642
10.209251101321588,7.643884075597594
10.229074889867842,7.5697340070225
10.248898678414099,7.491105734682415
10.268722466960353,7.408172033735878
10.28854625550661,7.32111966139496
10.308370044052865,7.230149929420063
10.32819383259912,7.135479338844729
10.348017621145376,7.037340280453538
10.367841409691632,6.935981803824875
10.387665198237887,6.8316704566063065
10.407488986784141,6.724691193973929
10.427312775330398,6.615348355761667
10.447136563876654,6.503966705314916
10.466960352422909,6.3908925194659245
10.486784140969164,6.276494712839729
10.50660792951542,6.161165971635668
10.526431718061675,6.045323861723115
10.546255506607931,5.929411862977745
10.566079295154186,5.8139002659647
10.585903083700442,5.699286848183946
10.605726872246697,5.586097225235854
10.625550660792953,5.474884747977617
10.645374449339208,5.366229791217913
10.665198237885463,5.260738254840391
10.685022026431719,5.159039077731917
10.704845814977975,5.06178055316603
10.724669603524232,4.969625237396161
10.744493392070485,4.88324326828395
10.764317180616741,4.8033039652454885
10.784140969162998,4.730465671892349
10.803964757709252,4.665363931411545
10.823788546255507,4.608598249017186
10.843612334801763,4.560717884438428
10.86343612334802,4.522207309464784
