Time (s),Filtered Signal
0.0,0.007866746012295875
0.03337008452774715,0.3338291479893121
0.0667401690554943,0.5881872877646459
0.10011025358324147,0.7376220786305725
0.1334803381109886,0.8017666421634629
0.16685042263873576,0.8371046899857052
0.20022050716648293,0.8996200477262322
0.23359059169423008,1.008678906658758
0.2669606762219772,1.1333471251405633
0.30033076074972437,1.2086157226690606
0.3337008452774715,1.1714830729519292
0.36707092980521866,0.9959384354499421
0.40044101433296586,0.7075184135823985
0.433811098860713,0.370552117931307
0.46718118338846015,0.0566956072945269
0.5005512679162073,-0.1870446251757367
0.5339213524439544,-0.35380167998200507
0.5672914369717016,-0.4693236014796112
0.6006615214994487,-0.5680825152984195
0.6340316060271959,-0.6680790621936548
0.667401690554943,-0.7588636091064366
0.7007717750826902,-0.8088123068758916
0.7341418596104373,-0.7864018279260873
0.7675119441381845,-0.6823603413075183
0.8008820286659317,-0.519284200920609
0.8342521131936789,-0.3426666505209141
0.867622197721426,-0.1982070484315368
0.9009922822491732,-0.10855182146448275
0.9343623667769203,-0.06331024829242314
0.9677324513046675,-0.02858978616215059
1.0011025358324146,0.029336150433737444
1.0344726203601617,0.12036502991943739
1.0678427048879089,0.2214571433269512
1.101212789415656,0.28818601433923857
1.1345828739434032,0.28070142276482957
1.1679529584711503,0.18911423466560168
1.2013230429988975,0.043518947237382685
1.2346931275266446,-0.0972032270326872
1.2680632120543918,-0.17160878575026312
1.301433296582139,-0.14283613134540527
1.334803381109886,-0.013081334658396549
1.3681734656376332,0.180288161935617
1.4015435501653803,0.38267874925390405
1.4349136346931275,0.5437458044245927
1.4682837192208746,0.6322898358728808
1.5016538037486218,0.6400373537064549
1.535023888276369,0.5762107075431144
1.568393972804116,0.45828037404680866
1.6017640573318634,0.3039107910650487
1.6351341418596106,0.12665789800366817
1.6685042263873577,-0.06425383375903725
1.7018743109151049,-0.26092870886164815
1.735244395442852,-0.4521778999813679
1.7686144799705992,-0.6197808305377269
1.8019845644983463,-0.7386217197850842
1.8353546490260935,-0.7826054795780292
1.8687247335538406,-0.7352642841041277
1.9020948180815878,-0.6004477852644838
1.935464902609335,-0.4068634796546984
1.968834987137082,-0.2022001244277656
2.002205071664829,-0.03763710012388344
2.0355751561925763,0.05099014267078586
2.0689452407203235,0.056589706050806786
2.1023153252480706,0.0022551816649913118
2.1356854097758178,-0.06982898719095121
2.169055494303565,-0.11636772666843764
2.202425578831312,-0.10921742086247681
2.235795663359059,-0.043105404789433824
2.2691657478868064,0.06695709940352348
2.3025358324145535,0.19520465701007186
2.3359059169423007,0.31583683989624906
2.369276001470048,0.41025561138690503
2.402646085997795,0.46924657064275865
2.436016170525542,0.4913442300447112
2.4693862550532892,0.47971442052916546
2.5027563395810364,0.43942894981822034
2.5361264241087835,0.37609453830346495
2.5694965086365307,0.29614996760617573
2.602866593164278,0.20856175049143802
2.636236677692025,0.12670501684742164
2.669606762219772,0.06826206434027718
2.7029768467475193,0.0511268466926722
2.7363469312752664,0.08530728174731031
2.7697170158030135,0.16393182672344286
2.8030871003307607,0.25867593712916237
2.836457184858508,0.32432096283390904
2.869827269386255,0.3133580048189277
2.903197353914002,0.19613305578365817
2.9365674384417493,-0.02215430627933622
2.9699375229694964,-0.2965857061844736
3.0033076074972436,-0.5543144402686848
3.0366776920249907,-0.7200190526629034
3.070047776552738,-0.7451361128577808
3.103417861080485,-0.6284006302787014
3.136787945608232,-0.4184746636410497
3.1701580301359793,-0.196989268265436
3.203528114663727,-0.04847624374400138
3.236898199191474,-0.028777634776176533
3.270268283719221,-0.1438344161421469
3.3036383682469683,-0.34674026470959746
3.3370084527747155,-0.5543644977903435
3.3703785373024626,-0.6777907789438666
3.4037486218302098,-0.6554345440373054
3.437118706357957,-0.47609366203413883
3.470488790885704,-0.1826301976614207
3.503858875413451,0.14527781147868252
3.5372289599411983,0.42198958961440275
3.5705990444689455,0.587226416154861
3.6039691289966926,0.6249302102412584
3.63733921352444,0.5628154917995861
3.670709298052187,0.4547026510534151
3.704079382579934,0.3551066003943178
3.7374494671076812,0.29794426247533
3.7708195516354284,0.2877906517747272
3.8041896361631755,0.30507552912690905
3.8375597206909227,0.31999650371445426
3.87092980521867,0.30715946405866423
3.904299889746417,0.2547959406457261
3.937669974274164,0.1667208531153831
3.9710400588019112,0.05883183112067314
4.004410143329658,-0.04688673822799824
4.0377802278574055,-0.12871429051511493
4.071150312385153,-0.17085203588001602
4.1045203969129,-0.1675990672697618
4.137890481440647,-0.12500545578905706
4.171260565968394,-0.05919726751174648
4.204630650496141,0.00834384167729705
4.238000735023888,0.057013828369179426
4.2713708195516356,0.07282796701370314
4.304740904079383,0.052143964335560504
4.33811098860713,0.002580179663648831
4.371481073134877,-0.05928094362020306
4.404851157662624,-0.11353623643866409
4.438221242190371,-0.1450528302702845
4.471591326718118,-0.15116642598385416
4.504961411245866,-0.14465328716395953
4.538331495773613,-0.14860796792841147
4.57170158030136,-0.18390465738024028
4.605071664829107,-0.25502351267351947
4.638441749356854,-0.34253208154704645
4.671811833884601,-0.4079108915103322
4.7051819184123485,-0.40965044469687617
4.738552002940096,-0.3228255737972191
4.771922087467843,-0.15219663432769479
4.80529217199559,0.06731963672444914
4.838662256523337,0.2820538847486971
4.872032341051084,0.43679251784553075
4.905402425578831,0.49088118943137615
4.9387725101065785,0.42908741714955745
4.972142594634326,0.26625035978898925
5.005512679162073,0.045823298895834676
5.03888276368982,-0.16831916954921863
5.072252848217567,-0.30758476750417624
5.105622932745314,-0.3201914185111749
5.138993017273061,-0.19231977242974782
5.1723631018008085,0.04065297659653446
5.205733186328556,0.3009596246845901
5.239103270856303,0.49428396865695107
5.27247335538405,0.5459129751790968
5.305843439911797,0.43179749923080557
5.339213524439544,0.19000028949226144
5.372583608967291,-0.09332115998244728
5.4059536934950385,-0.3173065238428943
5.439323778022786,-0.40437831716830125
5.472693862550533,-0.32706577844357776
5.50606394707828,-0.11442631547001443
5.539434031606027,0.16153263688970126
5.572804116133774,0.411583288739778
5.606174200661521,0.5569765534088791
5.6395442851892685,0.5509961481360208
5.672914369717016,0.3899239214076204
5.706284454244763,0.11201679031686762
5.73965453877251,-0.21471441578980968
5.773024623300257,-0.5128299519690491
5.806394707828004,-0.7180946613867734
5.839764792355751,-0.796849583686748
5.873134876883499,-0.7516752145284549
5.906504961411246,-0.613593620538997
5.939875045938993,-0.42545836122877373
5.97324513046674,-0.2255745746890124
6.006615214994487,-0.039809164169903946
6.039985299522234,0.11558197096602658
6.073355384049981,0.2258022583970498
6.106725468577729,0.2733626745863077
6.140095553105476,0.2442794173683448
6.173465637633223,0.14253394756832943
6.20683572216097,0.002429334299183212
6.240205806688717,-0.1133900831830675
6.273575891216464,-0.13544187640585176
6.3069459757442115,-0.02114441581938995
6.340316060271959,0.21663388926684005
6.373686144799706,0.5042660741047101
6.407056229327454,0.7327529199207322
6.440426313855201,0.8047452905402884
6.473796398382948,0.6810791211358203
6.507166482910695,0.4029059280736057
6.540536567438442,0.07658188884876042
6.5739066519661895,-0.17312996296412927
6.607276736493937,-0.25986398646420866
6.640646821021684,-0.17528500564181745
6.674016905549431,0.007688648248152608
6.707386990077178,0.16994130358262852
6.740757074604925,0.20313579189749648
6.774127159132672,0.06192237439537639
6.8074972436604195,-0.21299293248394238
6.840867328188167,-0.5116682861402263
6.874237412715914,-0.7039466773300634
6.907607497243661,-0.698265619795259
6.940977581771408,-0.4834922275520086
6.974347666299155,-0.13493397649117458
7.007717750826902,0.21781116973603096
7.0410878353546495,0.4460165527462935
7.074457919882397,0.4745995431995828
7.107828004410144,0.3090010226846844
7.141198088937891,0.025738698688444125
7.174568173465638,-0.26620015609962355
7.207938257993385,-0.47280603678112737
7.241308342521132,-0.5487510090262662
7.27467842704888,-0.5038297859204308
7.308048511576627,-0.38346577964693995
7.341418596104374,-0.2371518118789091
7.374788680632121,-0.0928489055525836
7.408158765159868,0.05003758724326303
7.441528849687615,0.20774545880106907
7.4748989342153624,0.3888903308533583
7.50826901874311,0.57559672608573
7.541639103270857,0.7209181236760325
7.575009187798604,0.7653958630394126
7.608379272326351,0.6652051138470404
7.641749356854098,0.41786608756045335
7.675119441381845,0.07207086619048021
7.7084895259095925,-0.28463245606292586
7.74185961043734,-0.5562311248030888
7.775229694965087,-0.6739827205029755
7.808599779492834,-0.621792928931841
7.841969864020581,-0.43985770473432
7.875339948548328,-0.205116544806963
7.908710033076075,0.0019784348529986303
7.9420801176038225,0.1284428610967575
7.97545020213157,0.1633122051227677
8.008820286659317,0.13085915292353364
8.042190371187063,0.06918793307730566
8.075560455714811,0.00804754054720346
8.108930540242557,-0.041792888285106106
8.142300624770305,-0.08397588077424237
8.175670709298052,-0.12307002274580758
8.2090407938258,-0.15314820041526642
8.242410878353546,-0.15649761466274278
8.275780962881294,-0.112805703748406
8.30915104740904,-0.012184351887685555
8.342521131936788,0.13655062243819205
8.375891216464534,0.3073226509877895
8.409261300992283,0.4667015932705343
8.442631385520029,0.5861619334605551
8.476001470047777,0.649789992728683
8.509371554575523,0.6539537411224864
8.542741639103271,0.6008476462230984
8.57611172363102,0.4918362355948055
8.609481808158765,0.32645187789781377
8.642851892686513,0.10851683312223528
8.67622197721426,-0.14506169163000598
8.709592061742008,-0.40046796205693197
8.742962146269754,-0.6135047361987711
8.776332230797502,-0.7452140356700296
8.809702315325248,-0.7787517240112269
8.843072399852996,-0.7277809213733573
8.876442484380743,-0.630901583914971
8.90981256890849,-0.5343008450600664
8.943182653436237,-0.471037391352447
8.976552737963985,-0.4466424151208375
9.009922822491731,-0.4370086830826663
9.04329290701948,-0.3987233314571027
9.076662991547225,-0.28732125260225594
9.110033076074973,-0.07686629358800598
9.14340316060272,0.2256027848795387
9.176773245130468,0.5757590154250523
9.210143329658214,0.9002239469376547
9.243513414185962,1.1160279426595525
9.276883498713708,1.1558193385648463
9.310253583241456,0.9905791938131951
9.343623667769203,0.6418991406256899
9.37699375229695,0.17945156258128692
9.410363836824697,-0.29551115594680444
9.443733921352445,-0.6754130265823503
9.477104005880191,-0.8733068297704295
9.51047409040794,-0.8450971350609258
9.543844174935685,-0.6022882358494696
9.577214259463434,-0.21195756819145722
9.61058434399118,0.2179195942056812
9.643954428518928,0.5668398600253409
9.677324513046674,0.7378912324080279
9.710694597574422,0.6901891952710028
9.744064682102168,0.4540107857701852
9.777434766629916,0.11947583361711916
9.810804851157663,-0.19945100330014953
9.84417493568541,-0.41130376688601133
9.877545020213157,-0.4825045159850003
9.910915104740905,-0.44431881801921674
9.944285189268651,-0.36782143860198907
9.9776552737964,-0.32030465344553416
10.011025358324146,-0.3268870023092833
10.044395442851894,-0.35823871570547244
10.07776552737964,-0.35050623827305355
10.111135611907388,-0.24530234999027842
10.144505696435134,-0.026823319027528207
10.177875780962882,0.26417537417746345
10.211245865490628,0.5460551931323839
10.244615950018376,0.732065864114142
10.277986034546123,0.7673904925856734
10.31135611907387,0.6501442278351648
10.344726203601617,0.42871428491693486
10.378096288129365,0.17942791542040204
10.411466372657111,-0.02381689540693126
10.44483645718486,-0.13511672707691724
10.478206541712606,-0.14856067591232433
10.511576626240354,-0.09420028693172486
10.5449467107681,-0.02131510466879258
10.578316795295848,0.023765188857896764
10.611686879823594,0.016349877283495757
10.645056964351342,-0.0392272929591326
10.678427048879088,-0.11687812334307883
10.711797133406836,-0.18701525480484749
10.745167217934583,-0.23569335357580146
10.77853730246233,-0.2730095917815762
10.811907386990077,-0.3247433905625488
10.845277471517825,-0.4114997255296516
10.878647556045571,-0.5282286325840866
10.91201764057332,-0.6378917544013921
10.945387725101066,-0.6850222012182086
10.978757809628814,-0.6227554478408607
11.01212789415656,-0.4382676959457828
11.045497978684308,-0.1619633826920369
11.078868063212054,0.1449460175998845
11.112238147739802,0.41731109462213306
11.145608232267548,0.6121102962003282
11.178978316795297,0.7196739958572734
11.212348401323043,0.7556220773860496
11.24571848585079,0.7409215177022045
11.279088570378537,0.6841539976887436
11.312458654906285,0.577607127278901
11.345828739434031,0.4090886744800873
11.37919882396178,0.18084050694662435
11.412568908489526,-0.07775220318346358
11.445938993017274,-0.31314078802576
11.47930907754502,-0.4661729568978523
11.512679162072768,-0.4968105853442943
11.546049246600514,-0.4020267187435022
11.579419331128262,-0.21781372387220577
11.612789415656009,-0.004883438216515897
11.646159500183757,0.17417640757945588
11.679529584711503,0.27527938436604404
11.71289966923925,0.2826676373126364
11.746269753766997,0.20677037624838102
11.779639838294745,0.07473649456602464
11.813009922822491,-0.07969192873473237
11.84638000735024,-0.2227573224680402
11.879750091877986,-0.32389683031817607
11.913120176405734,-0.3585709287655399
11.94649026093348,-0.3130198175963312
11.979860345461228,-0.1900644917390225
12.013230429988974,-0.01224159907772202
12.046600514516722,0.18142459186743273
12.079970599044469,0.3456395420654198
12.113340683572217,0.4426107171384168
12.146710768099963,0.4535798031937735
12.180080852627711,0.38311934313911217
12.213450937155457,0.25465920863715463
12.246821021683205,0.09991300864658076
12.280191106210951,-0.05240690368489363
12.3135611907387,-0.18342126623376875
12.346931275266446,-0.28435537813727846
12.380301359794194,-0.3522218346120558
12.41367144432194,-0.3853909593167142
12.447041528849688,-0.3827901340793014
12.480411613377434,-0.3470769587450936
12.513781697905182,-0.2885959707305191
12.547151782432929,-0.22585824393573758
12.580521866960677,-0.180431291513342
12.613891951488423,-0.1679569900616603
12.647262036016171,-0.18994932063441652
12.680632120543917,-0.231215737621497
12.714002205071665,-0.2651006669739985
12.747372289599411,-0.26475738204896365
12.78074237412716,-0.21542092550339445
12.814112458654908,-0.12178251051429884
12.847482543182654,-0.006469133952445896
12.880852627710402,0.10046436409066264
12.914222712238148,0.17674872792765692
12.947592796765896,0.2205396225582951
12.980962881293642,0.2533112907881223
13.01433296582139,0.3098116544710792
13.047703050349137,0.4184964815423647
13.081073134876885,0.5817786973076857
13.114443219404631,0.7669392994754102
13.147813303932379,0.9140953845070771
13.181183388460125,0.9591842545400974
13.214553472987873,0.8619788035368665
13.24792355751562,0.6260073116229248
13.281293642043368,0.30061931707390843
13.314663726571114,-0.036352905713402314
13.348033811098862,-0.3078795803913644
13.381403895626608,-0.4660434223223262
13.414773980154356,-0.5070745064061849
13.448144064682102,-0.4670814032263574
13.48151414920985,-0.40129503742019434
13.514884233737597,-0.3569560718018047
13.548254318265345,-0.35253299458689796
13.581624402793091,-0.37269902068891836
13.614994487320839,-0.38088176157674974
13.648364571848585,-0.34265264936886336
13.681734656376333,-0.247781382822457
13.71510474090408,-0.11928544321011934
13.748474825431828,-0.004343929695220994
13.781844909959574,0.0485555721205269
13.815214994487322,0.014372685223085076
13.848585079015068,-0.09494715693154496
13.881955163542816,-0.23536376652690846
13.915325248070562,-0.35139122171870363
13.94869533259831,-0.4014913777300028
13.982065417126057,-0.37499421587015763
14.015435501653805,-0.29232062023695127
14.048805586181551,-0.1895503336724811
14.082175670709299,-0.09675830051917415
14.115545755237045,-0.022482696880779127
14.148915839764793,0.047301672474130696
14.18228592429254,0.13586443235831897
14.215656008820288,0.2563690986666224
14.249026093348034,0.3979741020789937
14.282396177875782,0.525488386948758
14.315766262403528,0.5930550113980452
14.349136346931276,0.5649816616416168
14.382506431459023,0.4336116864416978
14.41587651598677,0.22610489122676156
14.449246600514517,-0.002609714765075479
14.482616685042265,-0.187656234609142
14.515986769570011,-0.2759492806771685
14.54935685409776,-0.24404997631362643
14.582726938625505,-0.10599006576387762
14.616097023153253,0.09162412121664572
14.649467107681,0.28558126998242045
14.682837192208748,0.4174759390886491
14.716207276736494,0.4527417561489773
14.749577361264242,0.3902264484104456
14.782947445791988,0.2589242782005171
14.816317530319736,0.10374709163250721
14.849687614847483,-0.033246683318374985
14.88305769937523,-0.12802458858571114
14.916427783902977,-0.17993437938135695
14.949797868430725,-0.20572524166500886
14.983167952958471,-0.22605482424086315
15.01653803748622,-0.25177394257121727
15.049908122013965,-0.2772073348422433
15.083278206541713,-0.28397404250406955
15.11664829106946,-0.2533133791832513
15.150018375597208,-0.18015153144226295
15.183388460124954,-0.08078187278647608
15.216758544652702,0.010988102236555997
15.250128629180448,0.058332324629862695
15.283498713708196,0.039658957641242054
15.316868798235943,-0.03887118792456916
15.35023888276369,-0.14361410684251216
15.383608967291437,-0.22718846788286343
15.416979051819185,-0.24945445508362316
15.450349136346931,-0.19569410680587115
15.48371922087468,-0.08329082580868874
15.517089305402425,0.04614140771809585
15.550459389930174,0.1452447252493737
15.58382947445792,0.18125213549496622
15.617199558985668,0.14889974805051825
15.650569643513414,0.07044614107444505
15.683939728041162,-0.016534208433743577
15.717309812568908,-0.07729779279612886
15.750679897096656,-0.09515137326695215
15.784049981624403,-0.07651406889793767
15.81742006615215,-0.04377097935320358
15.850790150679897,-0.020189013317828977
15.884160235207645,-0.015451642003385828
15.917530319735391,-0.020168939118801077
15.95090040426314,-0.012775242081233644
15.984270488790886,0.025003592346407456
16.017640573318634,0.09334330695814441
16.05101065784638,0.16959883449241436
16.084380742374126,0.21761203410706814
16.117750826901876,0.20685092754755968
16.151120911429622,0.13111415962528414
16.18449099595737,0.01613573464605711
16.217861080485115,-0.08900288169273227
16.251231165012864,-0.13326400106260727
16.28460124954061,-0.08763063125942604
16.317971334068357,0.040161174678179756
16.351341418596103,0.2075644726064342
16.384711503123853,0.3551072090283059
16.4180815876516,0.4316908066635114
16.451451672179346,0.4152580958794643
16.484821756707092,0.31931728008863797
16.51819184123484,0.18306662227919718
16.551561925762588,0.051105352739761266
16.584932010290334,-0.04636604957496289
16.61830209481808,-0.10298446133605992
16.65167217934583,-0.13181301983339527
16.685042263873576,-0.15162101451164037
16.718412348401323,-0.17329146557784264
16.75178243292907,-0.19465552512421788
16.78515251745682,-0.20580735062405642
16.818522601984565,-0.19981484129168534
16.85189268651231,-0.18042933079113846
16.885262771040058,-0.16098681025197056
16.918632855567807,-0.15526388912916586
16.952002940095554,-0.16700955596126832
16.9853730246233,-0.18605431125741614
17.018743109151046,-0.1944187708968451
17.052113193678796,-0.17877406208269173
17.085483278206542,-0.1408764052220844
17.11885336273429,-0.09852848852080066
17.15222344726204,-0.07560740313204366
17.185593531789785,-0.08675768820238679
17.21896361631753,-0.12595352787423444
17.252333700845277,-0.1661581779377132
