Time (s),Filtered Signal
0.0,-0.014062632202190612
0.033370535714285714,0.008483056755850647
0.06674107142857143,-0.037227368119933255
0.10011160714285713,-0.1851954041195033
0.13348214285714285,-0.4172152553449112
0.16685267857142858,-0.6701407813869293
0.20022321428571427,-0.864107775414208
0.23359375,-0.9374988007698968
0.2669642857142857,-0.8717181560723304
0.30033482142857143,-0.6948051592691382
0.33370535714285715,-0.4641247840181915
0.36707589285714287,-0.23865882693213442
0.40044642857142854,-0.05540885457707137
0.43381696428571426,0.07944125097646253
0.4671875,0.18281463934728287
0.5005580357142857,0.27731256163618573
0.5339285714285714,0.37480967791827186
0.5672991071428571,0.46961200933433617
0.6006696428571429,0.5433443093031439
0.6340401785714286,0.577052537298412
0.6674107142857143,0.5625923312282858
0.70078125,0.5067205560374786
0.7341517857142857,0.4262293032375655
0.7675223214285715,0.3379149558313402
0.8008928571428571,0.250009942466484
0.8342633928571428,0.16040819547175797
0.8676339285714285,0.06250842029038245
0.9010044642857142,-0.04542910140689151
0.934375,-0.15385080040561266
0.9677455357142857,-0.24313929646535679
1.0011160714285714,-0.2925109911741993
1.0344866071428571,-0.29169518749235435
1.0678571428571428,-0.24843902217286382
1.1012276785714286,-0.18695031676698057
1.1345982142857143,-0.13743287728138878
1.16796875,-0.12194094159994685
1.2013392857142857,-0.14393431902780252
1.2347098214285714,-0.1869714028998788
1.2680803571428572,-0.22314688363186033
1.3014508928571429,-0.2269053810086898
1.3348214285714286,-0.18732276190394515
1.3681919642857143,-0.11291731578230002
1.4015625,-0.026809019596755322
1.4349330357142858,0.045297421535411136
1.4683035714285715,0.08835858934487341
1.5016741071428572,0.1057350576304921
1.535044642857143,0.11703300878245101
1.5684151785714286,0.1462870666581123
1.6017857142857141,0.2057711929683185
1.6351562499999999,0.28378052497201917
1.6685267857142856,0.34391772035300266
1.7018973214285713,0.3384899194355716
1.735267857142857,0.23151095725096538
1.7686383928571427,0.02101173626163483
1.8020089285714285,-0.2508097204746752
1.8353794642857142,-0.5064751111830657
1.86875,-0.6595221283337583
1.9021205357142856,-0.6481542587668225
1.9354910714285714,-0.46195357424427425
1.968861607142857,-0.14954781794385844
2.002232142857143,0.19703403374504347
2.0356026785714287,0.4755115366031984
2.0689732142857142,0.61046760469807
2.10234375,0.5790919691772063
2.1357142857142857,0.4152806576675738
2.169084821428571,0.19146224042690946
2.202455357142857,-0.012772308948274485
2.2358258928571426,-0.14099954719566452
2.2691964285714286,-0.17672722789556672
2.302566964285714,-0.14140233238345168
2.3359375,-0.07737415266399496
2.3693080357142855,-0.025531135018796662
2.4026785714285714,-0.008066933552691929
2.436049107142857,-0.02287559054494493
2.469419642857143,-0.05000813823230337
2.5027901785714284,-0.06533865764166645
2.5361607142857143,-0.05408152661503847
2.56953125,-0.017732797551066094
2.6029017857142858,0.028280684749535236
2.6362723214285713,0.06419922045208805
2.669642857142857,0.07714261176890078
2.7030133928571427,0.06767420921913417
2.7363839285714286,0.04816792387348183
2.769754464285714,0.0341086674664396
2.803125,0.03355744910354601
2.8364955357142856,0.04118950353532722
2.8698660714285715,0.040793703410570745
2.903236607142857,0.015238152188393802
2.936607142857143,-0.04159328852850515
2.9699776785714285,-0.1179086335485699
3.0033482142857144,-0.18675842500004167
3.03671875,-0.21790082616021547
3.070089285714286,-0.19314819862146837
3.1034598214285714,-0.11726459969111323
3.1368303571428573,-0.018339063592909627
3.170200892857143,0.06328850923805611
3.2035714285714283,0.09268131570291772
3.2369419642857142,0.05627951494019894
3.2703124999999997,-0.03131157821715762
3.3036830357142857,-0.1328014878234143
3.337053571428571,-0.20331954599853208
3.370424107142857,-0.20834726244856733
3.4037946428571426,-0.13692138639129212
3.4371651785714286,-0.005148569267254536
3.470535714285714,0.15056414990309636
3.50390625,0.2871131495177171
3.5372767857142855,0.3694831877139041
3.5706473214285714,0.3811952991219157
3.604017857142857,0.3269919369978274
3.637388392857143,0.22751933834774155
3.6707589285714284,0.10895706757942387
3.7041294642857143,-0.007431875570587353
3.7375,-0.11094789601037146
3.7708705357142858,-0.19982970791491167
3.8042410714285713,-0.273736951715552
3.837611607142857,-0.3252167410370844
3.8709821428571427,-0.3362445253577736
3.9043526785714286,-0.2837743699408764
3.937723214285714,-0.15326707383771423
3.97109375,0.04625973537912295
4.004464285714286,0.2747686023208342
4.0378348214285715,0.46808406162745614
4.0712053571428575,0.5590304162837719
4.1045758928571425,0.5048246017749847
4.1379464285714285,0.30822923610455083
4.171316964285714,0.02168814078900925
4.2046875,-0.2690116371375537
4.238058035714285,-0.47567981160350603
4.271428571428571,-0.540588902885992
4.304799107142857,-0.45745996632016045
4.338169642857142,-0.2717475681721757
4.371540178571428,-0.060264686315595964
4.404910714285714,0.1009307013474635
4.43828125,0.16644480133960599
4.471651785714285,0.13645493033741396
4.505022321428571,0.05077382204957639
4.538392857142857,-0.03405896867942571
4.571763392857143,-0.07289143700245436
4.605133928571428,-0.05138679214935036
4.638504464285714,0.0122122901400025
4.671875,0.082362259182288
4.705245535714286,0.1287081504395267
4.738616071428571,0.14231177932161407
4.771986607142857,0.13635420713962904
4.805357142857143,0.13182064930874055
4.838727678571429,0.13820335420462523
4.872098214285714,0.14260610398623055
4.90546875,0.11549238998879102
4.938839285714286,0.030634171831635734
4.972209821428572,-0.11284688799255893
5.005580357142857,-0.28089805078463737
5.038950892857143,-0.41526875583362804
5.072321428571429,-0.46034128248527784
5.105691964285715,-0.3917145006699727
5.1390625,-0.2303585384200242
5.172433035714286,-0.03391835934987163
5.2058035714285715,0.13048852918588494
5.2391741071428575,0.2174226890038662
5.2725446428571425,0.22183825051899297
5.3059151785714285,0.17626593221790526
5.339285714285714,0.1292945869272364
5.3726562499999995,0.11798904979810787
5.406026785714285,0.14939564479362596
5.439397321428571,0.2005554780903609
5.472767857142857,0.23590005426106087
5.506138392857142,0.23130111858911204
5.539508928571428,0.19045799538136515
5.572879464285714,0.1436141097579771
5.60625,0.12857168447837614
5.639620535714285,0.16433472526769288
5.672991071428571,0.2327609848403911
5.706361607142857,0.2802844670362734
5.739732142857143,0.2414648695990373
5.773102678571428,0.07408587899459239
5.806473214285714,-0.2118365835910813
5.83984375,-0.5472860738810846
5.873214285714286,-0.8258025523884023
5.906584821428571,-0.9455353657436617
5.939955357142857,-0.8531575399975232
5.973325892857143,-0.5690266148885564
6.006696428571429,-0.18121907585987249
6.040066964285714,0.18936826405793653
6.0734375,0.4370636967205198
6.106808035714286,0.511030376795556
6.140178571428572,0.4295383902686024
6.173549107142857,0.2643933642851162
6.206919642857143,0.1046911511440282
6.240290178571429,0.0175000813618704
6.273660714285715,0.02285580397245306
6.30703125,0.09249917880581945
6.340401785714286,0.1703438391974088
6.3737723214285715,0.20308807245358748
6.407142857142857,0.16581542532742613
6.4405133928571425,0.07110457283374565
6.4738839285714285,-0.04101168128348222
6.507254464285714,-0.12541375364225654
6.5406249999999995,-0.15431530378837177
6.573995535714285,-0.12858117718750967
6.607366071428571,-0.07349629774518131
6.640736607142857,-0.02292091657265365
6.674107142857142,-0.0012538997955902462
6.707477678571428,-0.012615638850501234
6.740848214285714,-0.04183247898112797
6.77421875,-0.0653265128384146
6.807589285714285,-0.06539935958060766
6.840959821428571,-0.0405450518162944
6.874330357142857,-0.00702890616494601
6.907700892857143,0.008734517880545387
6.941071428571428,-0.01652449123412064
6.974441964285714,-0.08979512825255133
7.0078125,-0.19466080366284333
7.041183035714286,-0.29386377735412383
7.074553571428571,-0.34151408327291566
7.107924107142857,-0.30080255964642777
7.141294642857143,-0.16021628017562603
7.174665178571429,0.05885709677139636
7.208035714285714,0.3070571666251868
7.24140625,0.5230598839870939
7.274776785714286,0.6542407792786764
7.308147321428572,0.6736119583593483
7.341517857142857,0.5867032195535006
7.374888392857143,0.42680672601156006
7.408258928571429,0.24180871979036406
7.441629464285715,0.07842309063171983
7.475,-0.03068696280157105
7.508370535714286,-0.07376328649160137
7.5417410714285715,-0.06034695032839681
7.575111607142857,-0.01647922029548163
7.6084821428571425,0.02357832475895279
7.6418526785714285,0.027455106934126935
7.675223214285714,-0.025329130036158064
7.7085937499999995,-0.1360974905527131
7.741964285714285,-0.28526709234755737
7.775334821428571,-0.43764688877095353
7.808705357142857,-0.5537174693697159
7.842075892857142,-0.603118534479314
7.875446428571428,-0.5752655955341834
7.908816964285714,-0.48289845129012854
7.9421875,-0.3570425231501693
7.975558035714285,-0.23516302928715233
8.008928571428571,-0.14694053876575913
8.042299107142856,-0.10317291400535289
8.075669642857143,-0.09234729634614702
8.109040178571428,-0.08652892934599131
8.142410714285715,-0.05429566816040525
8.17578125,0.024798944842277043
8.209151785714285,0.15058265725444522
8.242522321428572,0.30155265665032993
8.275892857142857,0.44297443776875506
8.309263392857142,0.5397275303849678
8.342633928571429,0.5682396468321261
8.376004464285714,0.5231424484236048
8.409375,0.4172740627527056
8.442745535714286,0.27643764049636854
8.47611607142857,0.13162236367757804
8.509486607142858,0.011199880289774455
8.542857142857143,-0.06522585847014149
8.576227678571428,-0.09035145527681109
8.609598214285715,-0.06960431825265403
8.64296875,-0.01854381726239207
8.676339285714285,0.04191110058900934
8.709709821428572,0.09089198738591561
8.743080357142857,0.11202733001536636
8.776450892857143,0.09604783201449985
8.809821428571428,0.04175478997551402
8.843191964285714,-0.043802580260214365
8.8765625,-0.1454514832933449
8.909933035714285,-0.24095746430213313
8.94330357142857,-0.30452370527783856
8.976674107142857,-0.31368460695170775
9.010044642857142,-0.25834911514113906
9.04341517857143,-0.14808846650267812
9.076785714285714,-0.012764955065187966
9.11015625,0.10619725926975353
9.143526785714286,0.1717074564395669
9.176897321428571,0.16703934390011707
9.210267857142856,0.10354630345368737
9.243638392857143,0.01519415383309866
9.277008928571428,-0.057986505179507014
9.310379464285715,-0.08914058301190494
9.34375,-0.07645481172772732
9.377120535714285,-0.0416587576638356
9.410491071428572,-0.016569272001621838
9.443861607142857,-0.025397311120821293
9.477232142857142,-0.07219801555672994
9.510602678571429,-0.13930506835238937
9.543973214285714,-0.19638697373059844
9.57734375,-0.21464042456606963
9.610714285714286,-0.17911264728535917
9.64408482142857,-0.09423482107696354
9.677455357142858,0.018577811850348385
9.710825892857143,0.12917623472081743
9.744196428571428,0.20918054932939667
9.777566964285715,0.2411868840500803
9.8109375,0.22398187061414926
9.844308035714285,0.1722160809324228
9.877678571428572,0.11045818112101058
9.911049107142857,0.06343726073689372
9.944419642857143,0.04609021319205009
9.977790178571428,0.05766613679361134
10.011160714285714,0.08272815774179734
10.04453125,0.09875417474426158
10.077901785714285,0.08676999102627943
10.11127232142857,0.03991692243712844
10.144642857142857,-0.03406771171109287
10.178013392857142,-0.11740609818193223
10.21138392857143,-0.1913412096379781
10.244754464285714,-0.24494719212497743
10.278125,-0.27898802809208645
10.311495535714286,-0.3025296421066807
10.344866071428571,-0.3238089792726625
10.378236607142856,-0.3403043578097608
10.411607142857143,-0.33415500339767434
10.444977678571428,-0.27701638748062707
10.478348214285715,-0.14372734560641387
10.51171875,0.07095634677512967
10.545089285714285,0.34102686644911195
10.578459821428572,0.610274020328223
10.611830357142857,0.8074051697132385
10.645200892857142,0.8702813875451498
10.678571428571429,0.7696343213449508
10.711941964285714,0.5222648746093629
10.745312499999999,0.18789601126172778
10.778683035714286,-0.14942187043356256
10.81205357142857,-0.40827516534486485
10.845424107142858,-0.5351462884297954
10.878794642857143,-0.5190415524620683
10.912165178571428,-0.39096015165853326
10.945535714285715,-0.20933967520992974
10.97890625,-0.03748064535285389
11.012276785714285,0.07848065606523945
11.045647321428572,0.12297515023929237
11.079017857142857,0.1111731665673991
11.112388392857143,0.0766792559562624
11.145758928571428,0.05273541951648908
11.179129464285714,0.05570486845022777
11.2125,0.07843469682037453
11.245870535714285,0.09624627953100433
11.27924107142857,0.08201639667032136
11.312611607142857,0.02227954820419977
11.345982142857142,-0.07408453800298215
11.37935267857143,-0.17899077436099545
11.412723214285714,-0.2582661789207426
11.44609375,-0.2877454614244402
11.479464285714286,-0.26401576204874627
11.512834821428571,-0.204567858882406
11.546205357142856,-0.13782359187846524
11.579575892857143,-0.08872728979167091
11.612946428571428,-0.06759692179225671
11.646316964285715,-0.06782130262918744
11.6796875,-0.07301104393516326
11.713058035714285,-0.06901679438758278
11.746428571428572,-0.05354489669633033
11.779799107142857,-0.037429614709399525
11.813169642857142,-0.03643580818051665
11.846540178571429,-0.05826317445882878
11.879910714285714,-0.09286150591155688
11.913281249999999,-0.11296105449959531
11.946651785714286,-0.0861991229174203
11.98002232142857,0.006641963099867084
12.013392857142858,0.15702369932725488
12.046763392857143,0.3264364510727978
12.080133928571428,0.459423573868935
12.113504464285715,0.5068125342248757
12.146875,0.4484230791562514
12.180245535714285,0.3040568618106602
12.213616071428572,0.12674287157652278
12.246986607142857,-0.019420990860014482
12.280357142857143,-0.08697784694330622
12.313727678571428,-0.0655423571766034
12.347098214285714,0.014775523359868004
12.38046875,0.09882773005644853
12.413839285714285,0.1336735690078377
12.44720982142857,0.0947147697224574
12.480580357142857,-0.0019286029527025453
12.513950892857142,-0.10705893512590423
12.54732142857143,-0.16266174939030636
12.580691964285714,-0.13107692981106564
12.6140625,-0.014603716036115615
12.647433035714286,0.14447551948418613
12.680803571428571,0.28369890469318526
12.714174107142856,0.350083257421714
12.747544642857143,0.32441391450729645
12.780915178571428,0.22767016359425624
12.814285714285713,0.10653166001357219
12.84765625,0.006052707973098428
12.881026785714285,-0.055592984086521066
12.914397321428572,-0.09656586028385201
12.947767857142857,-0.15973721847829064
12.981138392857142,-0.28589716793249376
13.014508928571429,-0.48578178446466624
13.047879464285714,-0.7258392910726219
13.081249999999999,-0.9360851048031352
13.114620535714286,-1.0376293732931865
13.14799107142857,-0.9777228769150202
13.181361607142858,-0.7560775451685602
13.214732142857143,-0.4296788752559267
13.248102678571428,-0.09274430333169167
13.281473214285715,0.16033663440638887
13.31484375,0.27330621955003076
13.348214285714285,0.2507387758773991
13.381584821428572,0.15477283391145955
13.414955357142857,0.07688778285302013
13.448325892857143,0.09696722569472634
13.481696428571428,0.24773638058043268
13.515066964285714,0.5002307474669085
13.5484375,0.776312215671892
13.581808035714285,0.9820238114185912
13.61517857142857,1.0465857133523866
13.648549107142857,0.950092761936173
13.681919642857142,0.728822525685314
13.71529017857143,0.45737977478045455
13.748660714285714,0.216868187501731
13.78203125,0.0635846416217092
13.815401785714286,0.01132060844431412
13.848772321428571,0.03321841350994014
13.882142857142856,0.0798526181972426
13.915513392857143,0.10330685775733066
13.948883928571428,0.07570256762071968
13.982254464285713,-0.004885915641356723
14.015625,-0.12083067865901037
14.048995535714285,-0.2474194127102524
14.082366071428572,-0.3637160872149817
14.115736607142857,-0.45724930566934735
14.149107142857142,-0.5228530018337457
14.182477678571429,-0.5592298722492485
14.215848214285714,-0.5667697165362485
14.249218749999999,-0.5477730283543749
14.282589285714286,-0.507799607364374
14.31595982142857,-0.45607584055147543
14.349330357142858,-0.40382761943057166
14.382700892857143,-0.36096124564399595
14.416071428571428,-0.332551955455731
14.449441964285715,-0.31669108210424385
14.4828125,-0.30464786399221305
14.516183035714285,-0.28348688869327493
14.549553571428572,-0.24052185049350616
14.582924107142857,-0.1683241519965693
14.616294642857143,-0.06849314641191458
14.649665178571428,0.04767653280245847
14.683035714285714,0.16268687403719442
14.71640625,0.2597388684170249
14.749776785714285,0.3301749472197034
14.78314732142857,0.37751340695330177
14.816517857142857,0.4152489482636356
14.849888392857142,0.4588123443973732
14.88325892857143,0.5157324291028001
14.916629464285714,0.5797624410252088
14.95,0.6330270976977811
14.983370535714286,0.6557084562051343
15.016741071428571,0.6380081834878213
15.050111607142856,0.5871621695229738
15.083482142857143,0.5246409271300072
15.116852678571428,0.474189007453009
15.150223214285713,0.446872022281162
15.18359375,0.4315669570074072
15.216964285714285,0.3969461549246069
15.250334821428572,0.30516294080845185
15.283705357142857,0.1312284023527468
15.317075892857142,-0.12124158143991193
15.350446428571429,-0.4158745201364147
15.383816964285714,-0.6935956829773238
15.417187499999999,-0.8928599496786921
15.450558035714286,-0.9714211594582209
15.48392857142857,-0.9205984726020235
15.517299107142858,-0.7667839994372415
15.550669642857143,-0.5607956310246179
15.584040178571428,-0.3606157276144858
15.617410714285715,-0.21479042670435106
15.65078125,-0.15189530176363003
15.684151785714285,-0.1775617469778156
15.717522321428572,-0.27707767962580204
15.750892857142857,-0.42035690449447977
15.784263392857143,-0.5672274352913873
15.817633928571428,-0.673039454473819
15.851004464285714,-0.6956834768921387
15.884375,-0.6043901478507627
15.917745535714285,-0.38880362441077876
15.95111607142857,-0.06526206062228868
15.984486607142857,0.32283953172652985
16.017857142857142,0.7121078955470057
16.05122767857143,1.0325846677773263
16.084598214285712,1.2241677111990652
16.11796875,1.251466557863192
16.151339285714286,1.1129300054281865
16.18470982142857,0.8417527717970106
16.218080357142856,0.49830344084517153
16.251450892857143,0.15590925165931344
16.28482142857143,-0.11663422869929062
16.318191964285713,-0.27164181945486
16.3515625,-0.29399659803820966
16.384933035714287,-0.20417916293734942
16.41830357142857,-0.05147213471965393
16.451674107142857,0.10132947369040632
16.485044642857144,0.19750917834851717
16.518415178571427,0.204211851606559
16.551785714285714,0.12235501428188128
16.58515625,-0.015036025100956875
16.618526785714284,-0.15574092414486404
16.65189732142857,-0.24792956609147773
16.685267857142858,-0.25911153783797763
16.71863839285714,-0.18721698755279106
16.752008928571428,-0.05968631121519286
16.785379464285715,0.0785563748693569
16.81875,0.18269535087724972
16.852120535714285,0.22353863205983623
16.88549107142857,0.19485317467630595
16.91886160714286,0.11071711685879278
16.95223214285714,-0.00418569749986685
16.98560267857143,-0.1256713777115839
17.018973214285715,-0.2373030230172655
17.05234375,-0.3314074968418783
17.085714285714285,-0.4050463510199793
17.119084821428572,-0.4545059072171564
17.152455357142856,-0.47212871541404
17.185825892857142,-0.4476362587969182
17.21919642857143,-0.3734909759035202
17.252566964285712,-0.25157366922057045
17.2859375,-0.09752942907652892
17.319308035714286,0.06003678052385452
17.35267857142857,0.1861440862409091
17.386049107142856,0.2498856190169408
17.419419642857143,0.2350558668985205
17.45279017857143,0.14694790039258357
17.486160714285713,0.012477992272464378
17.51953125,-0.12702266437828544
17.552901785714287,-0.22848756842019943
17.58627232142857,-0.261292039870931
17.619642857142857,-0.21801302671945266
