Frequency (Hz),Amplitude
0.0,2.593873556167191
0.020066889632107024,2.5970060927401244
0.04013377926421405,2.6063687515791423
0.060200668896321065,2.6218579744946724
0.0802675585284281,2.6433053627895817
0.10033444816053512,2.670483585552623
0.12040133779264213,2.7031139359508183
0.14046822742474915,2.740874951636289
0.1605351170568562,2.7834115018651278
0.1806020066889632,2.8303437972447654
0.20066889632107024,2.881275878348322
0.22073578595317725,2.9358032634122124
0.24080267558528426,2.9935195616437107
0.2608695652173913,3.0540219714778036
0.2809364548494983,3.116915673280472
0.3010033444816054,3.181817190382886
0.3210702341137124,3.248356832281395
0.34113712374581934,3.316180353298419
0.3612040133779264,3.3849499639594223
0.3812709030100334,3.454344825723312
0.4013377926421405,3.5240611467338856
0.42140468227424743,3.593811980212742
0.4414715719063545,3.6633268103091194
0.4615384615384615,3.7323509941517923
0.4816053511705685,3.800645114364537
0.5016722408026756,3.8679842837946405
0.5217391304347826,3.934157433745412
0.5418060200668896,3.9989666084915982
0.5618729096989966,4.062226282085669
0.5819397993311036,4.123762708187835
0.6020066889632107,4.1834133096233534
0.6220735785953176,4.241026111354308
0.6421404682274248,4.296459218344723
0.6622073578595318,4.34958033822201
0.6822742474916387,4.400266347550652
0.7023411371237458,4.448402899817832
0.7224080267558528,4.493884072792805
0.7424749163879598,4.536612052689305
0.7625418060200668,4.5764968524761995
0.7826086956521738,4.613456061703539
0.802675585284281,4.647414625306435
0.8227424749163879,4.678304648993232
0.8428093645484949,4.706065229000268
0.862876254180602,4.730642304189689
0.882943143812709,4.751988528670574
0.903010033444816,4.7700631633309865
0.923076923076923,4.78483198487517
0.9431438127090299,4.7962672111637055
0.963210702341137,4.804347441854066
0.983277591973244,4.809057613533288
1.0033444816053512,4.8103889687251655
1.0234113712374582,4.808339038340437
1.0434782608695652,4.8029116373222855
1.0635451505016722,4.794116873421155
1.0836120401337792,4.7819711692143665
1.1036789297658862,4.766497297668246
1.1237458193979932,4.747724431724806
1.1438127090301002,4.725688208582183
1.1638795986622072,4.700430809529814
1.1839464882943145,4.6720010563949375
1.2040133779264215,4.640454525858112
1.2240802675585283,4.605853683099665
1.2441471571906353,4.5682680364466
1.2642140468227423,4.527774314896094
1.2842809364548495,4.4844566705939215
1.3043478260869565,4.438406908536587
1.3244147157190636,4.389724745934484
1.3444816053511706,4.338518103806787
1.3645484949832773,4.284903433457124
1.3846153846153846,4.22900608047614
1.4046822742474916,4.170960688798487
1.4247491638795986,4.110911647060383
1.4448160535117056,4.0490135789996735
1.4648829431438126,3.9854318788355436
1.4849498327759196,3.9203432913600085
1.5050167224080266,3.853936534744456
1.5250836120401337,3.78641296165987
1.5451505016722407,3.717987251044416
1.5652173913043477,3.6488881185162776
1.5852842809364547,3.5793590277819547
1.605351170568562,3.5096588781809945
1.625418060200669,3.4400626344984584
1.6454849498327757,3.3708618541793616
1.6655518394648827,3.302365054029876
1.6856187290969897,3.2348978435352285
1.705685618729097,3.168802735557979
1.725752508361204,3.1044385284025915
1.745819397993311,3.0421791377380076
1.765886287625418,2.982411745218301
1.7859531772575248,2.925534126362797
1.806020066889632,2.8719510277948013
1.826086956521739,2.822069488304076
1.846153846153846,2.7762930442323333
1.866220735785953,2.735014830805068
1.8862876254180598,2.698609687592206
1.9063545150501673,2.667425493708257
1.926421404682274,2.6417740857707885
1.9464882943143813,2.621922231577296
1.966555183946488,2.6080832226831028
1.9866220735785953,2.6004096865759094
2.0066889632107023,2.598988186101476
2.026755852842809,2.603836063637958
2.0468227424749164,2.614900809072308
2.0668896321070234,2.6320620081636745
2.0869565217391304,2.6551356962976786
2.1070234113712374,2.6838807391168955
2.1270903010033444,2.718006716315459
2.1471571906354514,2.757182714566794
2.1672240802675584,2.801046440665036
2.1872909698996654,2.84921313340033
2.2073578595317724,2.901283861158317
2.2274247491638794,2.956852918491213
2.2474916387959865,3.015514158843314
2.267558528428094,3.076866208105913
2.2876254180602005,3.1405165872412946
2.3076923076923075,3.2060848300485794
2.3277591973244145,3.2732047164084688
2.3478260869565215,3.3415257563760954
2.367892976588629,3.410714061334755
2.3879598662207355,3.4804527298581287
2.408026755852843,3.550441861941128
2.4280936454849495,3.620398298869758
2.4481605351170566,3.6900551692991304
2.468227424749164,3.7591613064065195
2.4882943143812706,3.8274805869999806
2.508361204013378,3.8947912314870403
2.5284280936454846,3.9608850936681606
2.548494983277592,4.025566961276551
2.568561872909699,4.088653881821578
2.5886287625418056,4.149974523358241
2.608695652173913,4.209368576053589
2.6287625418060196,4.266686197626925
2.648829431438127,4.3217875037063855
2.668896321070234,4.374542102703448
2.688963210702341,4.424828673822175
2.709030100334448,4.472534586180574
2.7290969899665547,4.517555556640297
2.749163879598662,4.559795343749082
2.769230769230769,4.599165475145931
2.789297658862876,4.635585005820779
2.809364548494983,4.66898030472935
2.82943143812709,4.699284867416642
2.849498327759197,4.726439152483455
2.869565217391304,4.750390439927216
2.8896321070234112,4.771092709593175
2.9096989966555182,4.788506538179346
2.9297658862876252,4.802599013444419
2.9498327759197323,4.813343664470446
2.9698996655518393,4.820720407030506
2.9899665551839463,4.824715503304855
3.0100334448160533,4.82532153537873
3.0301003344481603,4.822537392140662
3.0501672240802673,4.816368269383258
3.0702341137123748,4.806825683090797
3.0903010033444813,4.793927496079232
3.1103678929765888,4.777697958337676
3.1304347826086953,4.758167761605437
3.1505016722408024,4.735374108907589
3.1705685618729094,4.709360799964771
3.1906354515050164,4.680178333590679
3.210702341137124,4.647884028392362
3.2307692307692304,4.612542163294525
3.250836120401338,4.574224139615944
3.270903010033445,4.533008666632443
3.2909698996655514,4.488981972759888
3.311036789297659,4.442238044675715
3.3311036789297654,4.392878896856989
3.351170568561873,4.341014874132363
3.3712374581939795,4.286764989901988
3.391304347826087,4.230257302646988
3.411371237458194,4.171629333188355
3.4314381270903005,4.111028524815801
3.451505016722408,4.048612747824366
3.471571906354515,3.984550849086689
3.491638795986622,3.9190232459472782
3.511705685618729,3.852222561819046
3.531772575250836,3.7843542982326346
3.551839464882943,3.7156375345431516
3.5719063545150496,3.6463056418179924
3.591973244147157,3.5766069913693137
3.612040133779264,3.506805630706739
3.632107023411371,3.437181890141479
3.652173913043478,3.3680328717142833
3.672240802675585,3.2996727585296988
3.692307692307692,3.232432867189962
3.712374581939799,3.1666613494487925
3.732441471571906,3.102722432623743
3.752508361204013,3.0409950736271907
3.7725752508361197,2.981870891517807
3.7926421404682276,2.9257512420184018
3.8127090301003346,2.8730433091246397
3.832775919732441,2.82415511877697
3.852842809364548,2.779489432154204
3.872909698996655,2.7394365542109296
3.8929765886287626,2.704366195794185
3.9130434782608696,2.6746186488731363
3.933110367892976,2.6504956614276423
3.953177257525083,2.6322515124365524
3.9732441471571907,2.6200848653462443
3.9933110367892977,2.6141319982694777
4.013377926421405,2.6144619556721778
4.033444816053511,2.6210740367670815
4.053511705685618,2.633897843333248
4.073578595317726,2.652795881827305
4.093645484949833,2.6775684876787857
4.113712374581939,2.7079606495766213
4.133779264214047,2.74367018536742
4.153846153846153,2.7843566712215084
4.173913043478261,2.8296505485992496
4.193979933110368,2.8791619135253055
4.214046822742475,2.932488607492224
4.234113712374581,2.9892233562507338
4.254180602006689,3.0489598231520336
4.274247491638796,3.111297545244829
4.294314381270903,3.1758457971221397
4.314381270903009,3.2422264789355335
4.334448160535117,3.3100761539031516
4.354515050167224,3.379047371635963
4.374581939799331,3.448809411717333
4.394648829431437,3.5190485717813744
4.414715719063545,3.5894681095787444
4.434782608695651,3.6597879319600004
4.454849498327759,3.729744107219206
4.474916387959866,3.7990882619667103
4.494983277591973,3.8675869102351146
4.5150501672240795,3.9350207510842647
4.535117056856188,4.001183961535546
4.555183946488294,4.065883504071356
4.575250836120401,4.128938461953662
4.595317725752508,4.19017941099687
4.615384615384615,4.249447832934458
4.635451505016722,4.30659557292682
4.655518394648829,4.3614843418807645
4.6755852842809364,4.413985262930817
4.695652173913043,4.463978460537976
4.71571906354515,4.511352690089845
4.735785953177258,4.5560050055539225
4.7558528428093645,4.597840462579281
4.775919732441471,4.636771854411907
4.795986622073578,4.672719478047874
4.816053511705686,4.705610928167981
4.8361204013377925,4.735380916557524
4.856187290969899,4.761971114899311
4.8762541806020065,4.785330019026759
4.896321070234113,4.805412832929363
4.916387959866221,4.822181371009495
4.936454849498328,4.835603977294561
4.956521739130435,4.8456554605103666
4.976588628762541,4.852317044118421
4.996655518394649,4.855576330612999
5.016722408026756,4.855427279562364
5.036789297658863,4.851870199064137
5.056856187290969,4.844911750468312
5.076923076923077,4.834564966403607
5.096989966555184,4.820849282325598
5.117056856187291,4.803790581989242
5.137123745819398,4.7834212574351485
5.157190635451505,4.759780284269167
5.177257525083611,4.732913313209709
5.197324414715719,4.702872779076241
5.217391304347826,4.669718028595601
5.237458193979933,4.633515468609383
5.257525083612039,4.59433873647249
5.277591973244148,4.552268894637031
5.297658862876254,4.507394651610744
5.317725752508361,4.459812611656332
5.337792642140468,4.409627555745923
5.357859531772575,4.356952756385084
5.377926421404682,4.301910328951546
5.397993311036789,4.244631622122863
5.418060200668896,4.185257649753703
5.438127090301003,4.123939566152769
5.458193979933109,4.0608391860319175
5.478260869565218,3.99612954936509
5.498327759197324,3.9299955298908205
5.518394648829431,3.862634483878563
5.538461538461538,3.7942569328873574
5.558528428093646,3.725087270376163
5.578595317725752,3.6553644769518856
5.598662207357859,3.585342822517699
5.618729096989966,3.515292525367435
5.638795986622073,3.445500328150106
5.65886287625418,3.3762699384810584
5.678929765886288,3.3079222678508553
5.698996655518394,3.240795386711395
5.719063545150501,3.175244096966357
5.739130434782608,3.111639006928202
5.759197324414716,3.0503649802875983
5.7792642140468224,2.9918188228539497
5.799331103678929,2.9364060728015
5.8193979933110365,2.884536776668729
5.839464882943144,2.8366201693773947
5.8595317725752505,2.7930582362109644
5.879598662207358,2.7542382198812003
5.8996655518394645,2.720524244305457
5.919732441471571,2.6922483505924606
5.9397993311036785,2.669701365517255
5.959866220735786,2.6531241282269153
5.9799331103678925,2.6426996640685005
5.999999999999999,2.6385468946306037
6.020066889632107,2.64071639821518
6.040133779264214,2.6491885865938585
6.060200668896321,2.663874459386133
6.080267558528428,2.6846188672207774
6.100334448160535,2.7112059957911705
6.120401337792642,2.743366609011167
6.1404682274247495,2.780786483902931
6.160535117056856,2.823115440498951
6.180602006688963,2.8699764098084595
6.200668896321069,2.9209740738462537
6.2207357859531776,2.9757027311311086
6.240802675585284,3.0337531671358655
6.260869565217391,3.0947184249478514
6.280936454849498,3.158198466362274
6.301003344481605,3.223803783451733
6.321070234113712,3.291158065767439
6.341137123745819,3.359900052146743
6.361204013377926,3.4296847033983227
6.381270903010033,3.500183827836623
6.40133779264214,3.571086280100061
6.421404682274248,3.6420978383755007
6.441471571906354,3.712940848576558
6.461538461538461,3.783353707848694
6.481605351170568,3.8530902449858737
6.501672240802676,3.921919042427628
6.521739130434782,3.98962273361087
6.54180602006689,4.055997300513896
6.561872909698996,4.120851389071023
6.581939799331103,4.184005654520043
6.60200668896321,4.245292144425399
6.622073578595318,4.304553723863598
6.642140468227424,4.361643544852391
6.662207357859531,4.416424560373588
6.682274247491639,4.468769082127842
6.702341137123746,4.518558380347621
6.722408026755852,4.565682323482698
6.742474916387959,4.610039055283607
6.762541806020066,4.6515347066828925
6.782608695652174,4.690083139864823
6.80267558528428,4.725605721987157
6.822742474916388,4.758031126147312
6.842809364548494,4.787295157350171
6.862876254180601,4.81334060142231
6.882943143812709,4.836117095016994
6.903010033444816,4.855581015059943
6.9230769230769225,4.871695386191695
6.94314381270903,4.884429804966799
6.963210702341137,4.893760379770684
6.983277591973244,4.899669685611324
7.0033444816053505,4.902146733135209
7.023411371237458,4.901186951405437
7.0434782608695645,4.896792184165539
7.063545150501672,4.888970699496371
7.083612040133779,4.8777372129569825
7.103678929765886,4.86311292448368
7.123745819397993,4.845125569507837
7.143812709030099,4.823809484941104
7.1638795986622075,4.799205690869046
7.183946488294314,4.7713619889908765
7.204013377926421,4.740333079043561
7.224080267558528,4.7061806946532005
7.2441471571906355,4.668973760262959
7.264214046822742,4.6287885709929215
7.2842809364548495,4.58570899748763
7.304347826086956,4.539826717995884
7.324414715719063,4.49124148009402
7.34448160535117,4.440061394595104
7.364548494983278,4.386403264262847
7.384615384615384,4.330392949945344
7.404682274247491,4.272165776624598
7.424749163879598,4.2118669815991305
7.444816053511706,4.149652206518433
7.464882943143812,4.085688034193923
7.48494983277592,4.020152569924964
7.505016722408026,3.9532360653791763
7.525083612040134,3.8851415807052234
7.545150501672239,3.8160856773566576
7.565217391304348,3.7462991298578054
7.585284280936455,3.6760276392184044
7.605351170568561,3.6055325236537787
7.625418060200669,3.5350913534627204
7.645484949832775,3.4649984861670236
7.665551839464882,3.39556544525643
7.685618729096991,3.3271210712404318
7.705685618729096,3.260011357640066
7.725752508361204,3.1945988680009347
7.74581939799331,3.1312616145700316
7.765886287625418,3.0703912673824765
7.785953177257525,3.0123905575153307
7.806020066889631,2.9576697444439883
7.826086956521739,2.9066420396414987
7.846153846153847,2.8597179215644224
7.866220735785952,2.817298344510808
7.88628762541806,2.7797669362564963
7.906354515050166,2.747481393041965
7.926421404682274,2.7207644055517513
7.946488294314381,2.699894569748798
7.966555183946488,2.6850978305538704
7.986622073578595,2.676540051804979
8.006688963210701,2.6743212842491793
8.02675585284281,2.6784722062157185
8.046822742474916,2.688953045323137
8.066889632107022,2.7056550755488313
8.08695652173913,2.728404555029222
8.107023411371236,2.7569687625044326
8.127090301003344,2.7910636355420384
8.147157190635452,2.830362430351183
8.167224080267557,2.8745048144763934
8.187290969899665,2.9231058593669292
8.207357859531772,2.9757645001154005
8.227424749163879,3.032071151878531
8.247491638795987,3.091614296155564
8.267558528428093,3.1539859601269824
8.2876254180602,3.218786100007706
8.307692307692307,3.2856259619838117
8.327759197324415,3.3541305331550944
8.347826086956522,3.4239402138522417
8.367892976588628,3.4947118465746274
8.387959866220736,3.5661192303670535
8.408026755852843,3.637853236815034
8.42809364548495,3.7096216281647014
8.448160535117056,3.7811486616238974
8.468227424749163,3.8521745481353786
8.488294314381271,3.9224548196697633
8.508361204013378,3.9917596467515644
8.528428093645484,4.0598731375949075
8.548494983277592,4.126592641789394
8.568561872909697,4.191728074747478
8.588628762541806,4.255101273865152
8.608695652173914,4.316545393317768
8.628762541806019,4.3759043413839445
8.648829431438127,4.4330322619640405
8.668896321070234,4.487793060362351
8.68896321070234,4.540059972293443
8.709030100334449,4.589715174335253
8.729096989966555,4.636649433595038
8.749163879598662,4.680761794103598
8.769230769230768,4.721959297355259
8.789297658862875,4.760156734419531
8.809364548494983,4.795276427135893
8.82943143812709,4.827248036038563
8.849498327759196,4.856008392827402
8.869565217391303,4.881501355390315
8.889632107023411,4.903677683582828
8.909698996655518,4.922494934175301
8.929765886287624,4.9379173735838355
8.949832775919733,4.949915907203846
8.96989966555184,4.958468024365305
8.989966555183946,4.96355775812428
9.010033444816054,4.965175659297214
9.030100334448159,4.963318784332934
9.050167224080267,4.95799069680376
9.070234113712376,4.949201482481152
9.09030100334448,4.936967778146765
9.110367892976589,4.921312814474407
9.130434782608695,4.902266473506688
9.150501672240802,4.879865361440121
9.17056856187291,4.854152897627541
9.190635451505017,4.825179420904418
9.210702341137123,4.79300231454859
9.23076923076923,4.757686151387366
9.250836120401337,4.71930286077281
9.270903010033445,4.677931919348032
9.290969899665551,4.63366056772358
9.311036789297658,4.5865840553614525
9.331103678929765,4.536805916116303
9.351170568561873,4.484438276992247
9.37123745819398,4.429602202717939
9.391304347826086,4.372428078693601
9.411371237458194,4.313056034683193
9.4314381270903,4.251636411262569
9.451505016722408,4.188330270425019
9.471571906354516,4.123309950807267
9.49163879598662,4.056759666624783
9.511705685618729,3.988876147467566
9.531772575250837,3.919869313447663
9.551839464882942,3.849962976619887
9.57190635451505,3.779395554904193
9.591973244147155,3.70842077868661
9.612040133779264,3.6373083626254923
9.632107023411372,3.566344605725875
9.652173913043477,3.4958328713219533
9.672240802675585,3.426093885220594
9.692307692307692,3.357465775148509
9.712374581939798,3.290303758422936
9.732441471571907,3.2249793685859887
9.752508361204013,3.16187909746648
9.77257525083612,3.101402319489743
9.792642140468226,3.043958363692769
9.812709030100335,2.9899626102763825
9.832775919732441,2.9398315174760747
9.852842809364548,2.893976535462265
9.872909698996656,2.8527969395675243
9.89297658862876,2.81667171470227
9.91304347826087,2.7859507406388633
9.933110367892976,2.7609456520154407
9.953177257525082,2.7419208595128914
9.97324414715719,2.729085297865524
9.993311036789297,2.7225854907073295
10.013377926421404,2.7225004763405876
10.033444816053512,2.7288390185938316
10.053511705685617,2.741539344182114
10.073578595317725,2.760471427714436
10.093645484949834,2.7854416220007447
10.113712374581938,2.8161992396510773
10.133779264214047,2.8524445595091388
10.153846153846153,2.8938376720579693
10.17391304347826,2.9400075903242167
10.193979933110368,2.990561123314792
10.214046822742475,3.045091116862344
10.234113712374581,3.103183789863218
10.254180602006688,3.1644250134880783
10.274247491638796,3.228405484038196
10.294314381270903,3.294724819964632
10.31438127090301,3.362994668695326
10.334448160535118,3.432840941518356
10.354515050167223,3.5039053090212957
10.37458193979933,3.575846090294606
10.394648829431437,3.6483386608114095
10.414715719063544,3.7210754903860273
10.434782608695652,3.7937659067671494
10.454849498327757,3.8661356642388167
10.474916387959865,3.937926381346872
10.494983277591974,4.00889489823722
10.515050167224079,4.078812592382084
10.535117056856187,4.147464681714626
10.555183946488295,4.214649536268917
10.5752508361204,4.280178013125589
10.595317725752508,4.343872824560127
10.615384615384615,4.405567945544276
10.635451505016722,4.465108063945892
10.65551839464883,4.522348074717037
10.675585284280936,4.577152617892916
10.695652173913043,4.629395659211742
10.71571906354515,4.678960111498704
10.735785953177256,4.725737494550966
10.755852842809364,4.769627631046046
10.775919732441471,4.810538375921442
10.795986622073578,4.848385376698806
10.816053511705684,4.883091862320788
10.836120401337793,4.91458845821035
10.856187290969899,4.9428130254344955
10.876254180602006,4.967710522044676
10.896321070234114,4.989232884866316
10.916387959866219,5.007338930213912
10.936454849498327,5.021994272212808
