Time (s),Filtered Signal
0.0,0.046671227712596824
0.033370535714285714,0.09635053326113573
0.06674107142857143,0.1718171387450168
0.10011160714285713,0.28782536704736467
0.13348214285714285,0.4399832269060081
0.16685267857142858,0.6049264256646716
0.20022321428571427,0.7482141855789288
0.23359375,0.8369119360339949
0.2669642857142857,0.8518771143953462
0.30033482142857143,0.7947886381968494
0.33370535714285715,0.6870313122792088
0.36707589285714287,0.5608876674040348
0.40044642857142854,0.4467312298155743
0.43381696428571426,0.36163759666606976
0.4671875,0.3041986133948862
0.5005580357142857,0.257538572146748
0.5339285714285714,0.19883173935060025
0.5672991071428571,0.11076399851883804
0.6006696428571429,-0.010253288479815667
0.6340401785714286,-0.1524892831202189
0.6674107142857143,-0.29405901741285695
0.70078125,-0.4120251941349568
0.7341517857142857,-0.4912705673946259
0.7675223214285715,-0.5295915987120248
0.8008928571428571,-0.5373837863109128
0.8342633928571428,-0.5324509374864318
0.8676339285714285,-0.5320944461248459
0.9010044642857142,-0.5454951196681169
0.934375,-0.5695209973515182
0.9677455357142857,-0.5903102682496446
1.0011160714285714,-0.5909284380857561
1.0344866071428571,-0.5622328048256062
1.0678571428571428,-0.5111646608512033
1.1012276785714286,-0.4602734717087093
1.1345982142857143,-0.4358570364255695
1.16796875,-0.44874108337561414
1.2013392857142857,-0.47789140290728216
1.2347098214285714,-0.46848307077267404
1.2680803571428572,-0.3505096930113022
1.3014508928571429,-0.07322033277629547
1.3348214285714286,0.35995242560656066
1.3681919642857143,0.8752636837263991
1.4015625,1.344183172680873
1.4349330357142858,1.6285279632052714
1.4683035714285715,1.6370744007439875
1.5016741071428572,1.3672603736872875
1.535044642857143,0.9105954363065196
1.5684151785714286,0.41704004530736155
1.6017857142857141,0.03362498561138477
1.6351562499999999,-0.15452903353329647
1.6685267857142856,-0.1536931715165762
1.7018973214285713,-0.04882831318113299
1.735267857142857,0.04369284641304759
1.7686383928571427,0.034244466823098264
1.8020089285714285,-0.09903920574903397
1.8353794642857142,-0.30529118568925084
1.86875,-0.4928026058627112
1.9021205357142856,-0.5802220916960417
1.9354910714285714,-0.5398708990905599
1.968861607142857,-0.4103165268058873
2.002232142857143,-0.2719669095884437
2.0356026785714287,-0.1997735746274953
2.0689732142857142,-0.21985801596266497
2.10234375,-0.2945315596825727
2.1357142857142857,-0.34399016674324834
2.169084821428571,-0.29235438832559885
2.202455357142857,-0.11250577837779711
2.2358258928571426,0.15459451960682566
2.2691964285714286,0.41619479040687557
2.302566964285714,0.5709404770189253
2.3359375,0.5569675285297951
2.3693080357142855,0.3813979523337451
2.4026785714285714,0.11769394304608391
2.436049107142857,-0.127063815008709
2.469419642857143,-0.259349731662888
2.5027901785714284,-0.2394370140929961
2.5361607142857143,-0.0970946105894897
2.56953125,0.08381814805598072
2.6029017857142858,0.20482391630342767
2.6362723214285713,0.19871816019639793
2.669642857142857,0.06105061426618319
2.7030133928571427,-0.14762217949874787
2.7363839285714286,-0.33039127271139934
2.769754464285714,-0.4005826046553375
2.803125,-0.32417467187917637
2.8364955357142856,-0.13728553619357603
2.8698660714285715,0.07030882727429467
2.903236607142857,0.1980694686815735
2.936607142857143,0.1832540654395883
2.9699776785714285,0.03136053388063211
3.0033482142857144,-0.18648544631761257
3.03671875,-0.3677523305978213
3.070089285714286,-0.42723783944194715
3.1034598214285714,-0.33633878056256455
3.1368303571428573,-0.13426439431811188
3.170200892857143,0.09276082638591268
3.2035714285714283,0.2523113782234608
3.2369419642857142,0.28574959208008
3.2703124999999997,0.18898160387064694
3.3036830357142857,0.007120782655343612
3.337053571428571,-0.19009299243618208
3.370424107142857,-0.3369675200605753
3.4037946428571426,-0.39050698591343136
3.4371651785714286,-0.3336098308756991
3.470535714285714,-0.1677659599574324
3.50390625,0.09432513659989776
3.5372767857142855,0.42842987941703664
3.5706473214285714,0.7915432830883276
3.604017857142857,1.1168105145704237
3.637388392857143,1.3213169113144376
3.6707589285714284,1.3303611202475902
3.7041294642857143,1.109994077825245
3.7375,0.6909224925917264
3.7708705357142858,0.1679612329566287
3.8042410714285713,-0.32930774268205953
3.837611607142857,-0.6834441609646512
3.8709821428571427,-0.8321261826187388
3.9043526785714286,-0.7871338954075935
3.937723214285714,-0.6216665678470833
3.97109375,-0.4342387310475217
4.004464285714286,-0.30767716742215867
4.0378348214285715,-0.2813372810959426
4.0712053571428575,-0.3454142444387448
4.1045758928571425,-0.4547434268877933
4.1379464285714285,-0.5521512467735996
4.171316964285714,-0.5905699314034109
4.2046875,-0.5468888338692998
4.238058035714285,-0.4254248249065466
4.271428571428571,-0.2525648771203454
4.304799107142857,-0.06599933097334358
4.338169642857142,0.09753290946560773
4.371540178571428,0.2124483880078469
4.404910714285714,0.26997550209912774
4.43828125,0.2782749459480552
4.471651785714285,0.2576571324461662
4.505022321428571,0.2328223461797342
4.538392857142857,0.22468798442334234
4.571763392857143,0.24424340893189067
4.605133928571428,0.2900582966772902
4.638504464285714,0.3498012592802916
4.671875,0.40484313144621487
4.705245535714286,0.436247207985606
4.738616071428571,0.4304370391000081
4.771986607142857,0.3833201973441604
4.805357142857143,0.302102278036282
4.838727678571429,0.204197689732811
4.872098214285714,0.1128382250436116
4.90546875,0.04972085968231357
4.938839285714286,0.026413019589920237
4.972209821428572,0.03759305522539034
5.005580357142857,0.059518165035076884
5.038950892857143,0.055741111587210596
5.072321428571429,-0.010666359946699105
5.105691964285715,-0.1621230744932492
5.1390625,-0.3943384190173486
5.172433035714286,-0.6721544222687471
5.2058035714285715,-0.9361879791410922
5.2391741071428575,-1.1191438225710542
5.2725446428571425,-1.1667664335064027
5.3059151785714285,-1.056055869152173
5.339285714285714,-0.8038006961819414
5.3726562499999995,-0.4618754647328821
5.406026785714285,-0.10093069787022763
5.439397321428571,0.21115313463204316
5.472767857142857,0.4276583059625095
5.506138392857142,0.5317511927415042
5.539508928571428,0.5339949089526413
5.572879464285714,0.4625969470542549
5.60625,0.35316184803609274
5.639620535714285,0.24312225940717705
5.672991071428571,0.17100037038196236
5.706361607142857,0.17567234647680832
5.739732142857143,0.2897080717049673
5.773102678571428,0.5251198249043912
5.806473214285714,0.8571274938896476
5.83984375,1.2167586994683877
5.873214285714286,1.5017626266955795
5.906584821428571,1.6068954471253305
5.939955357142857,1.4634573731536966
5.973325892857143,1.0707401701864228
6.006696428571429,0.5036045215688154
6.040066964285714,-0.10948802474067268
6.0734375,-0.6302180873607571
6.106808035714286,-0.9583056215890369
6.140178571428572,-1.0642934595950615
6.173549107142857,-0.9946372768384217
6.206919642857143,-0.8479554225846793
6.240290178571429,-0.7325586123717525
6.273660714285715,-0.7223563955210387
6.30703125,-0.8286253388781516
6.340401785714286,-0.9987971347473393
6.3737723214285715,-1.1425125172670147
6.407142857142857,-1.173709825270806
6.4405133928571425,-1.050237860389171
6.4738839285714285,-0.7930405742833361
6.507254464285714,-0.4759191551896936
6.5406249999999995,-0.19072399242504176
6.573995535714285,-0.004968670881752672
6.607366071428571,0.06724421660203538
6.640736607142857,0.06703025631641106
6.674107142857142,0.06563869117653703
6.707477678571428,0.12668006357518735
6.740848214285714,0.2754714106030405
6.77421875,0.4898937581759999
6.807589285714285,0.714535184278251
6.840959821428571,0.8878204536918005
6.874330357142857,0.9669827712970251
6.907700892857143,0.9397658155127449
6.941071428571428,0.820939724453241
6.974441964285714,0.6399957052506978
7.0078125,0.42922841088774694
7.041183035714286,0.21820146366075263
7.074553571428571,0.03436812637393166
7.107924107142857,-0.09515708305831633
7.141294642857143,-0.14600135150362914
7.174665178571429,-0.1045164841694724
7.208035714285714,0.02239355271661981
7.24140625,0.20211706171979174
7.274776785714286,0.38101445375626536
7.308147321428572,0.4994615671452868
7.341517857142857,0.5124291294764207
7.374888392857143,0.4073908478169281
7.408258928571429,0.21157982342737736
7.441629464285715,-0.015524371255764021
7.475,-0.20264925640892942
7.508370535714286,-0.292798063458359
7.5417410714285715,-0.2649905152846983
7.575111607142857,-0.14320457035640738
7.6084821428571425,0.010986161481944543
7.6418526785714285,0.11928757592768391
7.675223214285714,0.1133969657640429
7.7085937499999995,-0.04163066574686904
7.741964285714285,-0.33451497657196866
7.775334821428571,-0.7085509297502349
7.808705357142857,-1.0753607138155854
7.842075892857142,-1.3381196966436855
7.875446428571428,-1.4188192787483744
7.908816964285714,-1.2824403417982344
7.9421875,-0.9501082001925578
7.975558035714285,-0.4950603259299223
8.008928571428571,-0.020618691038361
8.042299107142856,0.37305771077539523
8.075669642857143,0.6206684572863786
8.109040178571428,0.7087755022571784
8.142410714285715,0.6714772019517861
8.17578125,0.568422784996647
8.209151785714285,0.4570966972200989
8.242522321428572,0.37267164846789397
8.275892857142857,0.32277743785733787
8.309263392857142,0.2955395679419106
8.342633928571429,0.27302222807806314
8.376004464285714,0.24193586621085625
8.409375,0.19782807258822604
8.442745535714286,0.1439190035369147
8.47611607142857,0.08794902068944682
8.509486607142858,0.039447072115839976
8.542857142857143,0.007652216372900972
8.576227678571428,-0.0008492409235419886
8.609598214285715,0.014915927213543548
8.64296875,0.047961098464132754
8.676339285714285,0.08363248425357267
8.709709821428572,0.10366334158116806
8.743080357142857,0.0928774267464721
8.776450892857143,0.04542303904758889
8.809821428571428,-0.03276222410014793
8.843191964285714,-0.12652690794954294
8.8765625,-0.2174003306156579
8.909933035714285,-0.2892094176275507
8.94330357142857,-0.3304596772117469
8.976674107142857,-0.33327097487018037
9.010044642857142,-0.29147859129790904
9.04341517857143,-0.20117856903321774
9.076785714285714,-0.06481226873647557
9.11015625,0.10366921613502157
9.143526785714286,0.2772271286702746
9.176897321428571,0.4212698220443952
9.210267857142856,0.5056309546310974
9.243638392857143,0.5176460207914473
9.277008928571428,0.46900708232527755
9.310379464285715,0.3914398031232719
9.34375,0.32195083067795327
9.377120535714285,0.28437093540837294
9.410491071428572,0.27674311264192697
9.443861607142857,0.27185527633097517
9.477232142857142,0.23165105909065334
9.510602678571429,0.1286482645279599
9.543973214285714,-0.03694781900985665
9.57734375,-0.23423551456195207
9.610714285714286,-0.41539324833898295
9.64408482142857,-0.5397652317918125
9.677455357142858,-0.5955863837051604
9.710825892857143,-0.6071304314120501
9.744196428571428,-0.6223260232452309
9.777566964285715,-0.6862808339833827
9.8109375,-0.814077433541967
9.844308035714285,-0.9772109498153576
9.877678571428572,-1.1113768358086518
9.911049107142857,-1.1424531826229698
9.944419642857143,-1.0182854413061857
9.977790178571428,-0.7312121164309654
10.011160714285714,-0.32141564451114096
10.04453125,0.13896394705962373
10.077901785714285,0.5720044680695845
10.11127232142857,0.9180263809421396
10.144642857142857,1.1481932240559953
10.178013392857142,1.2634905047089524
10.21138392857143,1.2843559799481297
10.244754464285714,1.2378351946269697
10.278125,1.1476392585801904
10.311495535714286,1.0291283799609803
10.344866071428571,0.8886114792537593
10.378236607142856,0.7255113018265114
10.411607142857143,0.5362426339267887
10.444977678571428,0.3188879380785934
10.478348214285715,0.07744757180516028
10.51171875,-0.17589410522822474
10.545089285714285,-0.42161477150529697
10.578459821428572,-0.6365868036242031
10.611830357142857,-0.7989719806126763
10.645200892857142,-0.8920372706536777
10.678571428571429,-0.9056205539390018
10.711941964285714,-0.8357980216062983
10.745312499999999,-0.6846367162660715
10.778683035714286,-0.4617089790651811
10.81205357142857,-0.18732276636827888
10.845424107142858,0.10471978113446956
10.878794642857143,0.36809727597178254
10.912165178571428,0.5509947929348553
10.945535714285715,0.6087582998457962
10.97890625,0.5185757236488019
11.012276785714285,0.2906718046912166
11.045647321428572,-0.02908814363472264
11.079017857142857,-0.36769464862057605
11.112388392857143,-0.6433332184628707
11.145758928571428,-0.7886041854761625
11.179129464285714,-0.7711113151585479
11.2125,-0.6035457014458306
11.245870535714285,-0.3381123676701024
11.27924107142857,-0.04595613326350655
11.312611607142857,0.21069141030652963
11.345982142857142,0.4011813234886411
11.37935267857143,0.5325556048137492
11.412723214285714,0.6353977502628703
11.44609375,0.7366491722768949
11.479464285714286,0.8346508048965887
11.512834821428571,0.8915581094910304
11.546205357142856,0.849208648451623
11.579575892857143,0.6611706255878966
11.612946428571428,0.323770375488545
11.646316964285715,-0.11150191622221463
11.6796875,-0.5520754307405679
11.713058035714285,-0.8984052673073082
11.746428571428572,-1.0810753490377096
11.779799107142857,-1.083062825762214
11.813169642857142,-0.9381845106637173
11.846540178571429,-0.7094815849620886
11.879910714285714,-0.4604801868916589
11.913281249999999,-0.23348212353484635
11.946651785714286,-0.043019776596871236
11.98002232142857,0.11617388397191733
12.013392857142858,0.25394502495067567
12.046763392857143,0.371305390065791
12.080133928571428,0.45521086027384056
12.113504464285715,0.4830856629352636
12.146875,0.4341772028905497
12.180245535714285,0.30227430927703125
12.213616071428572,0.10408108187476989
12.246986607142857,-0.12071255440268515
12.280357142857143,-0.31853029731128535
12.313727678571428,-0.4375164210279263
12.347098214285714,-0.4442021252973601
12.38046875,-0.33493141001179294
12.413839285714285,-0.1374446498105315
12.44720982142857,0.09823179622990857
12.480580357142857,0.3162334279810741
12.513950892857142,0.4725399839744665
12.54732142857143,0.5476537311808934
12.580691964285714,0.5502665316895959
12.6140625,0.5112068135963241
12.647433035714286,0.46995092237363684
12.680803571428571,0.4580114305815855
12.714174107142856,0.4845763782703665
12.747544642857143,0.529833387820056
12.780915178571428,0.5499363685250029
12.814285714285713,0.4939656840508616
12.84765625,0.3279323531203943
12.881026785714285,0.056022207307018894
12.914397321428572,-0.2719938626310496
12.947767857142857,-0.5737971708683359
12.981138392857142,-0.7653115732223105
13.014508928571429,-0.7967150880281776
13.047879464285714,-0.6764956262971334
13.081249999999999,-0.4705102971968443
13.114620535714286,-0.2746850553355162
13.14799107142857,-0.17332859175439888
13.181361607142858,-0.20272490397329637
13.214732142857143,-0.33726480943872034
13.248102678571428,-0.5040023980871979
13.281473214285715,-0.6173557201501947
13.31484375,-0.6164033051982004
13.348214285714285,-0.4875564981613759
13.381584821428572,-0.2643589652553012
13.414955357142857,-0.008092793895417425
13.448325892857143,0.2188991837832013
13.481696428571428,0.37437934151873137
13.515066964285714,0.44453382083149096
13.5484375,0.4396916325541921
13.581808035714285,0.38305180824877794
13.61517857142857,0.29918632713747323
13.648549107142857,0.2068758198415525
13.681919642857142,0.11748460993258332
13.71529017857143,0.03744422049774006
13.748660714285714,-0.027841547621897667
13.78203125,-0.07136869838080122
13.815401785714286,-0.08490695510731314
13.848772321428571,-0.06239937853556596
13.882142857142856,-0.004585889378297594
13.915513392857143,0.07793665625849097
13.948883928571428,0.16545243528746578
13.982254464285713,0.23405010806884202
14.015625,0.26308949130497467
14.048995535714285,0.24248681884548007
14.082366071428572,0.17727348136224902
14.115736607142857,0.08779461708441494
14.149107142857142,0.004931484229441281
14.182477678571429,-0.039181622572409286
14.215848214285714,-0.02294606018948078
14.249218749999999,0.054267285182917534
14.282589285714286,0.16794676324144492
14.31595982142857,0.2741592087012283
14.349330357142858,0.32480536367655155
14.382700892857143,0.28705889639264287
14.416071428571428,0.15858645793899298
14.449441964285715,-0.028771074462598484
14.4828125,-0.21920905935089996
14.516183035714285,-0.35314195927046677
14.549553571428572,-0.3890927548776934
14.582924107142857,-0.31858008293761575
14.616294642857143,-0.16859028544402174
14.649665178571428,0.008627330206360726
14.683035714285714,0.15408865614864561
14.71640625,0.22217546246065922
14.749776785714285,0.19574253555766677
14.78314732142857,0.0917104952950183
14.816517857142857,-0.044496971502847725
14.849888392857142,-0.15426322335835765
14.88325892857143,-0.18651216297639428
14.916629464285714,-0.11725931801412447
14.95,0.0392246044242057
14.983370535714286,0.23268425108723084
15.016741071428571,0.392760698523198
15.050111607142856,0.45290651785227887
15.083482142857143,0.37301445248535403
15.116852678571428,0.15189413499743218
15.150223214285713,-0.17462469745434062
15.18359375,-0.5476809260347527
15.216964285714285,-0.9041701079208216
15.250334821428572,-1.192015283310074
15.283705357142857,-1.3768239991888653
15.317075892857142,-1.4402007167676114
15.350446428571429,-1.3743043090942486
15.383816964285714,-1.1781636599435699
15.417187499999999,-0.8586587732114939
15.450558035714286,-0.4349628872318065
15.48392857142857,0.05763069563532753
15.517299107142858,0.5685371618304309
15.550669642857143,1.0388298102774745
15.584040178571428,1.4125667420576409
15.617410714285715,1.6488233547220905
15.65078125,1.7307485103641116
15.684151785714285,1.6691534439746833
15.717522321428572,1.499519934824118
15.750892857142857,1.2725736655484274
15.784263392857143,1.040082365140296
15.817633928571428,0.8394324046253029
15.851004464285714,0.6820082673997909
15.884375,0.55012809770328
15.917745535714285,0.4046415253098603
15.95111607142857,0.2011593047697852
15.984486607142857,-0.09071598777112422
16.017857142857142,-0.47203999947165
16.05122767857143,-0.9084477326087013
16.084598214285712,-1.3355747009804309
16.11796875,-1.6748282390960405
16.151339285714286,-1.855501614784161
16.18470982142857,-1.8369521174212495
16.218080357142856,-1.623291278556817
16.251450892857143,-1.2640660702130497
16.28482142857143,-0.8388798101450848
16.318191964285713,-0.43087942689048303
16.3515625,-0.0999793986593129
16.384933035714287,0.13248524811896978
16.41830357142857,0.28160958896246
16.451674107142857,0.382270878347081
16.485044642857144,0.46798785722698766
16.518415178571427,0.5561424993547963
16.551785714285714,0.6451756314555316
16.58515625,0.7218781358237347
16.618526785714284,0.7718975359595727
16.65189732142857,0.7866315875435267
16.685267857142858,0.7639257966598886
16.71863839285714,0.705086878998522
16.752008928571428,0.6131053321773076
16.785379464285715,0.4950859200968216
16.81875,0.3671437410153235
16.852120535714285,0.2560407582218914
16.88549107142857,0.1921123086125674
16.91886160714286,0.1934192686152232
16.95223214285714,0.24861746463867204
16.98560267857143,0.31040731766186586
17.018973214285715,0.30834206208690057
17.05234375,0.17947003706667217
17.085714285714285,-0.09672707565867361
17.119084821428572,-0.47852001630689833
17.152455357142856,-0.8713246196842136
17.185825892857142,-1.1654299988579353
17.21919642857143,-1.2847432432148085
17.252566964285712,-1.2213054113794013
17.2859375,-1.0365157126203588
17.319308035714286,-0.8275739571912806
17.35267857142857,-0.6768040963637331
17.386049107142856,-0.6110762962566251
17.419419642857143,-0.5927662303601008
17.45279017857143,-0.5459019775074966
17.486160714285713,-0.40175006019294807
17.51953125,-0.1381815269573597
17.552901785714287,0.2080965187355219
17.58627232142857,0.5614329975857092
17.619642857142857,0.8466382065955774
17.653013392857144,1.0256725701045317
17.686383928571427,1.1121891702340783
17.719754464285714,1.157156481104033
17.753125,1.2140189093765759
17.786495535714284,1.30201491073611
