Frequency (Hz),Amplitude
0.0,6.790425873786772
0.01978021978021978,6.794631439785506
0.03956043956043956,6.807216067862294
0.05934065934065934,6.82808420308403
0.07912087912087912,6.857078737078891
0.0989010989010989,6.893984120681945
0.11868131868131868,6.938530507826382
0.13846153846153844,6.9903987397415674
0.15824175824175823,7.049225953090191
0.17802197802197803,7.11461158662741
0.1978021978021978,7.186123567167928
0.21758241758241756,7.263304474543015
0.23736263736263735,7.345677513384561
0.2571428571428572,7.432752153250205
0.2769230769230769,7.524029334270554
0.2967032967032967,7.619006170181415
0.31648351648351647,7.717180112086614
0.3362637362637363,7.818052563165557
0.35604395604395606,7.921131956118556
0.3758241758241758,8.02593632135456
0.3956043956043956,8.13199538512879
0.4153846153846154,8.238852243663922
0.4351648351648351,8.346064662503382
0.45494505494505494,8.453206050742324
0.4747252747252747,8.559866158106995
0.4945054945054945,8.665651539761846
0.5142857142857143,8.77018582976026
0.5340659340659341,8.873109859649066
0.5538461538461538,8.974081654211808
0.5736263736263736,9.072776331921668
0.5934065934065934,9.16888593352409
0.6131868131868132,9.262119198374533
0.6329670329670329,9.352201304764385
0.6527472527472528,9.438873587490898
0.6725274725274726,9.521893243355688
0.6923076923076923,9.601033033086354
0.7120879120879121,9.676080986334256
0.7318681318681318,9.74684011487172
0.7516483516483516,9.813128137856154
0.7714285714285715,9.874777222009964
0.7912087912087912,9.931633738749671
0.810989010989011,9.983558039654763
0.8307692307692308,10.030424251167242
0.8505494505494506,10.072120089034918
0.8703296703296702,10.108546692731572
0.8901098901098901,10.139618479889416
0.9098901098901099,10.165263020647087
0.9296703296703297,10.185420931738015
0.9494505494505494,10.200045790107314
0.9692307692307692,10.209104065842551
0.989010989010989,10.212575074225867
1.0087912087912088,10.210450946756128
1.0285714285714287,10.20273662104367
1.0483516483516484,10.189449849542223
1.0681318681318681,10.170621227146876
1.087912087912088,10.14629423774989
1.1076923076923075,10.11652531990183
1.1274725274725275,10.081383951769855
1.1472527472527472,10.040952755610942
1.1670329670329669,9.995327621980659
1.1868131868131868,9.944617853868172
1.2065934065934065,9.888946330878845
1.2263736263736265,9.828449693464217
1.2461538461538462,9.76327854701488
1.2659340659340659,9.693597685368646
1.2857142857142858,9.619586332927536
1.3054945054945055,9.541438404101857
1.3252747252747252,9.459362778184897
1.3450549450549452,9.373583586979231
1.3648351648351649,9.284340511516529
1.3846153846153846,9.191889083001408
1.4043956043956045,9.096500981631559
1.4241758241758242,8.998464325162178
1.443956043956044,8.898083936955812
1.4637362637362636,8.79568158075464
1.4835164835164834,8.691596146504937
1.5032967032967033,8.586183768239017
1.523076923076923,8.479817851287299
1.542857142857143,8.372888981990386
1.5626373626373626,8.26580468869153
1.5824175824175823,8.158989018253363
1.6021978021978023,8.052881887874925
1.621978021978022,7.947938167889385
1.6417582417582417,7.844626447911081
1.6615384615384616,7.743427436695326
1.6813186813186813,7.644831946014059
1.7010989010989013,7.549338411468684
1.720879120879121,7.457449909249978
1.7406593406593405,7.3696706381951245
1.7604395604395604,7.286501851753426
1.7802197802197801,7.208437245079234
1.7999999999999998,7.135957828442374
1.8197802197802198,7.0695263489302524
1.8395604395604395,7.009581356742541
1.8593406593406594,6.956531048178398
1.879120879120879,6.910747051838995
1.8989010989010988,6.8725583541525745
1.9186813186813187,6.842245581331343
1.9384615384615385,6.820035863741777
1.9582417582417584,6.806098502635807
1.978021978021978,6.800541636808668
1.9978021978021978,6.803410068354986
2.0175824175824175,6.814684354582229
2.0373626373626372,6.834281211425215
2.0571428571428574,6.862055207840169
2.076923076923077,6.89780166668737
2.096703296703297,6.941260631311836
2.1164835164835165,6.992121713091379
2.1362637362637362,7.050029606655033
2.1560439560439564,7.114590047348188
2.175824175824176,7.1853759890207956
2.195604395604396,7.2619337970059
2.215384615384615,7.343789277913564
2.2351648351648348,7.430453400858639
2.254945054945055,7.521427600357148
2.2747252747252746,7.616208586260477
2.2945054945054943,7.714292618377177
2.314285714285714,7.815179231295663
2.3340659340659338,7.9183744175586375
2.353846153846154,8.02339329457583
2.3736263736263736,8.129762292785502
2.3934065934065933,8.237020910180407
2.413186813186813,8.344723082153253
2.4329670329670328,8.452438216485007
2.452747252747253,8.559751941958448
2.4725274725274726,8.666266616204496
2.4923076923076923,8.771601634546887
2.512087912087912,8.87539357725399
2.5318681318681318,8.977296228076753
2.5516483516483515,9.076980492496656
2.5714285714285716,9.17413423989275
2.5912087912087913,9.268462089964817
2.610989010989011,9.359685160275518
2.6307692307692307,9.447540788715019
2.6505494505494505,9.531782242042027
2.6703296703296706,9.61217841939302
2.6901098901098903,9.688513557744532
2.70989010989011,9.760586944726244
2.7296703296703297,9.828212642876036
2.7494505494505495,9.891219228367035
2.769230769230769,9.949449546383988
2.7890109890109893,10.002760484652685
2.808791208791209,10.051022766101063
2.8285714285714287,10.094120761231073
2.8483516483516484,10.131952320483279
2.8681318681318677,10.164428626664371
2.887912087912088,10.191474067363972
2.9076923076923076,10.213026127200095
2.9274725274725273,10.229035299688483
2.947252747252747,10.239465018523362
2.9670329670329667,10.244291608075049
2.986813186813187,10.243504252948485
3.0065934065934066,10.237104986499276
3.0263736263736263,10.225108698264886
3.046153846153846,10.207543160333612
3.0659340659340657,10.184449072737952
3.085714285714286,10.155880128016914
3.1054945054945056,10.121903095139286
3.1252747252747253,10.082597923010148
3.145054945054945,10.038057863791096
3.1648351648351647,9.988389616241719
3.184615384615385,9.9337134892289
3.2043956043956046,9.874163585439366
3.2241758241758243,9.809888005159294
3.243956043956044,9.741049069736672
3.2637362637362637,9.667823564001464
3.2835164835164834,9.590402996464933
3.3032967032967036,9.508993875529946
3.3230769230769233,9.423817999191535
3.342857142857143,9.335112754761731
3.3626373626373627,9.243131423981277
3.3824175824175824,9.14814348744632
3.4021978021978025,9.050434920543461
3.4219780219780223,8.950308471012814
3.441758241758242,8.848083905811
3.4615384615384617,8.744098212095
3.481318681318681,8.638705733877982
3.501098901098901,8.532278222221068
3.520879120879121,8.42520477275443
3.5406593406593405,8.317891619939441
3.5604395604395602,8.210761752920398
3.58021978021978,8.10425431327044
3.5999999999999996,7.998823730699814
3.61978021978022,7.894938549258676
3.6395604395604395,7.793079894236818
3.659340659340659,7.693739529461605
3.679120879120879,7.597417456747023
3.6989010989010986,7.504619014644187
3.718681318681319,7.415851443183712
3.7384615384615385,7.331619895691086
3.758241758241758,7.252422898485058
3.7780219780219784,7.17874728444678
3.7978021978021976,7.111062656639151
3.8175824175824173,7.049815472227269
3.8373626373626375,6.995422872967384
3.8571428571428568,6.948266423760398
3.876923076923077,6.908685951807283
3.896703296703296,6.876973702002808
3.916483516483517,6.853369035698336
3.936263736263736,6.838053896863973
3.956043956043956,6.8311492502380835
3.9758241758241755,6.8327126602495
3.9956043956043956,6.842737129282059
4.015384615384615,6.861151253060376
4.035164835164835,6.887820684871604
4.054945054945055,6.922550835053853
4.0747252747252745,6.965090673617515
4.094505494505494,7.015137457006474
4.114285714285715,7.072342168231894
4.134065934065934,7.136315444362555
4.153846153846154,7.206633766137139
4.173626373626373,7.282845699164783
4.193406593406594,7.364478001583746
4.213186813186813,7.451041445425403
4.232967032967033,7.542036234582339
4.252747252747253,7.636956937961048
4.2725274725274724,7.7352968895766665
4.292307692307692,7.836552036297483
4.312087912087913,7.9402242377260155
4.331868131868132,8.04582404103195
4.351648351648352,8.15287296664937
4.371428571428571,8.26090534917384
4.391208791208792,8.369469782280662
4.410989010989011,8.478130217837329
4.43076923076923,8.586466768376969
4.450549450549451,8.694076259435022
4.4703296703296695,8.800572574519903
4.49010989010989,8.905586831165719
4.50989010989011,9.008767421964754
4.52967032967033,9.109779949964937
4.549450549450549,9.208307083521966
4.569230769230769,9.304048351732412
4.589010989010989,9.396719898003358
4.608791208791209,9.48605420616133
4.628571428571428,9.57179981076455
4.648351648351649,9.653721000939615
4.6681318681318675,9.731597525083668
4.687912087912088,9.805224302122433
4.707692307692308,9.874411143652711
4.7274725274725276,9.938982490189217
4.747252747252747,9.998777163843604
4.767032967032967,10.053648139056051
4.786813186813187,10.10346233244763
4.806593406593407,10.148100412439153
4.826373626373626,10.187456628966887
4.846153846153847,10.221438663398974
4.8659340659340655,10.249967498600963
4.885714285714286,10.27297730900244
4.905494505494506,10.29041537046611
4.9252747252747255,10.302241989747246
4.945054945054945,10.308430453346016
4.964835164835165,10.308966995591557
4.984615384615385,10.30385078584739
5.004395604395604,10.293093934789347
5.024175824175824,10.276721519772256
5.043956043956045,10.254771629367484
5.0637362637362635,10.227295427213805
5.083516483516483,10.194357235374731
5.103296703296703,10.156034637430334
5.123076923076923,10.112418601544968
5.142857142857143,10.063613623736254
5.162637362637362,10.009737891517574
5.182417582417583,9.950923467985174
5.2021978021978015,9.887316496260828
5.221978021978022,9.819077423966503
5.241758241758242,9.746381247083496
5.2615384615384615,9.669417772113508
5.281318681318681,9.588391894891943
5.301098901098901,9.503523893676885
5.320879120879121,9.415049733221272
5.340659340659341,9.323221375397683
5.36043956043956,9.228307090547291
5.380219780219781,9.130591762030722
5.3999999999999995,9.030377174427239
5.41978021978022,8.92798227342538
5.43956043956044,8.823743382640384
5.4593406593406595,8.718014359362442
5.479120879120879,8.61116666758275
5.498901098901099,8.50358934258804
5.518681318681319,8.395688817023665
5.538461538461538,8.287888573719044
5.558241758241758,8.180628585936091
5.578021978021979,8.07436450131429
5.5978021978021975,7.96956652202429
5.617582417582418,7.866717930993917
5.637362637362637,7.76631321314846
5.6571428571428575,7.668855722126181
5.676923076923077,7.574854847687787
5.696703296703297,7.484822647848519
5.716483516483517,7.399269923369487
5.736263736263735,7.3187017311991935
5.756043956043956,7.243612357954126
5.775824175824176,7.174479804244482
5.795604395604395,7.111759864577349
5.815384615384615,7.055879923897252
5.835164835164835,7.0072326279210655
5.854945054945055,6.966169616949082
5.874725274725275,6.932995538009632
5.894505494505494,6.907962564247584
5.914285714285715,6.891265650193447
5.934065934065933,6.8830387349079505
5.953846153846154,6.883352071625841
5.973626373626374,6.892210814034849
5.993406593406593,6.909554929294918
6.013186813186813,6.9352604414889845
6.032967032967033,6.969141942467278
6.052747252747253,7.0109562461134685
6.072527472527473,7.060407012205891
6.092307692307692,7.117150131019022
6.112087912087913,7.180799641422616
6.131868131868131,7.2509339533132895
6.151648351648352,7.3271021578642985
6.171428571428572,7.408830233194029
6.191208791208791,7.495626984897386
6.210989010989011,7.58698959666559
6.230769230769231,7.68240870254744
6.2505494505494505,7.781372926574398
6.270329670329671,7.883372865596636
6.29010989010989,7.987904516173699
6.309890109890111,8.094472165844106
6.329670329670329,8.202590783215227
6.349450549450549,8.311787950584145
6.36923076923077,8.421605387950846
6.3890109890109885,8.531600119124409
6.408791208791209,8.641345329949232
6.428571428571428,8.75043096621427
6.4483516483516485,8.858464115173783
6.468131868131868,8.965069210303279
6.487912087912088,9.069888094326906
6.507692307692308,9.172579970964827
6.527472527472527,9.272821271457959
6.547252747252747,9.370305457856567
6.567032967032967,9.464742781379924
6.5868131868131865,9.555860010895259
6.606593406593407,9.643400143727375
6.626373626373626,9.727122108577188
6.6461538461538465,9.806800468268294
6.665934065934065,9.882225128319966
6.685714285714286,9.953201055923795
6.705494505494506,10.019548012741126
6.725274725274725,10.081100304004298
6.745054945054945,10.137706545661342
6.764835164835165,10.189229450722623
6.7846153846153845,10.235545635521738
6.804395604395605,10.276545446268523
6.824175824175824,10.312132806030124
6.8439560439560445,10.342225082109069
6.863736263736263,10.366752973681317
6.883516483516484,10.385660419500127
6.903296703296704,10.398904525452728
6.923076923076923,10.406455511768547
6.942857142857143,10.408296679711382
6.962637362637362,10.404424397638627
6.9824175824175825,10.394848106371384
7.002197802197802,10.379590343886301
7.021978021978022,10.358686789407095
7.041758241758242,10.33218632703711
7.061538461538461,10.300151129128315
7.081318681318681,10.26265675962162
7.101098901098901,10.219792297611793
7.1208791208791204,10.171660481380906
7.140659340659341,10.118377873098629
7.16043956043956,10.060075044295225
7.1802197802197805,9.99689678206357
7.199999999999999,9.92900231572413
7.21978021978022,9.856565563376732
7.23956043956044,9.779775397344329
7.259340659340659,9.698835926965385
7.279120879120879,9.613966796485574
7.298901098901099,9.525403494907597
7.318681318681318,9.433397673545587
7.338461538461539,9.338217465662206
7.358241758241758,9.240147800902188
7.3780219780219785,9.13949070523708
7.397802197802197,9.036565574762879
7.417582417582418,8.931709408912752
7.437362637362638,8.825276985437865
7.457142857142857,8.717640955863883
7.476923076923077,8.609191836070373
7.496703296703297,8.500337862221915
7.516483516483516,8.391504677613217
7.536263736263736,8.2831348112535
7.556043956043957,8.175686904469655
7.575824175824176,8.069634637817643
7.595604395604395,7.965465307636369
7.615384615384615,7.863678000257603
7.635164835164835,7.764781312914166
7.654945054945055,7.669290574566536
7.674725274725275,7.577724528030365
7.694505494505494,7.490601447715834
7.7142857142857135,7.408434685590601
7.734065934065935,7.33172766193103
7.753846153846154,7.2609683468065205
7.7736263736263735,7.196623312152979
7.793406593406592,7.139131471037476
7.813186813186814,7.088897657754149
7.832967032967034,7.046286236421954
7.852747252747252,7.011614952973656
7.872527472527472,6.9851492619433
7.892307692307693,6.9670973618643535
7.912087912087912,6.9576061590579705
7.931868131868132,6.956758348432304
7.951648351648351,6.964570752929055
7.971428571428572,6.980994003769345
7.991208791208791,7.005913576702567
8.010989010989011,7.039152131143527
8.03076923076923,7.080473035682406
8.05054945054945,7.129584910550892
8.07032967032967,7.186146979340733
8.09010989010989,7.249775000778196
8.10989010989011,7.320047546796479
8.129670329670331,7.396512403838999
8.149450549450549,7.478692897257001
8.169230769230769,7.566093970086769
8.189010989010988,7.6582078835151846
8.20879120879121,7.754519443420561
8.22857142857143,7.854510692631674
8.248351648351647,7.957665039926648
8.268131868131867,8.063470823068931
8.287912087912087,8.17142432385835
8.307692307692308,8.281032268340091
8.327472527472528,8.391813855448323
8.347252747252746,8.503302363179857
8.367032967032966,8.615046383717116
8.386813186813187,8.726610738566789
8.406593406593407,8.837577122502479
8.426373626373627,8.947544521544042
8.446153846153845,9.056129445901231
8.465934065934066,9.162966014165884
8.485714285714286,9.267705920356924
8.505494505494505,9.370018310919267
8.525274725274725,9.469589594585347
8.545054945054945,9.566123204207242
8.564835164835165,9.659339326292185
8.584615384615384,9.74897461102942
8.604395604395604,9.834781873066463
8.624175824175826,9.916529791147843
8.643956043956043,9.994002612934235
8.663736263736263,10.066999869835048
8.683516483516483,10.13533610547396
8.703296703296704,10.198840620427152
8.723076923076924,10.25735723509432
8.742857142857142,10.310744071950653
8.762637362637362,10.358873357957217
8.782417582417583,10.401631247553482
8.802197802197803,10.43891766639826
8.821978021978023,10.470646175846309
8.84175824175824,10.496743858033083
8.86153846153846,10.51715122137603
8.881318681318682,10.53182212627773
8.901098901098901,10.540723730824498
8.920879120879121,10.543836456306416
8.940659340659339,10.541153972434794
8.96043956043956,10.532683202194391
8.98021978021978,10.518444346336208
9.0,10.498470927585776
9.01978021978022,10.472809854708256
9.03956043956044,10.441521506629465
9.05934065934066,10.404679836855594
9.079120879120879,10.362372498457969
9.098901098901099,10.314700989885965
9.11868131868132,10.261780821831886
9.138461538461538,10.20374170528766
9.158241758241758,10.140727760791828
9.178021978021977,10.072897748653391
9.197802197802199,10.000425319640238
9.217582417582419,9.923499285213756
9.237362637362637,9.842323905857064
9.257142857142856,9.757119195353885
9.276923076923078,9.668121237999841
9.296703296703297,9.575582514634378
9.316483516483517,9.47977223203107
9.336263736263735,9.380976648539349
9.356043956043957,9.27949938688885
9.375824175824176,9.175661722710181
9.395604395604396,9.06980283455641
9.415384615384616,8.962279998003192
9.435164835164835,8.853468702750972
9.454945054945055,8.743762667566294
9.474725274725275,8.633573723431478
9.494505494505495,8.523331530525875
9.514285714285714,8.413483089804924
9.534065934065934,8.304492005228903
9.553846153846154,8.196837448475629
9.573626373626373,8.091012774721332
9.593406593406593,7.987523736386318
9.613186813186815,7.886886242330707
9.632967032967032,7.7896236136610195
9.652747252747252,7.69626329492558
9.672527472527472,7.607332991854553
9.692307692307693,7.523356224601742
9.712087912087913,7.444847309020964
9.731868131868131,7.37230580772785
9.75164835164835,7.306210526758011
9.771428571428572,7.247013170932205
9.791208791208792,7.195131809105052
9.810989010989012,7.150944336031956
9.83076923076923,7.114782146793013
9.850549450549451,7.086924258554423
9.87032967032967,7.067592119312351
9.89010989010989,7.056945331558187
9.90989010989011,7.055078489540319
9.92967032967033,7.062019282990155
9.94945054945055,7.07772796094307
9.96923076923077,7.102098181556352
9.989010989010989,7.134959203745043
10.008791208791209,7.176079310499291
10.028571428571428,7.225170297791153
10.048351648351648,7.281892821496902
10.068131868131868,7.345862370283416
10.08791208791209,7.416655625364305
10.107692307692307,7.493816976938194
10.127472527472527,7.576864989044898
10.147252747252747,7.665298635741324
10.167032967032966,7.758603167908773
10.186813186813188,7.856255507952212
10.206593406593406,7.957729106085346
10.226373626373626,8.062498224592812
10.246153846153845,8.170041644056552
10.265934065934067,8.279845807432585
10.285714285714286,8.391407434082778
10.305494505494504,8.504235646853935
10.325274725274724,8.617853661767692
10.345054945054946,8.731800092669813
10.364835164835165,8.845629923130948
10.384615384615385,8.958915195772985
10.404395604395603,9.071245465693549
10.424175824175824,9.182228060333006
10.443956043956044,9.291488183407667
10.463736263736264,9.398668895743016
10.483516483516484,9.503431001209066
10.503296703296703,9.605452861633488
10.523076923076923,9.704430160634605
10.542857142857143,9.800075632815737
10.562637362637362,9.89211877170295
10.582417582417584,9.980305527175252
10.602197802197802,10.064398000901518
10.621978021978022,10.144174146425192
10.641758241758241,10.219427478986969
10.661538461538463,10.289966798906308
10.681318681318682,10.355615931317281
10.7010989010989,10.416213484235952
10.72087912087912,10.47161262629449
10.740659340659342,10.521680884981691
10.760439560439561,10.566299965856226
10.780219780219781,10.605365592926479
10.799999999999999,10.638787370200156
10.819780219780219,10.666488664283602
