Frequency (Hz),Amplitude
0.0,4.394133435233685
0.01978021978021978,4.393110303918906
0.03956043956043956,4.390043572265204
0.05934065934065934,4.384941229389281
0.07912087912087912,4.377816597949783
0.0989010989010989,4.368688345276827
0.11868131868131868,4.357580498815934
0.13846153846153844,4.344522465738177
0.15824175824175823,4.329549056511136
0.17802197802197803,4.3127005121559066
0.1978021978021978,4.29402253483113
0.21758241758241756,4.273566321282752
0.23736263736263735,4.251388598573852
0.2571428571428572,4.227551661358794
0.2769230769230769,4.202123409786085
0.2967032967032967,4.1751773868999225
0.31648351648351647,4.146792814156855
0.3362637362637363,4.117054623377305
0.35604395604395606,4.0860534831065
0.3758241758241758,4.053885816962467
0.3956043956043956,4.020653811096753
0.4153846153846154,3.9864654073845958
0.4351648351648351,3.951434278396403
0.45494505494505494,3.915679779584133
0.4747252747252747,3.879326873452693
0.4945054945054945,3.8425060197898095
0.5142857142857143,3.80535302531758
0.5340659340659341,3.7680088454319827
0.5538461538461538,3.730619330050421
0.5736263736263736,3.6933349050392232
0.5934065934065934,3.6563101803029867
0.6131868131868132,3.6197034754572353
0.6329670329670329,3.5836762541582177
0.6527472527472528,3.54839245872079
0.6725274725274726,3.51401773771342
0.6923076923076923,3.4807185608727083
0.7120879120879121,3.44866121801055
0.7318681318681318,3.4180107016537646
0.7516483516483516,3.3889294769784697
0.7714285714285715,3.361576147146266
0.7912087912087912,3.3361040273137412
0.810989010989011,3.3126596461890325
0.8307692307692308,3.291381199780016
0.8505494505494506,3.27239698756863
0.8703296703296702,3.255823866336911
0.8901098901098901,3.2417657608088626
0.9098901098901099,3.2303122727062545
0.9296703296703297,3.2215374303512365
0.9494505494505494,3.2154986192962847
0.9692307692307692,3.21223573049618
0.989010989010989,3.211770556325169
1.0087912087912088,3.214106456563422
1.0285714285714287,3.2192283068063703
1.0483516483516484,3.22710273122079
1.0681318681318681,3.237678610908096
1.087912087912088,3.250887849078894
1.1076923076923075,3.2666463654664497
1.1274725274725275,3.284855285449321
1.1472527472527472,3.305402284565491
1.1670329670329669,3.3281630466255905
1.1868131868131868,3.3530027934099884
1.2065934065934065,3.3797778457293113
1.2263736263736265,3.4083371790766286
1.2461538461538462,3.4385239417654025
1.2659340659340659,3.470176908871344
1.2857142857142858,3.5031318510443854
1.3054945054945055,3.537222802952644
1.3252747252747252,3.572283221464457
1.3450549450549452,3.6081470284550976
1.3648351648351649,3.644649537211329
1.3846153846153846,3.6816282647429235
1.4043956043956045,3.71892363489883
1.4241758241758242,3.7563795790722665
1.443956043956044,3.793844042539781
1.4637362637362636,3.831169405204652
1.4835164835164834,3.868212825801689
1.5032967032967033,3.904836518562562
1.523076923076923,3.9409079710245414
1.542857142857143,3.9763001111673786
1.5626373626373626,4.010891431446319
1.5824175824175823,4.044566076606595
1.6021978021978023,4.077213901456234
1.621978021978022,4.108730504070606
1.6417582417582417,4.13901723922548
1.6615384615384616,4.167981216220506
1.6813186813186813,4.1955352846708855
1.7010989010989013,4.221598011316284
1.720879120879121,4.246093650424084
1.7406593406593405,4.268952109948278
1.7604395604395604,4.2901089152420635
1.7802197802197801,4.30950517180908
1.7999999999999998,4.327087528309898
1.8197802197802198,4.342808140812821
1.8395604395604395,4.356624639086412
1.8593406593406594,4.368500095571184
1.879120879120879,4.378402997534907
1.8989010989010988,4.386307222806593
1.9186813186813187,4.392192019393781
1.9384615384615385,4.396041989213967
1.9582417582417584,4.397847076109724
1.978021978021978,4.39760255826584
1.9978021978021978,4.395309045102934
2.0175824175824175,4.390972478682432
2.0373626373626372,4.384604139620792
2.0571428571428574,4.376220657473077
2.076923076923077,4.365844025505639
2.096703296703297,4.35350161973192
2.1164835164835165,4.339226222031576
2.1362637362637362,4.323056047108836
2.1560439560439564,4.305034772967199
2.175824175824176,4.285211574482756
2.195604395604396,4.263641159541776
2.215384615384615,4.240383807068312
2.2351648351648348,4.215505406097892
2.254945054945055,4.189077494851814
2.2747252747252746,4.16117729852653
2.2945054945054943,4.131887764230778
2.314285714285714,4.101297591174196
2.3340659340659338,4.069501253831135
2.353846153846154,4.036599015368545
2.3736263736263736,4.00269692813513
2.3934065934065933,3.967906817459214
2.413186813186813,3.9323462443980954
2.4329670329670328,3.896138442426525
2.452747252747253,3.8594122223579856
2.4725274725274726,3.8223018390754433
2.4923076923076923,3.784946812932947
2.512087912087912,3.7474916980089987
2.5318681318681318,3.710085788791324
2.5516483516483515,3.6728827564057642
2.5714285714285716,3.636040205238261
2.5912087912087913,3.5997191408176183
2.610989010989011,3.564083340218749
2.6307692307692307,3.5292986171075893
2.6505494505494505,3.4955319749779643
2.6703296703296706,3.46295064421611
2.6901098901098903,3.4317210014414683
2.70989010989011,3.4020073731487632
2.7296703296703297,3.373970730006187
2.7494505494505495,3.347767283170514
2.769230769230769,3.3235469995102296
2.7890109890109893,3.3014520584420692
2.808791208791209,3.281615278859781
2.8285714285714287,3.264158549965435
2.8483516483516484,3.2491913042521072
2.8681318681318677,3.236809073967124
2.887912087912088,3.227092173678998
2.9076923076923076,3.2201045507396255
2.9274725274725273,3.2158928422834183
2.947252747252747,3.214485671929257
2.9670329670329667,3.2158932117550885
2.986813186813187,3.2201070258105924
3.0065934065934066,3.2271002010128775
3.0263736263736263,3.236827760442573
3.046153846153846,3.2492273435798
3.0659340659340657,3.2642201286071084
3.085714285714286,3.2817119641620764
3.1054945054945056,3.3015946722735543
3.1252747252747253,3.323747480882814
3.145054945054945,3.3480385433440505
3.1648351648351647,3.3743265034354346
3.184615384615385,3.4024620673647004
3.2043956043956046,3.432289548597591
3.2241758241758243,3.4636483566099527
3.243956043956044,3.496374406411887
3.2637362637362637,3.5303014315091827
3.2835164835164834,3.5652621885227065
3.3032967032967036,3.6010895467338306
3.3230769230769233,3.6376174602048743
3.342857142857143,3.674681823755822
3.3626373626373627,3.71212121694745
3.3824175824175824,3.749777542358861
3.4021978021978025,3.7874965659243642
3.4219780219780223,3.8251283679966894
3.441758241758242,3.862527714229892
3.4615384615384617,3.8995543554209737
3.481318681318681,3.936073265206291
3.501098901098901,3.971954824057469
3.520879120879121,4.007074957430481
3.5406593406593405,4.041315235247808
3.5604395604395602,4.074562939181706
3.58021978021978,4.106711103491042
3.5999999999999996,4.137658534469026
3.61978021978022,4.167309812902842
3.6395604395604395,4.1955752833382824
3.659340659340659,4.222371033390077
3.679120879120879,4.247618865843343
3.6989010989010986,4.271246265853481
3.718681318681319,4.293186365168693
3.7384615384615385,4.313377904967183
3.758241758241758,4.331765198616558
3.7780219780219784,4.348298095420662
3.7978021978021976,4.362931946215037
3.8175824175824173,4.375627571500996
3.8373626373626375,4.386351232666692
3.8571428571428568,4.395074606725906
3.876923076923077,4.401774764909431
3.896703296703296,4.406434155364417
3.916483516483517,4.409040590152712
3.936263736263736,4.4095872366849775
3.956043956043956,4.408072613681874
3.9758241758241755,4.4045005917137425
3.9956043956043956,4.398880398332891
4.015384615384615,4.391226627776439
4.035164835164835,4.381559255179166
4.054945054945055,4.369903655192913
4.0747252747252745,4.356290624859707
4.094505494505494,4.3407564105253345
4.114285714285715,4.323342738508636
4.134065934065934,4.304096849152532
4.153846153846154,4.283071533775509
4.173626373626373,4.260325173910868
4.193406593406594,4.23592178206275
4.213186813186813,4.209931043017457
4.232967032967033,4.182428354522314
4.252747252747253,4.153494865875884
4.2725274725274724,4.123217512660019
4.292307692307692,4.091689045479241
4.312087912087913,4.059008050153621
4.331868131868132,4.025278956334574
4.351648351648352,3.9906120309761284
4.371428571428571,3.9551233524996223
4.391208791208792,3.9189347608398433
4.410989010989011,3.882173777865429
4.43076923076923,3.844973491938206
4.450549450549451,3.8074723996379545
4.4703296703296695,3.7698141969597607
4.49010989010989,3.7321475116313505
4.50989010989011,3.6946255676500237
4.52967032967033,3.657405772766767
4.549450549450549,3.6206492195272024
4.569230769230769,3.584520090702673
4.589010989010989,3.5491849606091286
4.608791208791209,3.5148119850160957
4.628571428571428,3.481569974190884
4.648351648351649,3.4496273461868867
4.6681318681318675,3.4191509608225994
4.687912087912088,3.390304838922504
4.707692307692308,3.3632487762517376
4.7274725274725276,3.3381368670509093
4.747252747252747,3.315115957954225
4.767032967032967,3.2943240590541363
4.786813186813187,3.27588874457347
4.806593406593407,3.259925580574101
4.826373626373626,3.246536620889549
4.846153846153847,3.2358090145555978
4.8659340659340655,3.2278137680348493
4.885714285714286,3.222604703226528
4.905494505494506,3.220217647535796
4.9252747252747255,3.2206698852754663
4.945054945054945,3.223959890733571
4.964835164835165,3.2300673529095634
4.984615384615385,3.238953490893961
5.004395604395604,3.2505616479133232
5.024175824175824,3.2648181419462423
5.043956043956045,3.2816333422088957
5.0637362637362635,3.300902934220185
5.083516483516483,3.322509331892981
5.103296703296703,3.3463231932433706
5.123076923076923,3.3722049967430503
5.142857142857143,3.4000066377685845
5.162637362637362,3.429573008616108
5.182417582417583,3.4607435306817282
5.2021978021978015,3.4933536131800635
5.221978021978022,3.52723601874894
5.241758241758242,3.5622221220979147
5.2615384615384615,3.598143053219901
5.281318681318681,3.634830721405198
5.301098901098901,3.6721187202678918
5.320879120879121,3.709843117179317
5.340659340659341,3.7478431329223225
5.36043956043956,3.785961719094876
5.380219780219781,3.8240460418866453
5.3999999999999995,3.861947881427263
5.41978021978022,3.8995239560597477
5.43956043956044,3.9366361807230965
5.4593406593406595,3.9731518682213056
5.479120879120879,4.008943881586024
5.498901098901099,4.0438907450696115
5.518681318681319,4.0778767205831885
5.538461538461538,4.110791855659546
5.558241758241758,4.142532008300661
5.578021978021979,4.172998853384994
5.5978021978021975,4.202099874672334
5.617582417582418,4.229748345862314
5.637362637362637,4.2558633036395594
5.6571428571428575,4.2803695151741445
5.676923076923077,4.303197442138964
5.696703296703297,4.3242832029523255
5.716483516483517,4.343568534650494
5.736263736263735,4.361000755536242
5.756043956043956,4.376532729531108
5.775824175824176,4.390122832976318
5.795604395604395,4.401734924475031
5.815384615384615,4.411338318243339
5.835164835164835,4.418907761334411
5.854945054945055,4.4244234150160695
5.874725274725275,4.427870840513301
5.894505494505494,4.429240989270918
5.914285714285715,4.428530197844145
5.934065934065933,4.425740187484683
5.953846153846154,4.420878068453039
5.973626373626374,4.413956349053031
5.993406593406593,4.404992949348236
6.013186813186813,4.394011219480861
6.032967032967033,4.381039962467572
6.052747252747253,4.366113461292769
6.072527472527473,4.3492715100533585
6.092307692307692,4.3305594488281445
6.112087912087913,4.310028201845369
6.131868131868131,4.287734318400638
6.151648351648352,4.263740015829434
6.171428571428572,4.238113223660268
6.191208791208791,4.210927627860633
6.210989010989011,4.182262713833956
6.230769230769231,4.15220380652628
6.2505494505494505,4.120842105651573
6.270329670329671,4.088274713639732
6.29010989010989,4.054604653447727
6.309890109890111,4.019940872849046
6.329670329670329,3.9843982312296107
6.349450549450549,3.9480974642711115
6.36923076923077,3.9111651212025085
6.3890109890109885,3.873733468557588
6.408791208791209,3.835940353610278
6.428571428571428,3.7979290198955713
6.4483516483516485,3.7598478664998205
6.468131868131868,3.7218501421674905
6.487912087912088,3.6840935647838235
6.507692307692308,3.6467398565287463
6.527472527472527,3.6099541850441295
6.547252747252747,3.573904501412936
6.567032967032967,3.5387607667199616
6.5868131868131865,3.5046940605544306
6.606593406593407,3.471875567121015
6.626373626373626,3.4404754377190527
6.6461538461538465,3.41066153226617
6.665934065934065,3.3825980472601476
6.685714285714286,3.3564440429998137
6.705494505494506,3.3323518888425308
6.725274725274725,3.310465651489138
6.745054945054945,3.290919457390366
6.764835164835165,3.273835865917135
6.7846153846153845,3.259324294436502
6.804395604395605,3.247479539385854
6.824175824175824,3.2383804383909087
6.8439560439560445,3.2320887170892885
6.863736263736263,3.2286480604309267
6.883516483516484,3.228083441869649
6.903296703296704,3.2304007353109276
6.923076923076923,3.235586624433293
6.942857142857143,3.243608812731643
6.962637362637362,3.254416526127528
6.9824175824175825,3.2679412890685082
7.002197802197802,3.284097945444732
7.021978021978022,3.302785887991253
7.041758241758242,3.323890454521349
7.061538461538461,3.347284446521422
7.081318681318681,3.3728297252781037
7.101098901098901,3.4003788425544346
7.1208791208791204,3.429776666490163
7.140659340659341,3.460861968395385
7.16043956043956,3.4934689419332168
7.1802197802197805,3.5274286323700297
7.199999999999999,3.5625702596981212
7.21978021978022,3.5987224251786385
7.23956043956044,3.6357141959797867
7.259340659340659,3.6733760669576103
7.279120879120879,3.711540802182567
7.298901098901099,3.7500441615612634
7.318681318681318,3.788725519890734
7.338461538461539,3.8274283869970085
7.358241758241758,3.866000838350003
7.3780219780219785,3.9042958658197713
7.397802197802197,3.942171658146339
7.417582417582418,3.97949182033126
7.437362637362638,4.016125540604914
7.457142857142857,4.0519477129489125
7.476923076923077,4.0868390224118665
7.496703296703297,4.120685999693609
7.516483516483516,4.153381050718482
7.536263736263736,4.1848224661967475
7.556043956043957,4.2149144154978115
7.575824175824176,4.243566928541046
7.595604395604395,4.270695868851798
7.615384615384615,4.296222900434584
7.635164835164835,4.320075450679222
7.654945054945055,4.342186671137417
7.674725274725275,4.362495397680981
7.694505494505494,4.380946111275458
7.7142857142857135,4.397488900368054
7.734065934065935,4.412079425692308
7.753846153846154,4.424678888128431
7.7736263736263735,4.435254000123888
7.793406593406592,4.443776961068238
7.813186813186814,4.450225436926979
7.832967032967034,4.454582544365853
7.852747252747252,4.4568368395386075
7.872527472527472,4.456982311661778
7.892307692307693,4.455018381460056
7.912087912087912,4.450949904529541
7.931868131868132,4.444787179633072
7.951648351648351,4.43654596190875
7.971428571428572,4.426247480936939
7.991208791208791,4.413918463570208
8.010989010989011,4.399591161382284
8.03076923076923,4.383303382532519
8.05054945054945,4.365098527769582
8.07032967032967,4.345025630207622
8.09010989010989,4.323139398396917
8.10989010989011,4.299500262074757
8.129670329670331,4.274174419816599
8.149450549450549,4.247233887607116
8.169230769230769,4.218756547111472
8.189010989010988,4.188826192142472
8.20879120879121,4.1575325714847
8.22857142857143,4.124971425846319
8.248351648351647,4.091244516259112
8.268131868131867,4.056459640732634
8.287912087912087,4.020730635388195
8.307692307692308,3.9841773556519753
8.327472527472528,3.9469256323793105
8.347252747252746,3.909107197020592
8.367032967032966,3.8708595691406438
8.386813186813187,3.8323258987889437
8.406593406593407,3.793654755421089
8.426373626373627,3.754999854336853
8.446153846153845,3.716519710983901
8.465934065934066,3.678377213051195
8.485714285714286,3.6407391001276945
8.505494505494505,3.6037753409300985
8.525274725274725,3.567658398817329
8.545054945054945,3.5325623776228543
8.564835164835165,3.4986620418580765
8.584615384615384,3.466131708163841
8.604395604395604,3.435144008572653
8.624175824175826,3.405868530702815
8.643956043956043,3.3784703453795517
8.663736263736263,3.3531084382231406
8.683516483516483,3.329934068218521
8.703296703296704,3.309089082839409
8.723076923076924,3.2907042255046206
8.742857142857142,3.2748974764852745
8.762637362637362,3.2617724723211565
8.782417582417583,3.2514170508276914
8.802197802197803,3.2439019684583044
8.821978021978023,3.239279833859617
8.84175824175824,3.237584295859226
8.86153846153846,3.2388295160406186
8.881318681318682,3.243009945919848
8.901098901098901,3.2501004171918937
8.920879120879121,3.2600565413664895
8.940659340659339,3.272815403234023
8.96043956043956,3.2882965218333338
8.98021978021978,3.3064030436513385
9.0,3.3270231261899728
9.01978021978022,3.3500314660671697
9.03956043956044,3.375290924507444
9.05934065934066,3.402654204227159
9.079120879120879,3.4319655349593825
9.098901098901099,3.4630623297056067
9.11868131868132,3.495776779712266
9.138461538461538,3.5299373626239072
9.158241758241758,3.5653702447944733
9.178021978021977,3.601900564961431
9.197802197802199,3.6393535921241575
9.217582417582419,3.677555755337585
9.237362637362637,3.716335547146305
9.257142857142856,3.7555243055291765
9.276923076923078,3.794956881543901
9.296703296703297,3.834472201435769
9.316483516483517,3.873913732910435
9.336263736263735,3.9131298656774343
9.356043956043957,3.9519742163628426
9.375824175824176,3.9903058675674403
9.395604395604396,4.027989550303056
9.415384615384616,4.06489577835093
9.435164835164835,4.100900942314735
9.454945054945055,4.1358873703359365
9.474725274725275,4.169743361637986
9.494505494505495,4.202363198293924
9.514285714285714,4.233647139887934
9.534065934065934,4.263501405075453
9.553846153846154,4.29183814344484
9.573626373626373,4.3185754005475445
9.593406593406593,4.343637078492116
9.613186813186815,4.3669528940874125
9.632967032967032,4.3884583361673215
9.652747252747252,4.408094623428316
9.672527472527472,4.425808663857125
9.692307692307693,4.441553016612815
9.712087912087913,4.455285857051203
9.731868131868131,4.46697094543404
9.75164835164835,4.476577599747288
9.771428571428572,4.484080672956401
9.791208791208792,4.489460534949768
9.810989010989012,4.492703059359209
9.83076923076923,4.493799615396696
9.850549450549451,4.492747064805362
9.87032967032967,4.489547763988523
9.89010989010989,4.484209571349394
9.90989010989011,4.4767458598445256
9.92967032967033,4.46717553472271
9.94945054945055,4.455523056386194
9.96923076923077,4.441818468269061
9.989010989010989,4.426097429576501
10.008791208791209,4.4084012526646426
10.028571428571428,4.38877694476101
10.048351648351648,4.367277253625917
10.068131868131868,4.343960716631928
10.08791208791209,4.318891712586875
10.107692307692307,4.292140515441214
10.127472527472527,4.2637833487970145
10.147252747252747,4.233902439868556
10.167032967032966,4.202586071226544
10.186813186813188,4.169928628284536
10.206593406593406,4.136030640050462
10.226373626373626,4.10099881016425
10.246153846153845,4.064946034669646
10.265934065934067,4.0279914023238295
10.285714285714286,3.990260172532499
10.305494505494504,3.951883725217139
10.325274725274724,3.9129994760855937
10.345054945054946,3.873750749906555
10.364835164835165,3.834286603509767
10.384615384615385,3.794761589387744
10.404395604395603,3.7553354500130594
10.424175824175824,3.716172732376902
10.443956043956044,3.6774423118828445
10.463736263736264,3.639316814694999
10.483516483516484,3.601971928054588
10.503296703296703,3.5655855890676347
10.523076923076923,3.5303370441515285
10.542857142857143,3.496405773826198
10.562637362637362,3.4639702809357353
10.582417582417584,3.433206744736906
10.602197802197802,3.4042875485750987
10.621978021978022,3.3773796949867814
10.641758241758241,3.352643128817059
10.661538461538463,3.3302289960079325
10.681318681318682,3.310277872670836
10.7010989010989,3.29291800538626
10.72087912087912,3.2782636087927055
10.740659340659342,3.266413269852079
10.760439560439561,3.2574485091813083
