Frequency (Hz),Amplitude
0.0,2.4728787376280867
0.04,2.4733497483018163
0.08,2.474760408509696
0.12,2.477103623483488
0.16,2.480367637110431
0.19999999999999998,2.4845361332842146
0.24,2.4895883750486543
0.27999999999999997,2.4954993789084323
0.32,2.50224012109666
0.36,2.5097777721160868
0.39999999999999997,2.51807595552005
0.44,2.5270950266760486
0.48,2.5367923671580277
0.52,2.5471226904365523
0.5599999999999999,2.558038354667423
0.6,2.569489678604642
0.64,2.581425256965206
0.6799999999999999,2.5937922719333133
0.72,2.6065367978911356
0.76,2.6196040968852476
0.7999999999999999,2.632938902765959
0.84,2.646485692357361
0.88,2.6601889424173737
0.9199999999999999,2.6739933715207833
0.96,2.6878441663375
1.0,2.7016871920792527
1.04,2.7154691871484826
1.0799999999999998,2.7291379422430646
1.1199999999999999,2.7426424643507623
1.1600000000000001,2.755933126210411
1.2,2.76896180192531
1.24,2.7816819894921365
1.28,2.79404892105909
1.3199999999999998,2.8060196617541378
1.3599999999999999,2.817553197931467
1.4,2.8286105156753254
1.44,2.839154670378252
1.48,2.849150848178451
1.52,2.858566420000957
1.5599999999999998,2.867370988901514
1.5999999999999999,2.8755364313628
1.64,2.8830369331407883
1.68,2.8898490202064253
1.72,2.8959515852746858
1.76,2.901325910360821
1.7999999999999998,2.905955685752108
1.8399999999999999,2.9098270257334216
1.88,2.912928481356308
1.92,2.9152510504941707
1.9599999999999997,2.916788185380627
2.0,2.917535797783679
2.0399999999999996,2.917492261925288
2.08,2.9166584152134685
2.12,2.91503755681239
2.1599999999999997,2.9126354440343647
2.2,2.9094602864962233
2.2399999999999998,2.9055227379405997
2.28,2.9008358855803382
2.3200000000000003,2.895415236780735
2.36,2.8892787028501665
2.4,2.882446579663771
2.44,2.8749415247981505
2.48,2.866788530806789
2.5199999999999996,2.8580148942165238
2.56,2.848650179775273
2.6,2.838726179430597
2.6399999999999997,2.828276865468279
2.68,2.8173383371907783
2.7199999999999998,2.805948760468236
2.76,2.7941482994511246
2.8,2.7819790396952153
2.84,2.769484901918416
2.88,2.7567115455873306
2.92,2.7437062615220764
2.96,2.730517852713595
2.9999999999999996,2.717196502571831
3.04,2.703793629869165
3.08,2.6903617297146916
3.1199999999999997,2.6769541999951136
3.16,2.6636251528501718
3.1999999999999997,2.6504292109176193
3.2399999999999998,2.6374212882869963
3.28,2.6246563563439205
3.32,2.612189194967362
3.36,2.600074129859657
3.4,2.588364757139488
3.44,2.5771136567058766
3.4799999999999995,2.5663720962787253
3.52,2.5561897284280404
3.5599999999999996,2.5466142833074956
3.5999999999999996,2.5376912601933923
3.64,2.529463621281568
3.6799999999999997,2.521971491495001
3.7199999999999998,2.515251868286652
3.76,2.5093383455688802
3.7999999999999994,2.5042608559482846
3.84,2.5000454353815496
3.88,2.4967140141863644
3.9199999999999995,2.4942842380395915
3.96,2.492769322175403
4.0,2.492177941468536
4.04,2.492514158466353
4.079999999999999,2.4937773907383667
4.12,2.495962418166835
4.16,2.4990594300343534
4.199999999999999,2.503054111001822
4.24,2.507927764341025
4.28,2.5136574701161383
4.319999999999999,2.520216275420328
4.36,2.5275734132853267
4.4,2.5356945465059106
4.4399999999999995,2.544542032364482
4.4799999999999995,2.5540752041043224
4.5200000000000005,2.5642506649794217
4.56,2.5750225907948034
4.6,2.586343037031548
4.640000000000001,2.598162246909654
4.68,2.610428957062985
4.72,2.6230906978661026
4.76,2.6360940858462967
4.8,2.649385106019773
4.84,2.662909382394886
4.88,2.676612435275973
4.92,2.690439924369125
4.96,2.7043378770293143
5.0,2.718252901291786
5.039999999999999,2.7321323835967166
5.08,2.7459246713438903
5.12,2.7595792406040216
5.159999999999999,2.7730468494667955
5.2,2.786279677625395
5.24,2.799231452885983
5.279999999999999,2.8118575653519335
5.319999999999999,2.824115170069797
5.36,2.8359632789408695
5.3999999999999995,2.847362842701706
5.4399999999999995,2.858276823762579
5.48,2.8686702606672574
5.52,2.8785103249032042
5.56,2.887766370750519
5.6,2.8964099788127196
5.64,2.904414993824067
5.68,2.9117575572781083
5.72,2.918416135371275
5.76,2.9243715427046824
5.8,2.9296069621371124
5.84,2.9341079611330194
5.879999999999999,2.9378625049015565
5.92,2.9408609665760133
5.96,2.9430961346380227
5.999999999999999,2.9445632177468255
6.04,2.94525984709133
6.08,2.9451860763407676
6.119999999999999,2.944344379228827
6.16,2.9427396447655005
6.2,2.9403791700306123
6.239999999999999,2.9372726504626963
6.279999999999999,2.9334321675163104
6.32,2.928872173520001
6.359999999999999,2.9236094735254587
6.3999999999999995,2.917663203896363
6.44,2.911054807342334
6.4799999999999995,2.9038080040599503
6.52,2.8959487585987422
6.56,2.887505242025782
6.6,2.878507788918622
6.64,2.868988848673129
6.68,2.8589829305713486
6.72,2.848526542015699
6.76,2.837658119300947
6.8,2.826417950265768
6.84,2.814848088143387
6.88,2.8029922559174225
6.92,2.790895740487171
6.959999999999999,2.778605275958414
7.0,2.766168915404326
7.04,2.753635890488683
7.08,2.741056458413534
7.119999999999999,2.7284817357480344
7.16,2.7159635188173272
7.199999999999999,2.7035540904819344
7.239999999999999,2.691306013320616
7.28,2.679271909444019
7.32,2.667504227412082
7.359999999999999,2.6560549970034173
7.3999999999999995,2.644975572886718
7.4399999999999995,2.6343163685676947
7.4799999999999995,2.62412658232336
7.52,2.6144539171803127
7.5600000000000005,2.6053442973343715
7.599999999999999,2.5968415837341126
7.64,2.588987291846795
7.68,2.581820314878614
7.719999999999999,2.575376655917983
7.76,2.5696891725972373
7.800000000000001,2.5647873379135597
7.839999999999999,2.560697020803983
7.88,2.5574402899263795
7.92,2.555035243855622
7.959999999999999,2.5534958705636757
8.0,2.552831938620739
8.040000000000001,2.553048922042576
8.08,2.5541479601323167
8.12,2.5561258530414923
8.159999999999998,2.558975093126599
8.2,2.5626839315260166
8.24,2.567236478751067
8.28,2.5726128374952917
8.32,2.5787892653376945
8.36,2.585738364563904
8.399999999999999,2.593429295966923
8.44,2.601828013223027
8.48,2.6108975142720294
8.52,2.6205981060627512
8.56,2.63088767904879
8.6,2.641721987928034
8.639999999999999,2.6530549353002195
8.68,2.664838855157577
8.72,2.677024793410326
8.76,2.6895627829672786
8.8,2.7024021112295378
8.84,2.715491578199191
8.879999999999999,2.728779743744852
8.92,2.742215162892894
8.959999999999999,2.7557466083198516
9.0,2.7693232795028373
9.040000000000001,2.7828949982370252
9.079999999999998,2.796412390450593
9.12,2.8098270544370307
9.16,2.8230917157832303
9.2,2.836160369400218
9.24,2.8489884091639937
9.280000000000001,2.8615327457492943
9.32,2.87375191329127
9.36,2.8856061655426553
9.399999999999999,2.897057562209285
9.44,2.908070046147524
9.48,2.9186095120961038
9.52,2.92864386759398
9.559999999999999,2.9381430867074725
9.6,2.947079257155752
9.639999999999999,2.955426621385271
9.68,2.963161612102477
9.72,2.9702628827308
9.76,2.9767113332138613
9.8,2.982490131542196
9.84,2.9875847313365256
9.879999999999999,2.9919828857767903
9.92,2.9956746581231632
9.959999999999999,2.9986524290332186
10.0,3.000910900838226
10.04,3.0024470989015475
10.079999999999998,3.0032603701426996
10.12,3.0033523787723793
10.16,3.0027270992457513
10.2,3.00139080640432
10.24,2.9993520627397245
10.280000000000001,2.996621702676358
10.319999999999999,2.993212813733483
10.36,2.98914071439138
10.4,2.9844229284501513
10.44,2.9790791556342024
10.48,2.9731312381600388
10.52,2.966603122950482
10.559999999999999,2.959520819144555
10.6,2.951912350520036
10.639999999999999,2.9438077024152793
10.68,2.935238762709139
10.72,2.9262392563937514
10.76,2.9168446732551616
10.799999999999999,2.907092188162996
10.84,2.8970205734635317
10.879999999999999,2.886670102972167
10.92,2.8760824470733573
10.96,2.8653005584598517
11.0,2.854368548080675
11.04,2.8433315509204293
11.08,2.8322355813028124
11.12,2.8211273775005252
11.16,2.8100542355432165
11.2,2.799063832245527
11.24,2.788204037629771
11.28,2.777522717091118
11.319999999999999,2.767067523847495
11.36,2.7568856824288854
11.4,2.7470237641891564
11.44,2.7375274560634564
11.48,2.7284413240407224
11.52,2.719808573067484
11.559999999999999,2.711670805338773
11.6,2.7040677791561736
11.64,2.6970371707333305
11.68,2.6906143414962136
11.72,2.684832113550519
11.759999999999998,2.679720556062984
11.799999999999999,2.675306785320311
11.84,2.6716147811826394
11.879999999999999,2.668665222534953
11.92,2.6664753441576874
11.96,2.665058817189132
11.999999999999998,2.6644256550408563
12.04,2.6645821462608485
12.08,2.6655308154266693
12.12,2.667270412705072
12.16,2.6697959322482014
12.200000000000001,2.673098659124997
12.239999999999998,2.677166244023818
12.28,2.681982804523933
12.32,2.6875290513315453
12.36,2.6937824375228585
12.4,2.7007173285406667
12.44,2.7083051904588937
12.479999999999999,2.7165147938648246
12.52,2.7253124306123846
12.559999999999999,2.7346621406696934
12.6,2.7445259463162057
12.64,2.754864091032761
12.68,2.765635280564368
12.719999999999999,2.776796923811785
12.76,2.788305371415154
12.799999999999999,2.800116150121882
12.84,2.81218419127295
12.88,2.824464051989178
12.92,2.836910127884199
12.959999999999999,2.849476856368311
12.999999999999998,2.862118909832037
13.04,2.8747913782062002
13.08,2.887449940584384
13.12,2.900051025761614
13.16,2.9125519616897324
13.2,2.924911113974788
13.239999999999998,2.9370880136458184
13.28,2.9490434745081955
13.32,2.96073970046046
13.36,2.9721403832019258
13.4,2.9832107907919516
13.44,2.993917847541893
13.479999999999999,3.004230205729469
13.52,3.014118309624166
13.559999999999999,3.0235544523029576
13.6,3.0325128257197567
13.64,3.040969564470647
13.68,3.0489027836713585
13.719999999999999,3.0562926113349325
13.76,3.0631212156063623
13.799999999999999,3.069372827178593
13.84,3.075033757180677
13.88,3.0800924107949053
13.919999999999998,3.0845392968256387
13.959999999999999,3.088367033408682
14.0,3.091570350016524
14.04,3.094146085881943
14.08,3.0960931849302384
14.120000000000001,3.097412687278898
14.16,3.098107717333099
14.2,3.098183468475591
14.239999999999998,3.0976471843208735
14.28,3.096508136475833
14.32,3.0947775987222625
14.36,3.092468817511168
14.399999999999999,3.0895969786345696
14.44,3.086179169917559
14.479999999999999,3.0822343397523126
14.52,3.0777832512765513
14.56,3.0728484319817437
14.6,3.0674541185222908
14.64,3.0616261964853253
14.68,3.0553921348732813
14.719999999999999,3.0487809150477365
14.76,3.0418229538842967
14.799999999999999,3.0345500208950815
14.84,3.0269951490882
14.879999999999999,3.0191925393536074
14.919999999999998,3.0111774581922357
14.959999999999999,3.002986128641299
15.0,2.994655614293779
15.04,2.986223696364834
15.079999999999998,2.9777287438226976
15.120000000000001,2.9692095766769038
15.159999999999998,2.9607053226022084
15.199999999999998,2.9522552671723776
15.24,2.9438986980833084
15.28,2.935674743858813
15.319999999999999,2.927622207653635
15.36,2.9197793968947443
15.399999999999999,2.912183949631668
15.439999999999998,2.904872658596819
15.48,2.897881294104213
15.52,2.8912444270361277
15.559999999999999,2.884995253278674
15.600000000000001,2.87916542106443
15.639999999999999,2.8737848627598583
15.679999999999998,2.8688816326927236
15.72,2.8644817526470847
15.76,2.8606090666571955
15.799999999999999,2.857285106704559
15.84,2.8545289708627206
15.879999999999999,2.8523572153416428
15.919999999999998,2.8507837617578313
15.96,2.8498198207997536
16.0,2.8494738332726253
16.04,2.8497514292967887
16.080000000000002,2.8506554062037965
16.12,2.8521857254299303
16.16,2.8543395284541715
16.200000000000003,2.8571111715733117
16.24,2.8604922790572034
16.279999999999998,2.8644718139888266
16.319999999999997,2.869036165872704
16.36,2.874169253896275
16.4,2.8798526445568244
16.439999999999998,2.886065682224447
16.48,2.892785631101678
16.52,2.899987826963807
16.56,2.907645837020458
16.6,2.9157316262275934
16.64,2.924215728397787
16.68,2.933067420502421
16.72,2.942254898629292
16.759999999999998,2.951745454148976
16.799999999999997,2.9615056487493154
16.84,2.971501487115545
16.88,2.981698586160006
16.919999999999998,2.9920623398361497
16.96,3.0025580787036175
17.0,3.0131512235412865
17.04,3.0238074324309965
17.080000000000002,3.034492740853953
17.12,3.045173694453134
17.16,3.0558174742169557
17.2,3.0663920139315355
17.24,3.0768661098303203
17.279999999999998,3.087209522441021
17.32,3.0973930706902544
17.36,3.1073887183770825
17.4,3.1171696531678106
17.44,3.1267103582967484
17.48,3.1359866771822538
17.52,3.1449758711842435
17.56,3.1536566707404123
17.6,3.162009320123343
17.64,3.1700156160610287
17.68,3.1776589404596347
17.72,3.184924287460091
17.759999999999998,3.1917982850501914
17.799999999999997,3.1982692114419473
17.84,3.204327006410089
17.88,3.2099632777730327
17.919999999999998,3.2151713031818607
17.96,3.21994602736726
18.0,3.2242840549783245
18.04,3.2281836391316734
18.080000000000002,3.231644665774309
18.12,3.2346686339494504
18.159999999999997,3.2372586320413705
18.2,3.239419310063297
18.24,3.241156848041742
18.279999999999998,3.2424789205416444
18.32,3.2433946573692287
18.36,3.2439146004839845
18.4,3.244050657147569
18.44,3.243816049336029
18.48,3.243225259442525
18.52,3.2422939723008875
18.560000000000002,3.2410390135660374
18.6,3.2394782844955667
18.64,3.237630693187552
18.679999999999996,3.2355160823435125
18.72,3.2331551536416487
18.759999999999998,3.2305693888247946
18.799999999999997,3.227780967629325
18.84,3.2248126827059185
18.88,3.221687851710061
18.919999999999998,3.2184302267696903
18.96,3.215063901568821
19.0,3.2116132163193445
19.04,3.2081026609277057
19.080000000000002,3.2045567766989542
19.119999999999997,3.2010000569563717
19.159999999999997,3.1974568469907885
19.2,3.193951243788423
19.24,3.190506996019266
19.279999999999998,3.18714740479895
19.32,3.183895225764477
19.36,3.1807725730278658
19.4,3.177800825590571
19.44,3.1750005368145673
19.48,3.1723913475529404
19.52,3.169991903542669
19.560000000000002,3.167819777654643
19.6,3.1658913975804532
19.639999999999997,3.1642219795118205
19.68,3.1628254683365093
19.72,3.1617144848345955
19.759999999999998,3.160900280310922
19.8,3.1603926990442255
19.84,3.160200148871541
19.88,3.1603295801583324
19.919999999999998,3.160786473332345
19.96,3.161574835082565
20.0,3.162697203245878
20.04,3.1641546603240474
20.08,3.165946855493916
20.119999999999997,3.1680720348955695
20.159999999999997,3.1705270799080876
20.2,3.1733075530513912
20.24,3.1764077510869546
20.279999999999998,3.179820764830673
20.32,3.183538545138694
20.36,3.1875519744822642
20.4,3.1918509434910707
20.44,3.1964244318163115
20.48,3.2012605926448368
20.52,3.206346840184344
20.560000000000002,3.2116699394359123
20.599999999999998,3.217216097574274
20.639999999999997,3.2229710562673235
20.68,3.2289201842834157
20.72,3.2350485697582214
20.759999999999998,3.2413411115203847
20.8,3.247782608906965
20.84,3.254357849534517
20.88,3.2610516945288603
20.92,3.2678491607555538
20.96,3.274735499632899
21.0,3.2816962721496044
21.04,3.2887174197492093
21.08,3.2957853307827643
21.119999999999997,3.302886902269628
21.159999999999997,3.3100095967432335
21.2,3.31714149399401
21.24,3.3242713375555373
21.279999999999998,3.331388575811674
21.32,3.338483397632717
21.36,3.345546762476762
21.4,3.3525704249190804
21.44,3.359546953597297
21.48,3.3664697445836254
21.52,3.37333302921769
21.56,3.380131876454456
21.599999999999998,3.386862189802124
21.639999999999997,3.393520698944047
21.68,3.4001049461577257
21.72,3.406613267662303
21.759999999999998,3.4130447700441446
21.8,3.419399301928172
21.84,3.425677421080523
21.88,3.4318803571462992
21.92,3.438009970244184
21.96,3.444068705657956
22.0,3.450059544883313
22.04,3.4559859533066093
22.08,3.4618518248104944
22.119999999999997,3.4676614236193823
22.16,3.4734193237153734
22.2,3.4791303461725405
22.24,3.484799494773672
22.28,3.4904318902891185
22.32,3.4960327038115655
22.36,3.5016070895530698
22.4,3.5071601175217944
22.44,3.5126967065045362
22.48,3.518221557787764
22.519999999999996,3.52373909005389
22.56,3.529253375890591
22.599999999999998,3.534768080349298
22.639999999999997,3.540286401983998
22.68,3.5458110167932224
22.72,3.551344025476695
22.759999999999998,3.5568869044029805
22.8,3.562440460666364
22.84,3.5680047915895816
22.88,3.573579249004416
22.92,3.5791624086146023
22.96,3.584752044715285
23.0,3.5903451105107016
23.04,3.595937724237159
23.08,3.60152516126217
23.119999999999997,3.6071018522932397
23.16,3.61266138779142
23.2,3.61819652864636
23.24,3.6236992231310374
23.28,3.6291606301164285
23.32,3.634571148489401
23.36,3.639920452681583
23.400000000000002,3.6451975341829304
23.44,3.6503907488818754
23.479999999999997,3.655487870044368
23.519999999999996,3.66047614671689
23.56,3.6653423673142242
23.599999999999998,3.670072928130817
23.639999999999997,3.6746539064959536
23.68,3.6790711382764907
23.72,3.6833102994177134
23.759999999999998,3.6873569912018014
23.8,3.6911968288949994
23.84,3.694815533448287
23.88,3.6981990259117916
23.92,3.7013335242205483
23.96,3.70420564200756
23.999999999999996,3.706802489099596
24.04,3.709111773351129
24.08,3.711121903471932
24.119999999999997,3.712822092503889
24.16,3.7142024616018534
24.2,3.7152541437717783
24.24,3.7159693872163886
24.28,3.716341657933825
24.32,3.7163657412078073
24.36,3.7160378416186344
24.400000000000002,3.715355681192075
24.439999999999998,3.714318595288076
24.479999999999997,3.7129276258127772
24.52,3.7111856113151567
24.56,3.709097273503941
24.599999999999998,3.7066692996910087
24.64,3.7039104206340934
24.68,3.7008314832146874
24.72,3.697445517346515
24.759999999999998,3.69376779646624
24.8,3.689815890911698
24.84,3.6856097134443715
24.88,3.6811715561232132
24.92,3.676526117686923
24.959999999999997,3.671700520553163
24.999999999999996,3.6667243164972123
25.04,3.6616294800310896
25.08,3.6564503884698123
25.119999999999997,3.651223787646039
25.16,3.6459887422212174
25.2,3.6407865695432493
25.24,3.635660756020953
25.28,3.630656855027769
25.32,3.6258223654144355
25.36,3.6212065898066905
25.4,3.616860471991909
25.439999999999998,3.6128364128617005
25.479999999999997,3.6091880645771206
25.52,3.605970102861364
25.56,3.603237977601502
25.599999999999998,3.601047642254934
25.64,3.5994552629050975
25.68,3.598516908190147
25.72,3.5982882217311967
25.76,3.5988240791051616
25.8,3.6001782318304976
25.84,3.602402941250418
25.880000000000003,3.6055486055935404
25.919999999999998,3.6096633838518013
25.959999999999997,3.614792820424783
25.999999999999996,3.6209794747232844
26.04,3.628262560089588
26.08,3.636677596464942
26.119999999999997,3.6462560812077855
26.16,3.657025182332717
26.2,3.6690074581991774
26.24,3.6822206073321087
26.28,3.696677251612629
26.32,3.712384755545838
26.36,3.7293450837113205
26.4,3.7475546978484404
26.439999999999998,3.767004494344003
26.479999999999997,3.787679782197059
26.52,3.809560300856561
26.56,3.8326202766839335
26.599999999999998,3.856828516203061
26.64,3.882148533781655
26.68,3.9085387109521386
26.72,3.9359524842360254
26.76,3.9643385580872823
26.8,3.993641139417691
26.84,4.02380019010702
26.88,4.054751693926304
26.919999999999998,4.086427934404708
26.959999999999997,4.118757780337814
27.0,4.151666975856338
27.04,4.185078432235927
27.08,4.2189125189194865
27.119999999999997,4.253087351530945
27.16,4.287519074973727
27.2,4.3221221400187915
27.24,4.356809572088656
27.28,4.391493231228926
27.32,4.42608406252329
27.36,4.460492336448086
27.4,4.494627878877052
27.439999999999998,4.528400290634573
27.479999999999997,4.561719156657021
27.52,4.5944942449574215
27.56,4.626635695700356
27.599999999999998,4.6580542007833525
27.64,4.68866117439031
27.68,4.71836891503413
27.72,4.747090759641727
27.76,4.774741230257607
27.8,4.801236173954124
27.839999999999996,4.826492896539748
27.88,4.850430290652639
27.919999999999998,4.872968958817942
27.959999999999997,4.894031332034284
28.0,4.913541784440068
28.04,4.9314267445938045
28.08,4.947614803887038
28.12,4.962036822592872
28.16,4.974626034040108
28.2,4.985318147391954
28.240000000000002,4.9940514495008435
28.28,5.000766906306854
28.32,5.005408264247854
28.359999999999996,5.007922152154885
28.4,5.008258184116941
