Time (s),Filtered Signal
0.0,0.024075462217542157
0.03337028824833703,-0.13343319345208632
0.06674057649667406,-0.220636224137734
0.10011086474501109,-0.18867396982959786
0.13348115299334812,-0.024849767112346665
0.16685144124168516,0.2450006441520709
0.20022172949002218,0.5662122613668231
0.2335920177383592,0.8727126461767237
0.26696230598669624,1.1055225600542151
0.3003325942350333,1.2264150270994323
0.3337028824833703,1.2237717177501979
0.3670731707317073,1.1109988419837862
0.40044345898004435,0.9198829582055532
0.4338137472283814,0.6915404783419057
0.4671840354767184,0.46691624139232984
0.5005543237250555,0.27821429484838733
0.5339246119733925,0.14266053858541422
0.5672949002217295,0.06013591643131339
0.6006651884700666,0.01563548438256293
0.6340354767184035,-0.01409613141629412
0.6674057649667406,-0.0522775202360893
0.7007760532150776,-0.11546221518214271
0.7341463414634146,-0.2107480704234853
0.7675166297117517,-0.33653956837959353
0.8008869179600887,-0.48453924839247464
0.8342572062084257,-0.6406264137339532
0.8676274944567628,-0.7843610968133523
0.9009977827050998,-0.8893638606593763
0.9343680709534368,-0.9275495068802017
0.9677383592017739,-0.8780983881075555
1.001108647450111,-0.7382385350671093
1.0344789356984478,-0.5300430567152689
1.067849223946785,-0.29791568305674865
1.101219512195122,-0.09558120277468495
1.134589800443459,0.03295375278797586
1.167960088691796,0.07021809075095897
1.2013303769401331,0.03206436608545448
1.23470066518847,-0.0388593094984933
1.268070953436807,-0.09013522310375933
1.3014412416851442,-0.07979274179275439
1.3348115299334813,0.008418566269432359
1.3681818181818182,0.16005057071217135
1.4015521064301553,0.33602081550516266
1.4349223946784924,0.48636148351923675
1.4682926829268292,0.5662796445521118
1.5016629711751663,0.549471681009188
1.5350332594235034,0.4354079837280401
1.5684035476718403,0.2493585505753617
1.6017738359201774,0.03558009481018368
1.6351441241685145,-0.15464594772655554
1.6685144124168514,-0.2772457969282429
1.7018847006651885,-0.3079227248287614
1.7352549889135256,-0.24885708531365108
1.7686252771618625,-0.12664426473376625
1.8019955654101996,0.018368909356641972
1.8353658536585367,0.1474298886103655
1.8687361419068735,0.23695909380693506
1.9021064301552106,0.28434105361586737
1.9354767184035477,0.3035515415857972
1.9688470066518848,0.3134037135604069
2.002217294900222,0.32502801360476263
2.035587583148559,0.3354260119548416
2.0689578713968957,0.33032731832577356
2.102328159645233,0.2941892315083878
2.13569844789357,0.2211536797141286
2.1690687361419068,0.1204401529817446
2.202439024390244,0.01310502735208957
2.235809312638581,-0.07781132127099774
2.269179600886918,-0.1380217994667614
2.302549889135255,-0.16761917037411356
2.335920177383592,-0.17872255114333332
2.369290465631929,-0.18684547433210616
2.4026607538802662,-0.20109978899009434
2.436031042128603,-0.2188087626095228
2.46940133037694,-0.2275119989064024
2.5027716186252773,-0.21323403931931637
2.536141906873614,-0.17049707761800223
2.569512195121951,-0.1086134531354258
2.6028824833702884,-0.050658014105986755
2.6362527716186253,-0.0251302811723579
2.6696230598669626,-0.05385052798664273
2.7029933481152995,-0.14145934541410707
2.7363636363636363,-0.27126873551027875
2.7697339246119737,-0.4095042325874727
2.8031042128603105,-0.5163904879364676
2.8364745011086474,-0.5596171277618255
2.8698447893569847,-0.5247621456552398
2.9032150776053216,-0.4186953139505548
2.9365853658536585,-0.26515145300593385
2.969955654101996,-0.0949968783817313
3.0033259423503327,0.06440066360593356
3.0366962305986696,0.19659635990591787
3.070066518847007,0.29819285194779066
3.1034368070953438,0.3759869824035507
3.1368070953436806,0.4411074987966299
3.170177383592018,0.5025852346685976
3.203547671840355,0.562432780134604
3.2369179600886917,0.6136454988971911
3.270288248337029,0.6418137807718246
3.303658536585366,0.6301591544190059
3.337028824833703,0.5666751230281825
3.37039911308204,0.4509269992990065
3.403769401330377,0.29757547230455683
3.437139689578714,0.13443189187590648
3.470509977827051,-0.005150506866133445
3.503880266075388,-0.09326655645652182
3.537250554323725,-0.11779578999541757
3.5706208425720622,-0.08796363289058524
3.603991130820399,-0.032679506789958276
3.637361419068736,0.008132316787435439
3.6707317073170733,-0.0035001401849706452
3.70410199556541,-0.09045419003576904
3.737472283813747,-0.251354566719
3.7708425720620844,-0.4584539149581055
3.8042128603104213,-0.6637669138599998
3.8375831485587586,-0.8124201955932349
3.8709534368070955,-0.8598008456163074
3.9043237250554323,-0.787129978792868
3.9376940133037697,-0.6095035599457247
3.9710643015521065,-0.37219766056558007
4.004434589800444,-0.13526375770685456
4.037804878048781,0.048260316691116315
4.071175166297118,0.15149782722339794
4.1045454545454545,0.18158772602960152
4.137915742793791,0.17251703618206696
4.171286031042128,0.16642431562461119
4.204656319290466,0.19255849641941233
4.238026607538803,0.2541122762911539
4.27139689578714,0.3289791220464965
4.304767184035477,0.38337833976489927
4.3381374722838135,0.39095936139957327
4.371507760532151,0.34754516895691984
4.404878048780488,0.27411906396908353
4.438248337028825,0.2066130705460587
4.471618625277162,0.17757909288423418
4.504988913525499,0.1988470118340022
4.538359201773836,0.25394286879858446
4.571729490022173,0.30447986021818485
4.60509977827051,0.30800489250657354
4.638470066518847,0.23902922863928525
4.671840354767184,0.10302592155923802
4.705210643015521,-0.06383177428565848
4.738580931263858,-0.20973738994340324
4.771951219512196,-0.2904432043926786
4.8053215077605325,-0.289679787638929
4.838691796008869,-0.22691903563603683
4.872062084257206,-0.1485314239084527
4.905432372505543,-0.10640214957833305
4.93880266075388,-0.13413007948105798
4.972172949002218,-0.23193930828692663
5.005543237250555,-0.36694252193313354
5.0389135254988915,-0.48784779213813767
5.072283813747228,-0.5465119449617258
5.105654101995565,-0.5161708079437205
5.139024390243902,-0.39869264805932386
5.17239467849224,-0.21917709521540193
5.205764966740577,-0.01243145222543175
5.239135254988914,0.1908152461967946
5.2725055432372505,0.3711192153903098
5.305875831485587,0.5186498518372031
5.339246119733925,0.6257951619672257
5.372616407982262,0.680559947508543
5.405986696230599,0.6666598472739653
5.439356984478936,0.5718818425120409
5.472727272727273,0.4005567913587363
5.5060975609756095,0.18216713718489536
5.539467849223947,-0.03128171419736808
5.572838137472284,-0.18123236930840672
5.606208425720621,-0.22652447280787935
5.639578713968958,-0.1643009508615255
5.672949002217295,-0.03646263809015301
5.706319290465632,0.0839410399522746
5.7396895787139695,0.12238462404275484
5.773059866962306,0.035893962894018354
5.806430155210643,-0.16628328032178932
5.83980044345898,-0.42511674146705897
5.873170731707317,-0.6570535796218707
5.906541019955654,-0.7901789234005051
5.939911308203992,-0.7935157167714691
5.9732815964523285,-0.6852807675707029
6.006651884700665,-0.517305845175453
6.040022172949002,-0.34569324589891726
6.073392461197339,-0.2045965013520289
6.106762749445676,-0.09681072670202512
6.140133037694014,-0.0038306728978777685
6.173503325942351,0.0937638558768711
6.2068736141906875,0.20001789830655056
6.240243902439024,0.30173796933229236
6.273614190687361,0.38106697886709506
6.306984478935698,0.4327620444647111
6.340354767184036,0.4733113598342553
6.373725055432373,0.5342267581050734
6.40709534368071,0.6420048666072657
6.4404656319290465,0.7961319864275576
6.473835920177383,0.9587589446758906
6.507206208425721,1.0638895112357307
6.540576496674058,1.0433921032384916
6.573946784922395,0.8578330730876333
6.607317073170732,0.5171930308075163
6.640687361419069,0.08139616238873751
6.674057649667406,-0.35961295015108713
6.707427937915743,-0.7170402898622803
6.74079822616408,-0.931982978165966
6.774168514412417,-0.9903170833771511
6.807538802660754,-0.9195573540823133
6.840909090909091,-0.7717822126327881
6.874279379157428,-0.6019864705122642
6.9076496674057655,-0.4513920876349926
6.941019955654102,-0.34096606397377477
6.974390243902439,-0.2744545777839258
7.007760532150776,-0.24591652416887677
7.041130820399113,-0.24601644765338304
7.07450110864745,-0.26400067932086624
7.107871396895788,-0.2862666013003434
7.1412416851441245,-0.29515271226883794
7.174611973392461,-0.27140921034801885
7.207982261640798,-0.2009755913998087
7.241352549889135,-0.08304819924064957
7.274722838137472,0.06565348965889932
7.30809312638581,0.2144841665606
7.341463414634147,0.33048681424312054
7.3748337028824835,0.39337317295382646
7.40820399113082,0.40631417080503496
7.441574279379157,0.39602414129102326
7.474944567627494,0.40056316630116373
7.508314855875832,0.44973790633796523
7.541685144124169,0.547434426358937
7.575055432372506,0.6650380236119946
7.6084257206208425,0.7501270790878692
7.641796008869179,0.7473253310386617
7.675166297117517,0.622270289970955
7.708536585365854,0.37806390352768476
7.741906873614191,0.057009523221876995
7.775277161862528,-0.2729212374126145
7.808647450110865,-0.540910741930497
7.842017738359202,-0.696017618003107
7.875388026607539,-0.7213679309001605
7.908758314855876,-0.6357021221913276
7.942128603104213,-0.4834133797813723
7.97549889135255,-0.3180317001783466
8.008869179600888,-0.1853644196766172
8.042239467849225,-0.11146470113641509
8.075609756097561,-0.09826918055976536
8.108980044345898,-0.12710951570297233
8.142350332594235,-0.16802219894262113
8.175720620842572,-0.19129283284708035
8.209090909090909,-0.17729308296991408
8.242461197339246,-0.12152304220512143
8.275831485587583,-0.03363692990771371
8.30920177383592,0.06849553244170069
8.342572062084257,0.16678665142645444
8.375942350332595,0.24940829570718365
8.409312638580932,0.3130196652940084
8.442682926829269,0.3600977686482444
8.476053215077606,0.3931686525511615
8.509423503325943,0.4094270318695932
8.54279379157428,0.3992701643666594
8.576164079822616,0.35042173006008387
8.609534368070953,0.25624154683413036
8.64290465631929,0.12395239852874007
8.676274944567627,-0.022456511560356555
8.709645232815964,-0.14796055660825347
8.743015521064303,-0.2198273202177715
8.77638580931264,-0.22283043048570175
8.809756097560976,-0.16841912409733012
8.843126385809313,-0.09195073151359513
8.87649667405765,-0.037860080545856864
8.909866962305987,-0.03923059046451434
8.943237250554324,-0.10188215585844689
8.97660753880266,-0.20142075958867084
9.009977827050998,-0.2952731863057623
9.043348115299334,-0.343911481844706
9.076718403547671,-0.3305259679074178
9.110088691796008,-0.2690696325253945
9.143458980044347,-0.19654253462118954
9.176829268292684,-0.1534669181906795
9.21019955654102,-0.16251537528960242
9.243569844789358,-0.2161297926417329
9.276940133037694,-0.2793086982837107
9.310310421286031,-0.3059886578254273
9.343680709534368,-0.26064450002017064
9.377050997782705,-0.13441563397237272
9.410421286031042,0.05166262323858714
9.443791574279379,0.2568269563712556
9.477161862527716,0.4379811602328037
9.510532150776053,0.5652970548597827
9.543902439024391,0.629212530070274
9.577272727272728,0.6375522890333719
9.610643015521065,0.6068225011013315
9.644013303769402,0.5537775047346241
9.677383592017739,0.4913826628416782
9.710753880266076,0.42917376619602104
9.744124168514412,0.3748003658391921
9.77749445676275,0.33337091430637056
9.810864745011086,0.3039235860539101
9.844235033259423,0.27570869901098227
9.87760532150776,0.22835062977150034
9.910975609756099,0.13816387546371114
9.944345898004435,-0.011013107315822158
9.977716186252772,-0.21755931349259536
10.01108647450111,-0.4581246154867563
10.044456762749446,-0.6929587542748034
10.077827050997783,-0.8788029078506773
10.11119733924612,-0.9836977300859089
10.144567627494457,-0.9970377193372881
10.177937915742794,-0.9305779270927481
10.21130820399113,-0.810551165059737
10.244678492239467,-0.6652549215237744
10.278048780487804,-0.5143039483967142
10.311419068736143,-0.3643629588148923
10.34478935698448,-0.21241625282787804
10.378159645232817,-0.05361185543176522
10.411529933481154,0.11135001025297796
10.44490022172949,0.2734240900915014
10.478270509977827,0.41809485597724044
10.511640798226164,0.5317241005191407
10.545011086474501,0.6075543602699722
10.578381374722838,0.6481881309809308
10.611751662971175,0.6635184746044062
10.645121951219512,0.6653936964852707
10.67849223946785,0.6616493563248489
10.711862527716187,0.6521431125993788
10.745232815964524,0.628355586394584
10.778603104212861,0.5766075027188514
10.811973392461198,0.48365012732187185
10.845343680709535,0.3427305339328246
10.878713968957872,0.15825526795838601
10.912084257206208,-0.0523822939220385
10.945454545454545,-0.2606597443989805
10.978824833702882,-0.43261941909439144
11.012195121951219,-0.5375612742970055
11.045565410199556,-0.5575952129023819
11.078935698447895,-0.4947749161557237
11.112305986696231,-0.37246053068566304
11.145676274944568,-0.2292388109371743
11.179046563192905,-0.1068866649504922
11.212416851441242,-0.03700823589898558
11.245787139689579,-0.03211736578116717
11.279157427937916,-0.0849521505482691
11.312527716186253,-0.17549092639966085
11.34589800443459,-0.28099425796165434
11.379268292682926,-0.38309503060843814
11.412638580931263,-0.46846692276757745
11.4460088691796,-0.5243699864962262
11.479379157427939,-0.5342274024431832
11.512749445676276,-0.4786056774229582
11.546119733924613,-0.3431682421593498
11.57949002217295,-0.1297305190291324
11.612860310421286,0.1368190429838184
11.646230598669623,0.4116533298725045
11.67960088691796,0.6435372098500243
11.712971175166297,0.792637600145762
11.746341463414634,0.8434144736462021
11.77971175166297,0.8059282638715781
11.813082039911308,0.7056265450411852
11.846452328159646,0.5683464048608775
11.879822616407983,0.4096340450783369
11.91319290465632,0.23411497527852052
11.946563192904657,0.04384013981457575
11.979933481152994,-0.15129298803779226
12.01330376940133,-0.32913064344870163
12.046674057649668,-0.4608654233529122
12.080044345898004,-0.5239774727421317
12.113414634146341,-0.5148042961280345
12.146784922394678,-0.45275969361624263
12.180155210643015,-0.3728518975866361
12.213525498891352,-0.3098325603608192
12.24689578713969,-0.28207101958862674
12.280266075388028,-0.2834351114023328
12.313636363636364,-0.28717484984819935
12.347006651884701,-0.2595957866272243
12.380376940133038,-0.17652518219586752
12.413747228381375,-0.03455003267589973
12.447117516629712,0.14797830859491676
12.480487804878049,0.33983816358425895
12.513858093126386,0.5105060554891465
12.547228381374723,0.6412004037065511
12.58059866962306,0.7280514247736637
12.613968957871396,0.7765995819774458
12.647339246119735,0.7915521404768467
12.680709534368072,0.7681435442409975
12.714079822616409,0.6904433216209245
12.747450110864746,0.5382458070441347
12.780820399113082,0.29970545711616187
12.81419068736142,-0.016243155117436518
12.847560975609756,-0.3740678491884548
12.880931263858093,-0.7163622610256924
12.91430155210643,-0.978689489091992
12.947671840354767,-1.1096179313949053
12.981042128603104,-1.0883204903540347
13.014412416851442,-0.9325540202830898
13.04778270509978,-0.6934394685005119
13.081152993348116,-0.438747157791987
13.114523281596453,-0.23101457494140865
13.14789356984479,-0.10872246135124268
13.181263858093127,-0.07717047642132477
13.214634146341464,-0.11149975139705677
13.2480044345898,-0.16948371351557798
13.281374722838137,-0.2083077034563302
13.314745011086474,-0.1987963091147435
13.348115299334811,-0.13240558290668814
13.381485587583148,-0.019719028239334416
13.414855875831487,0.11736284467056723
13.448226164079824,0.2554475818018333
13.48159645232816,0.3771696688264943
13.514966740576497,0.4739537850542273
13.548337028824834,0.5443444519142232
13.581707317073171,0.5904595785394572
13.615077605321508,0.6156038972742084
13.648447893569845,0.6244973343345867
13.681818181818182,0.6249124137466979
13.715188470066519,0.6276487471790898
13.748558758314855,0.6423204296908253
13.781929046563192,0.6694920257392483
13.815299334811531,0.6934509849029659
13.848669623059868,0.6815844750924005
13.882039911308205,0.5940796323694204
13.915410199556542,0.40204915437233285
13.948780487804878,0.10623248837111489
13.982150776053215,-0.25400061013561753
14.015521064301552,-0.608282477053755
14.048891352549889,-0.8784868419599047
14.082261640798226,-1.0081283105580645
14.115631929046563,-0.9844727604634604
14.1490022172949,-0.8428554236419862
14.182372505543238,-0.6511614499430198
14.215742793791575,-0.4818410211811264
14.249113082039912,-0.38427060171032174
14.282483370288249,-0.3692125756230562
14.315853658536586,-0.4106466307345912
14.349223946784923,-0.46207235460607626
14.38259423503326,-0.4785888920639205
14.415964523281596,-0.4349230927408235
14.449334811529933,-0.3327781849660278
14.48270509977827,-0.19621066536926984
14.516075388026607,-0.058627112577749906
14.549445676274944,0.052329581906149975
14.582815964523283,0.12577366432936696
14.61618625277162,0.17048251969153105
14.649556541019956,0.2091913009342296
14.682926829268293,0.26713375049608074
14.71629711751663,0.3598417345428924
14.749667405764967,0.4853533421261676
14.783037694013304,0.6240035822691393
14.81640798226164,0.7456522843591897
14.849778270509978,0.8209767531973993
14.883148558758315,0.8318158005500973
14.916518847006651,0.7762788864315524
14.949889135254988,0.6670196607157243
14.983259423503327,0.5242930110953318
15.016629711751664,0.36753200067178504
15.05,0.20928170022763962
15.083370288248338,0.05366416649598482
15.116740576496674,-0.10077208323726515
15.150110864745011,-0.25576446935019564
15.183481152993348,-0.4082230286472385
15.216851441241685,-0.5475040303290938
15.250221729490022,-0.6562489540747347
15.283592017738359,-0.7147310484820409
15.316962305986696,-0.707504732829962
15.350332594235034,-0.6302961216334363
15.383702882483371,-0.49469437577951836
15.417073170731708,-0.3284814709877672
15.450443458980045,-0.17046671552707873
15.483813747228382,-0.06037417299842392
15.517184035476719,-0.02627753961549867
15.550554323725056,-0.0736018385811008
15.583924611973393,-0.1800240765765302
15.61729490022173,-0.2992126911837065
15.650665188470066,-0.3734555604787083
15.684035476718403,-0.3518324554938632
15.71740576496674,-0.20809083758811692
15.750776053215079,0.048072036458598234
15.784146341463416,0.37071017602311335
15.817516629711752,0.6890873772090591
15.85088691796009,0.9276671631239064
15.884257206208426,1.0284323609948272
15.917627494456763,0.9683611271827814
15.9509977827051,0.7662388950566067
15.984368070953437,0.47633273278806443
16.017738359201775,0.17086952713457298
16.05110864745011,-0.08270678967995929
16.08447893569845,-0.24169891315063238
16.117849223946784,-0.2983890248117314
16.151219512195123,-0.2774612690241382
16.184589800443458,-0.2225791201994911
16.217960088691797,-0.17805814671539433
16.251330376940132,-0.17284670701790514
16.28470066518847,-0.21235232894282088
16.31807095343681,-0.28009910523781617
16.351441241685144,-0.34740711376419603
16.384811529933483,-0.386617872519719
16.418181818181818,-0.3825340496943927
16.451552106430157,-0.33774992111012264
16.48492239467849,-0.27003952143579024
16.51829268292683,-0.20317713109106741
16.551662971175165,-0.1553529238190128
16.585033259423504,-0.13049496562947643
16.61840354767184,-0.11661732915049224
16.651773835920178,-0.09212534356059758
16.685144124168513,-0.03720278546283755
16.71851441241685,0.05519863750455569
16.75188470066519,0.17427071702362637
16.785254988913525,0.29491202212177414
16.818625277161864,0.38840118411211094
16.8519955654102,0.43498222493840105
16.885365853658538,0.4321359090264003
16.918736141906873,0.3945384793598847
16.95210643015521,0.34601452381930187
16.985476718403547,0.30784074616814483
17.018847006651885,0.28939452808440486
17.05221729490022,0.28556790334442855
17.08558758314856,0.28153400494421843
17.118957871396898,0.2615079524813541
17.152328159645233,0.21627347490464216
17.18569844789357,0.14547791004429325
17.219068736141907,0.054276673477423536
17.252439024390245,-0.05236565153367119
17.28580931263858,-0.17293994618705344
