Time (s),Filtered Signal
0.0,-0.02830376706989823
0.03337000366703337,0.0988570527926962
0.06674000733406674,0.26404952003941806
0.1001100110011001,0.48593061782851227
0.13348001466813347,0.7515909882095311
0.16685001833516683,1.016470414341368
0.2002200220022002,1.2169398569881207
0.2335900256692336,1.2914137973533768
0.26696002933626695,1.202320537735624
0.3003300330033003,0.950565974138012
0.33370003667033366,0.5768900486712429
0.36707004033736707,0.14973360166792382
0.4004400440044004,-0.25542248985193233
0.4338100476714338,-0.5772941322552926
0.4671800513384672,-0.7832533662032619
0.5005500550055005,-0.8731583637795679
0.5339200586725339,-0.8730508018136338
0.5672900623395672,-0.8223669785087093
0.6006600660066006,-0.759407842272362
0.634030069673634,-0.7093264672204304
0.6674000733406673,-0.6777239199378006
0.7007700770077008,-0.6515004304048755
0.7341400806747341,-0.6067005751192602
0.7675100843417675,-0.5206766531052598
0.8008800880088008,-0.383759712141552
0.8342500916758342,-0.20516984274598551
0.8676200953428675,-0.010040762354071515
0.9009900990099009,0.17140282755694755
0.9343601026769344,0.31737324674001016
0.9677301063439677,0.4239456911427658
1.001100110011001,0.505470231440198
1.0344701136780343,0.5856111759305741
1.0678401173450678,0.6834484993872493
1.1012101210121013,0.8015888017317659
1.1345801246791345,0.9222259950578088
1.167950128346168,1.0131812621486493
1.2013201320132012,1.0411482773153742
1.2346901356802347,0.9859765972707695
1.268060139347268,0.8493652981733864
1.3014301430143014,0.6539687275040391
1.3348001466813346,0.43343777960593877
1.368170150348368,0.21826769817030567
1.4015401540154016,0.0244016598535503
1.4349101576824348,-0.14981426127101197
1.4682801613494683,-0.3170450598212039
1.5016501650165015,-0.488652752267842
1.535020168683535,-0.6638016624607268
1.5683901723505682,-0.8264420394723322
1.6017601760176017,-0.9521394821417418
1.6351301796846351,-1.0208668809089272
1.6685001833516684,-1.0281419538710335
1.7018701870187019,-0.9876667448942142
1.735240190685735,-0.9236007280617086
1.7686101943527686,-0.8568264981183009
1.8019801980198018,-0.7932354436716832
1.8353502016868353,-0.720903658301258
1.8687202053538687,-0.6177740395682957
1.902090209020902,-0.4653488349698586
1.9354602126879354,-0.2605823081471029
1.9688302163549687,-0.01944390425843573
2.002200220022002,0.2295019092747559
2.0355702236890356,0.45763349869039577
2.0689402273560686,0.6479418311804517
2.102310231023102,0.7996243940596789
2.1356802346901356,0.9234283927108083
2.169050238357169,1.030602958380245
2.2024202420242025,1.1217294527294435
2.2357902456912355,1.1817840036075362
2.269160249358269,1.1845594576748322
2.3025302530253025,1.1047039500032274
2.335900256692336,0.9316012799444365
2.369270260359369,0.6781746859710345
2.4026402640264024,0.38001875037162247
2.436010267693436,0.08486613270878914
2.4693802713604693,-0.16304814574831622
2.502750275027503,-0.3369000667741527
2.536120278694536,-0.4337066319144372
2.5694902823615693,-0.4712349544519768
2.6028602860286028,-0.47776297710612003
2.636230289695636,-0.4799385885179991
2.6696002933626692,-0.49403378021022487
2.7029702970297027,-0.5234184366249529
2.736340300696736,-0.5616983944073969
2.7697103043637696,-0.5985536648850986
2.803080308030803,-0.6249086213270707
2.836450311697836,-0.6354071416327476
2.8698203153648696,-0.6281112597381866
2.903190319031903,-0.602718531462037
2.9365603226989365,-0.5588655576895746
2.96993032636597,-0.4954849798762518
3.003300330033003,-0.41134155992956034
3.0366703337000365,-0.3062943996616477
3.07004033736707,-0.18262143354794994
3.1034103410341034,-0.04574314752339457
3.1367803447011364,0.09619670766646313
3.17015034836817,0.23409879086833618
3.2035203520352034,0.3605930393485834
3.236890355702237,0.47247068613797544
3.2702603593692703,0.5713425056441707
3.3036303630363033,0.6615115176368113
3.3370003667033368,0.7454527319749532
3.3703703703703702,0.8189723306612643
3.4037403740374037,0.8690095965535223
3.4371103777044367,0.8762763836633737
3.47048038137147,0.8225447780035451
3.5038503850385037,0.6995826973240138
3.537220388705537,0.5152332394990766
3.5705903923725706,0.2930843682214813
3.6039603960396036,0.06528243902631622
3.637330399706637,-0.1383686738339697
3.6707004033736705,-0.29987567209986615
3.704070407040704,-0.416718024042364
3.7374404107077375,-0.49847387238423085
3.7708104143747705,-0.5588874209405003
3.804180418041804,-0.6079891382485477
3.8375504217088374,-0.6482646472447863
3.870920425375871,-0.6760382687878145
3.904290429042904,-0.6860769943294062
3.9376604327099374,-0.6758865751391765
3.971030436376971,-0.6470013774017199
4.004400440044004,-0.6029186630284763
4.037770443711038,-0.5455188139897564
4.071140447378071,-0.4725340229746797
4.104510451045105,-0.37769032742930303
4.137880454712137,-0.25339710458513603
4.171250458379171,-0.09447674932768067
4.204620462046204,0.0988287788016028
4.237990465713238,0.31952750802552304
4.271360469380271,0.554036320597478
4.304730473047305,0.7830503550839907
4.338100476714338,0.9826951136867795
4.3714704803813715,1.1264296555938196
4.404840484048405,1.18868730449907
4.438210487715438,1.1506576022530128
4.471580491382471,1.007061064238156
4.5049504950495045,0.7712464379692353
4.538320498716538,0.47562341871163943
4.571690502383571,0.16582501791318846
4.605060506050605,-0.11046209617848006
4.638430509717638,-0.31656270636258854
4.671800513384672,-0.4370871452920521
4.705170517051705,-0.48138060107187275
4.738540520718738,-0.4785331113543764
4.771910524385771,-0.4656193227810575
4.805280528052805,-0.4736181868328949
4.838650531719838,-0.5164830180374982
4.872020535386872,-0.5875573782736977
4.905390539053905,-0.6644481360099874
4.938760542720939,-0.7198838487849821
4.972130546387972,-0.7335779889799559
5.005500550055006,-0.6998439749950144
5.038870553722038,-0.6278583179564639
5.072240557389072,-0.5350529668547399
5.105610561056105,-0.4373771537401904
5.138980564723139,-0.34147365208356517
5.172350568390172,-0.2425659696261155
5.2057205720572055,-0.1287903450050134
5.239090575724239,0.010551075481683226
5.272460579391272,0.1771823512726929
5.305830583058306,0.3604802385850508
5.3392005867253385,0.5402310189800349
5.372570590392372,0.6941697703589599
5.405940594059405,0.806601007623362
5.439310597726439,0.8738347705675867
5.472680601393472,0.9036936718863267
5.506050605060506,0.9092832299055449
5.539420608727539,0.9001617809277566
5.572790612394573,0.8754931035597086
5.606160616061606,0.8229090392397138
5.63953061972864,0.7240314028592835
5.672900623395672,0.5643018461389931
5.706270627062706,0.3426044827906876
5.739640630729739,0.07616819121039833
5.773010634396773,-0.2016869656889287
5.806380638063806,-0.4503087159618858
5.83975064173084,-0.6336676878711629
5.873120645397873,-0.7310710992372311
5.9064906490649065,-0.7429056299577071
5.93986065273194,-0.6896939462099329
5.9732306563989725,-0.6050842787647116
6.006600660066006,-0.5251767740944978
6.0399706637330395,-0.47744199261059633
6.073340667400073,-0.47247098256337683
6.106710671067106,-0.5010949415526452
6.14008067473414,-0.538085276360667
6.173450678401173,-0.5517300461169993
6.206820682068207,-0.5164086804506994
6.24019068573524,-0.4236263123154252
6.273560689402273,-0.28678914449803294
6.306930693069306,-0.13689140443835687
6.34030069673634,-0.009903382974468154
6.373670700403373,0.06939046036084794
6.407040704070407,0.09998013236399629
6.44041070773744,0.10722359953499136
6.473780711404474,0.13294968460363157
6.507150715071507,0.21625114315025265
6.540520718738541,0.37302325738670494
6.573890722405573,0.5838893012086994
6.607260726072607,0.7972504814198484
6.64063072973964,0.9476527421159321
6.6740007334066735,0.9822706249646751
6.707370737073707,0.8837022214384689
6.7407407407407405,0.6781389331797789
6.774110744407774,0.4244481164196076
6.807480748074807,0.1888987718334829
6.840850751741841,0.01749973137517907
6.8742207554088735,-0.08077758589577631
6.907590759075907,-0.13219133091782845
6.94096076274294,-0.17971969871833887
6.974330766409974,-0.25815037029250465
7.007700770077007,-0.3757668114513481
7.041070773744041,-0.5113235226680128
7.074440777411074,-0.6263915690105166
7.107810781078108,-0.6852374237862114
7.141180784745141,-0.6714433613428091
7.174550788412174,-0.5935751903695079
7.207920792079207,-0.47888814690228226
7.241290795746241,-0.36013170276256695
7.274660799413274,-0.26272815667296384
7.308030803080308,-0.19750357288427467
7.341400806747341,-0.1599580680471425
7.3747708104143745,-0.13384284442713146
7.408140814081408,-0.09629976246120131
7.4415108177484415,-0.023408773355350482
7.474880821415475,0.10345433176117319
7.5082508250825075,0.29027233549187487
7.541620828749541,0.5238005930721544
7.5749908324165744,0.7693273287340596
7.608360836083608,0.9761256155676376
7.641730839750641,1.091021527580353
7.675100843417675,1.0762265044987902
7.708470847084708,0.9243974688826176
7.741840850751742,0.6638874271845766
7.775210854418775,0.35080833356318036
7.808580858085808,0.05031352189573788
7.841950861752841,-0.1854261020313131
7.875320865419875,-0.33338422733193546
7.908690869086908,-0.4034504286924594
7.942060872753942,-0.4289392479330305
7.975430876420975,-0.44880364197750094
8.008800880088009,-0.4897598421793495
8.042170883755041,-0.5558854094047888
8.075540887422076,-0.6293920076656783
8.108910891089108,-0.6812309595107715
8.142280894756142,-0.6862050394417748
8.175650898423175,-0.635788737926201
8.20902090209021,-0.5431688919013806
8.242390905757242,-0.4383761194896586
8.275760909424275,-0.3554964034672975
8.309130913091309,-0.317370229865442
8.342500916758341,-0.3245650649020106
8.375870920425376,-0.3539277321400605
8.409240924092408,-0.3679266077335196
8.442610927759443,-0.33087452153348257
8.475980931426475,-0.2244771956414178
8.50935093509351,-0.05512405184339924
8.542720938760542,0.15065910613291056
8.576090942427575,0.3600138916308189
8.60946094609461,0.5492346663295575
8.642830949761642,0.7124497383903451
8.676200953428676,0.8588714407857617
8.709570957095709,1.0005234702271963
8.742940960762743,1.1378520329169908
8.776310964429776,1.2519396975194441
8.80968096809681,1.308427166935887
8.843050971763843,1.2717627560443123
8.876420975430875,1.12265900105155
8.90979097909791,0.86975695893878
8.943160982764942,0.5493995322165158
8.976530986431976,0.21341095380689465
9.009900990099009,-0.08936738606811503
9.043270993766043,-0.32929293583744473
9.076640997433076,-0.5029399387133452
9.11001100110011,-0.6287156648401854
9.143381004767143,-0.7342208180341839
9.176751008434175,-0.8417809742691782
9.21012101210121,-0.9584449291545308
9.243491015768242,-1.0737788547659883
9.276861019435277,-1.1649256447962328
9.31023102310231,-1.2056645081153576
9.343601026769344,-1.1755591529144553
9.376971030436376,-1.0663643555963749
9.41034103410341,-0.8845666128639768
9.443711037770443,-0.6502617952866107
9.477081041437476,-0.3931474596893453
9.51045104510451,-0.1464772268525221
9.543821048771543,0.060132228985612046
9.577191052438577,0.20785138371089235
9.61056105610561,0.2940865234824742
9.643931059772644,0.3342854695273953
9.677301063439677,0.358480162496585
9.710671067106711,0.4021706089347489
9.744041070773743,0.493254430721446
9.777411074440776,0.639073018284801
9.81078107810781,0.8190520072696755
9.844151081774843,0.9875273934464198
9.877521085441877,1.0877212040954425
9.91089108910891,1.0726694677807045
9.944261092775944,0.9248022114086318
9.977631096442977,0.6653809345109324
10.011001100110011,0.348913983248448
10.044371103777044,0.04430574782056167
10.077741107444076,-0.18946997800623872
10.11111111111111,-0.32298869105418265
10.144481114778143,-0.3634256588076478
10.177851118445178,-0.3469086291369839
10.21122112211221,-0.32037742329856655
10.244591125779245,-0.3212622604590797
10.277961129446277,-0.36354734248677356
10.311331133113312,-0.4353394188040923
10.344701136780344,-0.507662025695914
10.378071140447377,-0.5493632015003834
10.411441144114411,-0.5408833261957041
10.444811147781444,-0.4809454466394377
10.478181151448478,-0.3841147223356808
10.51155115511551,-0.27160179857141054
10.544921158782545,-0.1605391688257257
10.578291162449577,-0.05705663081732725
10.611661166116612,0.043935717144147866
10.645031169783644,0.15287271755827705
10.678401173450677,0.27704133411749654
10.711771177117711,0.4138687169649532
10.745141180784744,0.549148105523579
10.778511184451778,0.6607535068065038
10.81188118811881,0.7258067005092118
10.845251191785845,0.7279430398452351
10.878621195452878,0.6617660123163472
10.911991199119912,0.5333120064465974
10.945361202786945,0.35729032422412227
10.978731206453979,0.1530136213662904
11.012101210121012,-0.059117155337374105
11.045471213788044,-0.25968235574186216
11.078841217455079,-0.4311867843590606
11.112211221122111,-0.5589421624629448
11.145581224789145,-0.6328324521227408
11.178951228456178,-0.6499802210206805
11.212321232123212,-0.6171480486247272
11.245691235790245,-0.551054391082389
11.27906123945728,-0.47523536018687584
11.312431243124312,-0.4135815571396312
11.345801246791344,-0.3824737543141898
11.379171250458379,-0.38453445679050247
11.412541254125411,-0.4067775107474892
11.445911257792446,-0.424444779848861
11.479281261459478,-0.4096717320291917
11.512651265126513,-0.3420900062984038
11.546021268793545,-0.21728033139654576
11.57939127246058,-0.04926560050452857
11.612761276127612,0.13470370220126338
11.646131279794645,0.305426675797187
11.67950128346168,0.44416402180230796
11.712871287128712,0.5499823058474902
11.746241290795746,0.6377600964950616
11.779611294462779,0.7272145309099506
11.812981298129813,0.8283607024060557
11.846351301796846,0.9313826828515193
11.87972130546388,1.0071507391961034
11.913091309130913,1.0191316385766493
11.946461312797945,0.9411062733155751
11.97983131646498,0.7715671915189044
12.013201320132012,0.5370678552811539
12.046571323799046,0.2824309389812518
12.079941327466079,0.052473042606685956
12.113311331133113,-0.12586793124550255
12.146681334800146,-0.2524969557236069
12.18005133846718,-0.35026325834343053
12.213421342134213,-0.4504901679270805
12.246791345801245,-0.5750939937110678
12.28016134946828,-0.7237868043773262
12.313531353135312,-0.87226521962057
12.346901356802347,-0.9821131617789018
12.38027136046938,-1.0177636553531713
12.413641364136414,-0.9626636838808285
12.447011367803446,-0.8272094643893276
12.48038137147048,-0.6449143559245376
12.513751375137513,-0.4588348830229982
12.547121378804546,-0.3047904749442982
12.58049138247158,-0.19908346744432204
12.613861386138613,-0.1357137001543438
12.647231389805647,-0.09308071727141305
12.68060139347268,-0.04569563827108182
12.713971397139714,0.02518501838529222
12.747341400806746,0.12636741250394606
12.78071140447378,0.2537548541698244
12.814081408140813,0.39722113918182084
12.847451411807846,0.5457273577509743
12.88082141547488,0.6899449683309463
12.914191419141913,0.8215789708485202
12.947561422808947,0.9304443427437217
12.98093142647598,1.0015012009009983
13.014301430143014,1.0143333063491604
13.047671433810047,0.9468744516248168
13.081041437477081,0.7834572764041011
13.114411441144114,0.524784341646925
13.147781444811146,0.19526774432438593
13.18115144847818,-0.15713991392561463
13.214521452145213,-0.4710649311487111
13.247891455812248,-0.689661493066382
13.28126145947928,-0.7798022565315799
13.314631463146315,-0.7441933766390779
13.348001466813347,-0.6204971759709063
13.381371470480381,-0.46718542296710075
13.414741474147414,-0.3419093412404649
13.448111477814447,-0.2814938434645653
13.481481481481481,-0.2915663871446704
13.514851485148514,-0.3490736063841036
13.548221488815548,-0.4151690554669317
13.58159149248258,-0.45205412998568206
13.614961496149615,-0.4368036419594711
13.648331499816647,-0.36754281738010497
13.681701503483682,-0.26088237533080494
13.715071507150714,-0.14262469424736549
13.748441510817747,-0.03563405890602149
13.781811514484781,0.05060514243306169
13.815181518151814,0.12468186417545343
13.848551521818848,0.20976418290425283
13.88192152548588,0.33230788325232613
13.915291529152915,0.5068222613996476
13.948661532819948,0.7231837142139516
13.982031536486982,0.9430697778655213
14.015401540154015,1.1088494850137798
14.048771543821047,1.162772573047647
14.082141547488082,1.0691393585484288
14.115511551155114,0.8300335249122016
14.148881554822148,0.4874535001474632
14.182251558489181,0.1103768211411066
14.215621562156215,-0.2282053407795267
14.248991565823248,-0.4749632952500908
14.282361569490282,-0.6111713969923462
14.315731573157315,-0.653499840981412
14.349101576824348,-0.6414915036592335
14.382471580491382,-0.6181398564830848
14.415841584158414,-0.6123628863396654
14.449211587825449,-0.6303992744472574
14.482581591492481,-0.6583292147382556
14.515951595159516,-0.6726084428814249
14.549321598826548,-0.6523814861141166
14.582691602493583,-0.5877586095765193
14.616061606160615,-0.4815156746244882
14.649431609827648,-0.34558909111896086
14.682801613494682,-0.1959636645771096
14.716171617161715,-0.04908782485296592
14.749541620828749,0.07939197017610794
14.782911624495782,0.17511431766863206
14.816281628162816,0.2269138923660748
14.849651631829849,0.2310069410335731
14.883021635496883,0.19588898835080776
14.916391639163916,0.14461529624233957
14.94976164283095,0.11136690110159266
14.983131646497982,0.13163495645574802
15.016501650165015,0.22882512943977198
15.04987165383205,0.4026793314552006
15.083241657499082,0.6250578443344057
15.116611661166116,0.8459928792337763
15.149981664833149,1.0086263603397891
15.183351668500183,1.0676584344718454
15.216721672167216,1.0041402903989292
15.25009167583425,0.8307491642471158
15.283461679501283,0.5855804482552458
15.316831683168315,0.31727648204390857
15.35020168683535,0.06785293852637159
15.383571690502382,-0.13968814362559098
15.416941694169417,-0.3042449347036401
15.45031169783645,-0.4396662698781541
15.483681701503484,-0.5620378917918931
15.517051705170516,-0.677744701337771
15.55042170883755,-0.778257899902841
15.583791712504583,-0.8441721063544629
15.617161716171616,-0.8563139339815377
15.65053171983865,-0.8080279167748038
15.683901723505683,-0.7119343499455785
15.717271727172717,-0.5970688459665662
15.75064173083975,-0.4971195288750389
15.784011734506784,-0.43509579200072107
15.817381738173816,-0.4118957893466749
15.85075174184085,-0.4047794413509162
15.884121745507883,-0.3772485208151421
15.917491749174916,-0.29626244772460303
15.95086175284195,-0.14871994552832857
15.984231756508983,0.05110198223100333
16.017601760176017,0.26738547572519056
16.05097176384305,0.45943006718112966
16.084341767510082,0.6007701542004412
16.117711771177117,0.6906341446941282
16.15108177484415,0.751349522967519
16.184451778511182,0.8127794823737912
16.217821782178216,0.892106131605569
16.25119178584525,0.9801450039003661
16.284561789512285,1.0420932478468898
16.317931793179316,1.0328736467815864
16.35130179684635,0.9193406507135369
16.384671800513384,0.6979680743289877
16.41804180418042,0.399144977864504
16.45141180784745,0.07623789361929047
16.484781811514484,-0.2148650716790195
16.51815181518152,-0.4358367168626415
16.55152181884855,-0.5766664740831599
16.584891822515583,-0.6532094864221565
16.618261826182618,-0.6940965115792679
16.651631829849652,-0.724337101746015
16.685001833516683,-0.7539321119149968
16.718371837183717,-0.7766462459160839
16.75174184085075,-0.7783784138693077
16.785111844517782,-0.7493245511534673
16.818481848184817,-0.692309849342598
16.85185185185185,-0.6223660139780788
16.885221855518886,-0.5581882114215623
16.918591859185916,-0.5110384089677922
16.95196186285295,-0.4779131419502218
16.985331866519985,-0.4427719376071646
17.01870187018702,-0.3845140241316594
17.05207187385405,-0.2865766691456119
17.085441877521085,-0.14278179228732432
17.11881188118812,0.04285694144871669
17.15218188485515,0.26058953782889416
17.185551888522184,0.49953462756176326
17.21892189218922,0.7489833840789268
17.252291895856253,0.9958284443515432
17.285661899523284,1.220581374732512
17.319031903190318,1.3957476350975748
17.352401906857352,1.489237165656511
17.385771910524387,1.4727359902723252
17.419141914191417,1.3320875431029264
