Time (s),Filtered Signal
0.0,0.012445174556593977
0.033370165745856356,0.007484025117837102
0.06674033149171271,0.002065637555576203
0.10011049723756907,-0.0019170369047484185
0.13348066298342542,0.0020341532018217276
0.16685082872928178,0.02446755632396868
0.20022099447513814,0.0766984087374892
0.2335911602209945,0.16556578463935415
0.26696132596685085,0.2882601108904633
0.30033149171270723,0.42991572120318977
0.33370165745856356,0.5660384390347712
0.3670718232044199,0.6698027060014518
0.4004419889502763,0.7216100340469818
0.43381215469613266,0.7165205843272711
0.467182320441989,0.665544072153701
0.5005524861878453,0.5895158451692494
0.5339226519337017,0.5081904949741546
0.5672928176795581,0.43016522722964706
0.6006629834254145,0.34941840087211445
0.6340331491712707,0.2510748152989611
0.6674033149171271,0.12382394475652325
0.7007734806629835,-0.02801351791196028
0.7341436464088398,-0.18064255132928306
0.7675138121546962,-0.29921860408172013
0.8008839779005525,-0.3556448530691694
0.8342541436464089,-0.34657534751406244
0.8676243093922653,-0.3007905365256723
0.9009944751381216,-0.26967485437650107
0.934364640883978,-0.30335449536457204
0.9677348066298344,-0.4234640843933304
1.0011049723756906,-0.6067168208995756
1.0344751381215471,-0.7893333866089671
1.0678453038674034,-0.8927036538744717
1.1012154696132597,-0.8600647607210038
1.1345856353591162,-0.6875925737374889
1.1679558011049724,-0.43430953926427807
1.201325966850829,-0.20358940105638976
1.2346961325966852,-0.10157299959671759
1.2680662983425415,-0.1891842392256693
1.301436464088398,-0.44920733920330846
1.3348066298342542,-0.7849574452757411
1.3681767955801105,-1.0537009358368814
1.401546961325967,-1.1219334497912232
1.4349171270718233,-0.9187805130151294
1.4682872928176796,-0.4640109996027606
1.501657458563536,0.1411940707265305
1.5350276243093923,0.7552195373374906
1.5683977900552488,1.2490533983445218
1.601767955801105,1.54780755491061
1.6351381215469614,1.644967606121628
1.6685082872928179,1.5881448691421471
1.7018784530386741,1.4480656459403611
1.7352486187845306,1.2874448358969461
1.768618784530387,1.142218937164452
1.8019889502762432,1.0186367794394142
1.8353591160220997,0.9019496051737765
1.868729281767956,0.7695324152995688
1.9020994475138122,0.6027462835261931
1.9354696132596687,0.3947482544093177
1.968839779005525,0.1533138627325372
2.0022099447513813,-0.1016184643877096
2.0355801104972375,-0.3451443654081205
2.0689502762430942,-0.556911002972947
2.1023204419889505,-0.7285315034107249
2.135690607734807,-0.8643588930564142
2.169060773480663,-0.9739753491528697
2.2024309392265193,-1.0596146780238076
2.235801104972376,-1.105851750711232
2.2691712707182323,-1.07950993687313
2.3025414364640886,-0.943648819835523
2.335911602209945,-0.6818866912587794
2.369281767955801,-0.3216634602832976
2.402651933701658,0.05815157575439164
2.436022099447514,0.3454608599286294
2.4693922651933704,0.43739440708141597
2.5027624309392267,0.2912125339195604
2.536132596685083,-0.04147478551994854
2.5695027624309392,-0.4200397110198757
2.602872928176796,-0.6669607881211135
2.636243093922652,-0.6503982957951855
2.6696132596685085,-0.36061035029737465
2.7029834254143648,0.06134952848782486
2.736353591160221,0.3677963149204109
2.7697237569060777,0.3133521637199334
2.803093922651934,-0.2147764412200124
2.8364640883977903,-1.1075021817470738
2.8698342541436466,-2.0374193936497353
2.903204419889503,-2.5683110469283164
2.936574585635359,-2.3329125643636464
2.969944751381216,-1.203391487078734
3.003314917127072,0.6249977093431881
3.0366850828729284,2.6815720339388505
3.0700552486187846,4.3845242449576975
3.103425414364641,5.252723185743677
3.1367955801104976,5.073906395378018
3.170165745856354,3.9602282679723375
3.20353591160221,2.276459839728006
3.2369060773480665,0.4841084634348098
3.2702762430939227,-1.0230217112780742
3.3036464088397794,-2.023671936641985
3.3370165745856357,-2.4849844252239555
3.370386740331492,-2.5061955490603904
3.4037569060773483,-2.235809786233958
3.4371270718232045,-1.8075258278827058
3.4704972375690613,-1.316674063198638
3.5038674033149175,-0.8299870707089024
3.537237569060774,-0.404532950963329
3.57060773480663,-0.09378890583439975
3.6039779005524863,0.06516810762974727
3.6373480662983426,0.0720978172383914
3.6707182320441993,-0.02676763818150622
3.7040883977900556,-0.15171691560455874
3.737458563535912,-0.22196410473113798
3.770828729281768,-0.1909799480640261
3.8041988950276244,-0.06530175048635391
3.837569060773481,0.10354003725793805
3.8709392265193374,0.24897104586480837
3.9043093922651937,0.32402146141330274
3.93767955801105,0.3218010074052453
3.9710497237569062,0.2722804099855821
4.0044198895027625,0.21996427932443
4.037790055248619,0.19707909040428134
4.071160220994475,0.20740469459898406
4.104530386740332,0.22788635720068667
4.1379005524861885,0.22461621418748542
4.171270718232044,0.17293766505929697
4.204640883977901,0.07110592899665316
4.238011049723757,-0.05820877229285609
4.271381215469614,-0.177814780781119
4.30475138121547,-0.2517294000211679
4.338121546961326,-0.2596731032840756
4.371491712707183,-0.20482248079458285
4.404861878453039,-0.11258851627529659
4.438232044198895,-0.02150516858031315
4.471602209944752,0.030460935082732274
4.504972375690608,0.01997582221122075
4.538342541436465,-0.05138891094855434
4.5717127071823205,-0.15423917370561227
4.605082872928177,-0.23803562281810217
4.638453038674034,-0.24712551266011373
4.67182320441989,-0.14233002642256493
4.7051933701657465,0.07920285775296133
4.738563535911602,0.37461708677269645
4.771933701657459,0.6628753931257867
4.805303867403316,0.8494603116643964
4.8386740331491715,0.8606012808224932
4.872044198895028,0.6735058890578012
4.905414364640884,0.32885681062326494
4.938784530386741,-0.08150844337688795
4.972154696132597,-0.44777255840195074
5.005524861878453,-0.6821742676261934
5.03889502762431,-0.7483906904507389
5.072265193370166,-0.6679835592425796
5.105635359116023,-0.5029498711416971
5.1390055248618784,-0.32465626260024816
5.172375690607735,-0.18459566900064647
5.205745856353592,-0.09927495240271603
5.239116022099448,-0.05281662978223962
5.272486187845304,-0.012081586488442748
5.30585635359116,0.055022160509688674
5.339226519337017,0.16582710613189114
5.372596685082874,0.3169109186932419
5.4059668508287295,0.4849603392559697
5.439337016574586,0.6324702736044593
5.472707182320442,0.7171688931515925
5.506077348066299,0.7046248937268529
5.5394475138121555,0.5820086816329871
5.572817679558011,0.3681953375359782
5.606187845303868,0.11407912417354622
5.639558011049724,-0.11045650475647233
5.672928176795581,-0.24030072091530083
5.706298342541437,-0.2405935280674439
5.739668508287293,-0.12251567241352418
5.77303867403315,0.05833696989219063
5.806408839779006,0.22074371257989422
5.839779005524862,0.2857955320290457
5.873149171270718,0.2026551736330253
5.906519337016575,-0.036773633344409785
5.939889502762432,-0.3973290004037497
5.9732596685082875,-0.8117809757696671
6.006629834254144,-1.1986556285960475
6.04,-1.481765487732199
6.073370165745857,-1.6075995938384464
6.1067403314917135,-1.557235910722532
6.140110497237569,-1.3495521383626756
6.173480662983426,-1.0336648752950868
6.206850828729282,-0.6717343133896335
6.240220994475139,-0.31769165853410153
6.273591160220995,-0.0005082953214877217
6.306961325966851,0.28025164195726626
6.340331491712708,0.5441922489721268
6.373701657458564,0.8101941254341786
6.40707182320442,1.077346479937702
6.440441988950277,1.3172768342070518
6.473812154696133,1.4827590820947192
6.50718232044199,1.5288916317215577
6.5405524861878455,1.4362966773407877
6.573922651933702,1.22445200750112
6.607292817679559,0.9481493810903914
6.640662983425415,0.6784762695042491
6.674033149171271,0.4771097033395512
6.707403314917127,0.3753433950882189
6.740773480662984,0.3661970197663029
6.774143646408841,0.41130971296909474
6.8075138121546965,0.45783273670192554
6.840883977900553,0.45734021127574676
6.874254143646409,0.3797705218865317
6.907624309392266,0.219104339012413
6.9409944751381225,-0.008703170109258697
6.974364640883978,-0.272959382716193
7.007734806629835,-0.5378801066484653
7.041104972375691,-0.7723668244161983
7.074475138121548,-0.9576901399501497
7.107845303867403,-1.0906501215163982
7.14121546961326,-1.180522518486045
7.174585635359117,-1.2405174764073128
7.207955801104973,-1.277601343833177
7.241325966850829,-1.2860927316993966
7.274696132596685,-1.2488003743335057
7.308066298342542,-1.1452929511170034
7.341436464088399,-0.9628946819734508
7.3748066298342545,-0.7048277166814073
7.408176795580111,-0.39207043978592204
7.441546961325967,-0.059120160790542164
7.474917127071824,0.2535833637100718
7.5082872928176805,0.5075730417190143
7.541657458563536,0.673072979895798
7.575027624309393,0.7344864510860374
7.608397790055249,0.6948044786204797
7.641767955801106,0.5778747088827744
7.675138121546962,0.42610210729217923
7.708508287292818,0.29135445873325216
7.741878453038675,0.21951467756633247
7.775248618784531,0.2333260663371009
7.808618784530387,0.32132666406785587
7.841988950276244,0.4400590091906088
7.8753591160221,0.5315346472728977
7.908729281767957,0.5501420048034018
7.9420994475138125,0.48686343804923127
7.975469613259669,0.37773945645367285
8.008839779005525,0.2895126336138801
8.042209944751383,0.28625275031158826
8.075580110497238,0.39147364230926046
8.108950276243094,0.5650325649323293
8.14232044198895,0.7094590809001227
8.175690607734808,0.7073418098084274
8.209060773480664,0.4757265751457775
8.24243093922652,0.01305373111437831
8.275801104972377,-0.5849863737577866
8.309171270718233,-1.151512666433471
8.342541436464089,-1.5080921800045606
8.375911602209946,-1.5333548351650785
8.409281767955802,-1.2109109406251204
8.442651933701658,-0.6358679621522375
8.476022099447514,0.022099835569618063
8.509392265193371,0.5821589267696143
8.542762430939227,0.9150570375019407
8.576132596685083,0.9808076403790101
8.60950276243094,0.8297962954139586
8.642872928176796,0.5714257499348727
8.676243093922652,0.32566503523896145
8.709613259668508,0.17643646703412896
8.742983425414366,0.14266749928101638
8.776353591160222,0.17594968197306846
8.809723756906077,0.1853030342601376
8.843093922651935,0.08065645894608262
8.87646408839779,-0.18111991504579023
8.909834254143647,-0.5673006442159242
8.943204419889504,-0.9728979069223471
8.97657458563536,-1.259348824565716
9.009944751381216,-1.3139749864033086
9.043314917127072,-1.1033901157702168
9.07668508287293,-0.6939444509901815
9.110055248618785,-0.22666477714927874
9.143425414364641,0.14336881959339073
9.176795580110499,0.3145768085940289
9.210165745856354,0.2804768573116491
9.24353591160221,0.12544983847742378
9.276906077348068,-0.02184706616057215
9.310276243093924,-0.052945374745706694
9.34364640883978,0.07016060485517046
9.377016574585635,0.3019365423108628
9.410386740331493,0.5405680014021729
9.443756906077349,0.6790877151934195
9.477127071823205,0.6543907211249761
9.510497237569062,0.47228605752331737
9.543867403314918,0.20061183666687105
9.577237569060774,-0.062211746421700055
9.610607734806631,-0.22663366981065386
9.643977900552487,-0.2428920915146802
9.677348066298343,-0.11384251398944092
9.710718232044199,0.11103186250548333
9.744088397790057,0.3548701010234645
9.777458563535912,0.5382044253924494
9.810828729281768,0.6023071360563742
9.844198895027626,0.5259081367829974
9.877569060773482,0.3315784859869622
9.910939226519337,0.07958661710622453
9.944309392265193,-0.15047677971331494
9.97767955801105,-0.28617619295353447
10.011049723756907,-0.288645529825218
10.044419889502763,-0.1688731988904449
10.07779005524862,0.013934543123452981
10.111160220994476,0.17321296557783233
10.144530386740332,0.22821222420720735
10.17790055248619,0.13654726488861185
10.211270718232045,-0.08748839323078228
10.244640883977901,-0.3770661191665547
10.278011049723757,-0.6383193688715806
10.311381215469615,-0.7868424149696284
10.34475138121547,-0.77982124380407
10.378121546961326,-0.6301398457867822
10.411491712707184,-0.39681316037250697
10.44486187845304,-0.1568951884046527
10.478232044198895,0.027586109606728276
10.511602209944753,0.13238760484747522
10.544972375690609,0.1740922837274909
10.578342541436465,0.19430536329111509
10.61171270718232,0.23497130984607373
10.645082872928178,0.3178865178486277
10.678453038674034,0.4374243341401571
10.71182320441989,0.5672598603403216
10.745193370165747,0.6746051779022584
10.778563535911603,0.7331128249213519
10.811933701657459,0.7286808873979935
10.845303867403315,0.658043396444305
10.878674033149172,0.5243046604924816
10.912044198895028,0.3341173170100189
10.945414364640884,0.09848983731689091
10.978784530386742,-0.16429826472882994
11.012154696132598,-0.42707007055124835
11.045524861878453,-0.6562062076325154
11.078895027624311,-0.8187104447154107
11.112265193370167,-0.8919512576431824
11.145635359116023,-0.8725561370373615
11.179005524861878,-0.7806464235880444
11.212375690607736,-0.6566640738750082
11.245745856353592,-0.5503322706741184
11.279116022099448,-0.5043367235384272
11.312486187845305,-0.5380766319237882
11.345856353591161,-0.6379099516023956
11.379226519337017,-0.758664571384568
11.412596685082875,-0.8369766442756297
11.44596685082873,-0.8119404632987545
11.479337016574586,-0.6451452451502326
11.512707182320442,-0.3323812129914626
11.5460773480663,0.09681087954613057
11.579447513812156,0.5899985541387512
11.612817679558011,1.0870523493153492
11.646187845303869,1.5326895836822714
11.679558011049725,1.8821195972443878
11.71292817679558,2.10024627716574
11.746298342541436,2.158850984601936
11.779668508287294,2.0370925210643773
11.81303867403315,1.727907781565902
11.846408839779006,1.2481063315708167
11.879779005524863,0.6461530601706912
11.91314917127072,0.0013294280909926276
11.946519337016575,-0.5885424563700887
11.979889502762433,-1.0283644953214985
12.013259668508288,-1.249421268180823
12.046629834254144,-1.2277323220142737
12.08,-0.991407491280092
12.113370165745858,-0.6150541429840186
12.146740331491714,-0.202976815199177
12.18011049723757,0.13463859508188922
12.213480662983427,0.30734804025256635
12.246850828729283,0.26656082010006316
12.280220994475139,0.01907741526967795
12.313591160220996,-0.3722764096795
12.346961325966852,-0.8032799058008228
12.380331491712708,-1.1567169497180392
12.413701657458564,-1.3378029694965679
12.447071823204421,-1.3053118452052899
12.480441988950277,-1.0860159329380945
12.513812154696133,-0.7645247832479841
12.54718232044199,-0.4500691837126247
12.580552486187846,-0.23254191843972297
12.613922651933702,-0.14663396901138046
12.64729281767956,-0.16076262055589555
12.680662983425416,-0.19645993611246038
12.714033149171271,-0.16899136469612613
12.747403314917127,-0.029130511278510508
12.780773480662985,0.21451493439976993
12.81414364640884,0.5028089009377841
12.847513812154697,0.757481370724381
12.880883977900554,0.9188067819258191
12.91425414364641,0.9697015587730714
12.947624309392266,0.9352662112878933
12.980994475138122,0.8610868918224088
13.01436464088398,0.7849207459431903
13.047734806629835,0.7185079526776849
13.081104972375691,0.6486033330584772
13.114475138121549,0.5539872765962643
13.147845303867404,0.4257452316428748
13.18121546961326,0.27702235269960923
13.214585635359118,0.13606979395521465
13.247955801104974,0.027696390892406487
13.28132596685083,-0.04398415323676788
13.314696132596685,-0.09929937406444746
13.348066298342543,-0.16974402465753022
13.381436464088399,-0.2753447126601105
13.414806629834255,-0.40683645641405886
13.448176795580112,-0.5245177079273226
13.481546961325968,-0.575944289167012
13.514917127071824,-0.5234895077149104
13.548287292817681,-0.3668771774275663
13.581657458563537,-0.14834638387368793
13.615027624309393,0.06265958952752525
13.648397790055249,0.19787353118300793
13.681767955801106,0.21811024233126775
13.715138121546962,0.1281644958170182
13.748508287292818,-0.026971238074916474
13.781878453038676,-0.1816230367739087
13.815248618784532,-0.2755942834823458
13.848618784530387,-0.27634474225007133
13.881988950276245,-0.18923509978782943
13.9153591160221,-0.05291311125272622
13.948729281767957,0.07757062621231493
13.982099447513813,0.15286731517931929
14.01546961325967,0.14767312512509465
14.048839779005526,0.06807934562343941
14.082209944751382,-0.054225167128800066
14.11558011049724,-0.17711905269273814
14.148950276243095,-0.2652241511885305
14.182320441988951,-0.3020891811981039
14.215690607734807,-0.2936205461972219
14.249060773480664,-0.2628137307387943
14.28243093922652,-0.2386170894409007
14.315801104972376,-0.24321408960254653
14.349171270718234,-0.28234866653289276
14.38254143646409,-0.342415355793781
14.415911602209945,-0.39562791607221803
14.449281767955803,-0.41113960631453134
14.482651933701659,-0.3671003859481971
14.516022099447515,-0.2581636997203239
14.54939226519337,-0.09552850011137796
14.582762430939228,0.09920092744313529
14.616132596685084,0.3019365591140081
14.64950276243094,0.4914364929532003
14.682872928176797,0.6506647280575928
14.716243093922653,0.7663406960932735
14.749613259668509,0.8300168791818964
14.782983425414367,0.8417745107911956
14.816353591160222,0.8137589685034595
14.849723756906078,0.7687233855023732
14.883093922651934,0.7308622352848193
14.916464088397792,0.7116882356482475
14.949834254143648,0.6988174431481196
14.983204419889503,0.656166009066969
15.016574585635361,0.5387762637336173
15.049944751381217,0.3168878992957734
15.083314917127073,-0.0027833424642831513
15.116685082872928,-0.3707797754227752
15.150055248618786,-0.7088904543013584
15.183425414364642,-0.9392351039316214
15.216795580110498,-1.0152972455032587
15.250165745856355,-0.940519919220156
15.283535911602211,-0.7660006858696176
15.316906077348067,-0.5685858343644958
15.350276243093925,-0.41939643441944113
15.38364640883978,-0.3566341581195395
15.417016574585636,-0.37404127831034445
15.450386740331492,-0.4290112388305403
15.48375690607735,-0.46547183639367945
15.517127071823205,-0.4403294733409306
15.550497237569061,-0.34137553675760646
15.583867403314919,-0.18940753953353895
15.617237569060775,-0.025297957593329326
15.65060773480663,0.11030723782288487
15.683977900552488,0.19443089068004749
15.717348066298344,0.2287316836257915
15.7507182320442,0.23418939667341926
15.784088397790056,0.23751160219383072
15.817458563535913,0.2565129222285314
15.85082872928177,0.2914829630347931
15.884198895027625,0.32641906101946755
15.917569060773483,0.3393580417229944
15.950939226519338,0.3166155030486657
15.984309392265194,0.2633194064714234
16.01767955801105,0.20366615920642073
16.051049723756908,0.1691288017600776
16.084419889502765,0.17968720371537658
16.11779005524862,0.22840749518046355
16.151160220994477,0.2796028198712039
16.18453038674033,0.2841446154548085
16.21790055248619,0.2052816141156302
16.251270718232046,0.04070495731825612
16.2846408839779,-0.1729136310331602
16.318011049723758,-0.3772321003423449
16.351381215469615,-0.5224080935144234
16.38475138121547,-0.5922706299974145
16.418121546961327,-0.6084167408852271
16.451491712707185,-0.6093961830548739
16.48486187845304,-0.6168969414566412
16.518232044198896,-0.6104140080639185
16.551602209944754,-0.5287921175419175
16.584972375690608,-0.30218801206407153
16.618342541436466,0.10050570499562024
16.651712707182323,0.6351266007316627
16.685082872928177,1.179986172054972
16.718453038674035,1.5745879453154028
16.751823204419892,1.6841467490987136
16.785193370165747,1.4596797547350904
16.818563535911604,0.9639004333586229
16.851933701657458,0.3493572359774108
16.885303867403316,-0.20136618108068885
16.918674033149173,-0.545512384640476
16.952044198895027,-0.6286635675920395
16.985414364640885,-0.49250814439912166
17.018784530386743,-0.24289074486417792
17.052154696132597,0.002768649954110346
17.085524861878454,0.16248104215410483
17.118895027624312,0.2110460125002674
17.152265193370166,0.17070882680261826
17.185635359116024,0.08172509487956321
17.21900552486188,-0.02810643449016508
17.252375690607735,-0.15821975411537545
17.285745856353593,-0.328454883110798
17.31911602209945,-0.557353714376313
17.352486187845304,-0.8398121963666727
17.385856353591162,-1.1374159404118989
