Frequency (Hz),Amplitude
0.0,1.0341508089623728
0.019801980198019802,1.0353441150228246
0.039603960396039604,1.038911137546239
0.0594059405940594,1.0448136472826197
0.07920792079207921,1.0529894150090187
0.09900990099009901,1.0633543085125137
0.1188118811881188,1.0758049843395894
0.13861386138613863,1.0902219734578884
0.15841584158415842,1.10647295335168
0.1782178217821782,1.1244160151392393
0.19801980198019803,1.143902766818208
0.21782178217821782,1.1647811551347231
0.2376237623762376,1.1868979317059098
0.25742574257425743,1.21010072841564
0.27722772277227725,1.2342397393780784
0.297029702970297,1.2591690305499639
0.31683168316831684,1.284747513538501
0.33663366336633666,1.310839628429641
0.3564356435643564,1.337315783128615
0.37623762376237624,1.3640525953970124
0.39603960396039606,1.3909329799446395
0.4158415841584158,1.4178461177597452
0.43564356435643564,1.4446873391942896
0.45544554455445546,1.4713579467403115
0.4752475247524752,1.4977649982873695
0.495049504950495,1.5238210671213457
0.5148514851485149,1.5494439910730282
0.5346534653465347,1.5745566200407857
0.5544554455445545,1.5990865685398734
0.5742574257425742,1.6229659778966514
0.594059405940594,1.6461312911275636
0.613861386138614,1.6685230423408932
0.6336633663366337,1.6900856616028663
0.6534653465346534,1.710767295554907
0.6732673267326733,1.730519643604606
0.6930693069306931,1.7492978091947795
0.7128712871287128,1.7670601654480502
0.7326732673267327,1.7837682343616048
0.7524752475247525,1.7993865786650867
0.7722772277227723,1.8138827054384354
0.7920792079207921,1.8272269806018637
0.8118811881188118,1.8393925534280584
0.8316831683168316,1.8503552902793936
0.8514851485148516,1.8600937168353895
0.8712871287128713,1.868588968143622
0.891089108910891,1.8758247458985993
0.9108910891089109,1.8817872824252826
0.9306930693069307,1.886465310916215
0.9504950495049505,1.8898500415426704
0.9702970297029703,1.891935143130751
0.99009900990099,1.89271673016225
1.00990099009901,1.8921933549282162
1.0297029702970297,1.8903660047304232
1.0495049504950495,1.887238104092167
1.0693069306930694,1.8828155220063787
1.0891089108910892,1.8771065843152175
1.108910891089109,1.8701220913826295
1.1287128712871286,1.8618753412889768
1.1485148514851484,1.8523821588455283
1.1683168316831685,1.8416609307973486
1.188118811881188,1.829732647653641
1.2079207920792079,1.8166209526573611
1.227722772277228,1.8023521984775552
1.2475247524752475,1.786955512279819
1.2673267326732673,1.7704628698982656
1.2871287128712872,1.7529091798962633
1.3069306930693068,1.7343323783571913
1.3267326732673268,1.7147735352871916
1.3465346534653466,1.6942769735309327
1.3663366336633662,1.672890401090827
1.3861386138613863,1.650665057686629
1.405940594059406,1.6276558762795046
1.4257425742574257,1.603921660093313
1.4455445544554455,1.5795252753664302
1.4653465346534653,1.5545338596290241
1.4851485148514851,1.5290190446793408
1.504950495049505,1.503057192578318
1.5247524752475248,1.4767296418335703
1.5445544554455446,1.450122959431106
1.5643564356435644,1.423329192418372
1.5841584158415842,1.3964461102637975
1.6039603960396038,1.3695774261393217
1.6237623762376237,1.3428329815344433
1.6435643564356437,1.316328874193914
1.6633663366336633,1.2901875043242454
1.683168316831683,1.2645375084961776
1.7029702970297032,1.2395135449985397
1.7227722772277227,1.2152558891106076
1.7425742574257426,1.1919097926626236
1.7623762376237624,1.1696245604631235
1.782178217821782,1.1485522980996594
1.801980198019802,1.1288462928781566
1.8217821782178218,1.1106590038603452
1.8415841584158414,1.0941396593176582
1.8613861386138615,1.0794314908026417
1.881188118811881,1.0666686713597697
1.900990099009901,1.0559730681351571
1.920792079207921,1.0474509616570822
1.9405940594059405,1.0411899184463445
1.9603960396039604,1.0372560227914813
1.98019801980198,1.0356916709182205
2.0,1.0365141028100633
2.01980198019802,1.0397147945794554
2.0396039603960396,1.045259763629138
2.0594059405940595,1.0530907601301394
2.0792079207920793,1.0631272437391408
2.099009900990099,1.0752689851625794
2.118811881188119,1.0893990957816053
2.1386138613861387,1.1053872777554776
2.1584158415841586,1.1230930996072905
2.1782178217821784,1.1423691324690601
2.1980198019801978,1.163063822461978
2.217821782178218,1.1850240178350115
2.237623762376238,1.2080971096871527
2.257425742574257,1.2321327786333571
2.2772277227722775,1.256984364961754
2.297029702970297,1.2825098966141797
2.3168316831683167,1.3085728187068197
2.336633663366337,1.3350424718172407
2.3564356435643563,1.3617943655396025
2.376237623762376,1.388710290342719
2.3960396039603964,1.415678305773691
2.4158415841584158,1.4425926374395546
2.4356435643564356,1.4693535095916692
2.455445544554456,1.4958669349150617
2.4752475247524752,1.522044478494385
2.495049504950495,1.5478030089681938
2.514851485148515,1.573064446593791
2.5346534653465347,1.5977555152778289
2.5544554455445545,1.6218075035097719
2.5742574257425743,1.6451560374861143
2.594059405940594,1.6677408684531085
2.6138613861386135,1.6895056753515953
2.633663366336634,1.7103978831554818
2.6534653465346536,1.7303684968010764
2.673267326732673,1.7493719502636254
2.6930693069306932,1.767365970112832
2.712871287128713,1.7843114527430302
2.7326732673267324,1.8001723544023491
2.7524752475247527,1.8149155931215066
2.7722772277227725,1.8285109616533193
2.792079207920792,1.8409310505680927
2.811881188118812,1.852151180700388
2.8316831683168315,1.8621493442031252
2.8514851485148514,1.8709061535323948
2.8712871287128716,1.8784047977565175
2.891089108910891,1.884631005655318
2.910891089108911,1.889573015147222
2.9306930693069306,1.893221548653813
2.9504950495049505,1.8955697940815404
2.9702970297029703,1.8966133911698284
2.99009900990099,1.8963504230226882
3.00990099009901,1.8947814127083322
3.0297029702970297,1.891909324877715
3.0495049504950495,1.8877395724191581
3.0693069306930694,1.8822800282326904
3.089108910891089,1.8755410422743475
3.108910891089109,1.8675354640883386
3.128712871287129,1.858278671113677
3.148514851485148,1.8477886031213668
3.1683168316831685,1.8360858032094065
3.1881188118811883,1.8231934658543647
3.2079207920792077,1.8091374925903836
3.227722772277228,1.7939465559574321
3.2475247524752473,1.7776521724294874
3.267326732673267,1.760288785096728
3.2871287128712874,1.7418938569315234
3.3069306930693068,1.7225079755096493
3.3267326732673266,1.7021749700805204
3.346534653465347,1.68094204187339
3.366336633663366,1.6588599084790863
3.386138613861386,1.6359829630431781
3.4059405940594063,1.6123694488265872
3.4257425742574257,1.5880816494075478
3.4455445544554455,1.5631860943824099
3.4653465346534653,1.5377537798311394
3.485148514851485,1.5118604019978
3.504950495049505,1.485586601537271
3.5247524752475248,1.4590182142289934
3.5445544554455446,1.4322465221802134
3.564356435643564,1.4053684971546643
3.5841584158415842,1.3784870246906402
3.603960396039604,1.351711094053881
3.6237623762376234,1.3251559347789112
3.6435643564356437,1.298943075624986
3.6633663366336635,1.273200296348227
3.683168316831683,1.248061437059968
3.702970297029703,1.223666024599222
3.722772277227723,1.2001586710527223
3.7425742574257423,1.17768819736866
3.762376237623762,1.156406436286124
3.7821782178217824,1.1364666751184622
3.801980198019802,1.1180217118902092
3.8217821782178216,1.1012215192341492
3.841584158415842,1.0862105398279789
3.8613861386138613,1.0731246741684768
3.881188118811881,1.062088063474938
3.9009900990099013,1.053209812717217
3.9207920792079207,1.0465808345764473
3.9405940594059405,1.0422710170752134
3.96039603960396,1.0403269188722661
3.98019801980198,1.04077017265555
4.0,1.0435967288509163
4.01980198019802,1.0487770041954736
4.03960396039604,1.056256922178314
4.0594059405940595,1.0659597568261971
4.079207920792079,1.0777886292258287
4.099009900990099,1.091629465811163
4.118811881188119,1.107354212331285
4.138613861386139,1.1248241061415873
4.158415841584159,1.143892836791709
4.178217821782178,1.1644094635934439
4.198019801980198,1.18622100160004
4.217821782178218,1.20917462816028
4.237623762376238,1.2331194968606993
4.257425742574258,1.257908172228218
4.2772277227722775,1.2833977167211295
4.297029702970297,1.3094504721256914
4.316831683168317,1.3359345819449007
4.336633663366336,1.3627243013376078
4.356435643564357,1.3897001381566343
4.376237623762377,1.416748863904356
4.3960396039603955,1.4437634279289597
4.415841584158416,1.470642802589563
4.435643564356436,1.4972917818450937
4.455445544554455,1.523620751003388
4.475247524752476,1.5495454413046847
4.4950495049504955,1.574986679619038
4.514851485148514,1.599870140770959
4.534653465346535,1.6241261077975002
4.554455445544555,1.647689243720024
4.574257425742574,1.67049837708485
4.594059405940594,1.6924963025304967
4.613861386138614,1.713629596903962
4.633663366336633,1.7338484509198382
4.653465346534653,1.7531065159878372
4.673267326732674,1.7713607655890493
4.693069306930693,1.7885713704286736
4.712871287128713,1.8047015865094356
4.732673267326733,1.8197176552372318
4.752475247524752,1.8335887146738565
4.772277227722772,1.846286721081162
4.792079207920793,1.8577863799474181
4.811881188118812,1.8680650857451377
4.8316831683168315,1.8771028697348842
4.851485148514852,1.8848823551991596
4.871287128712871,1.8913887195616574
4.891089108910891,1.8966096629191906
4.910891089108912,1.9005353825846867
4.930693069306931,1.9031585533102582
4.9504950495049505,1.90447431292852
4.97029702970297,1.9044802532184608
4.99009900990099,1.9031764158694442
5.00990099009901,1.9005652934832848
5.02970297029703,1.8966518356207431
5.0495049504950495,1.8914434599646572
5.069306930693069,1.884950068738842
5.089108910891089,1.8771840705887823
5.108910891089109,1.8681604081986571
5.128712871287129,1.8578965919883186
5.148514851485149,1.8464127403042843
5.1683168316831685,1.8337316265899941
5.188118811881188,1.8198787340918152
5.207920792079208,1.8048823187281937
5.227722772277227,1.7887734808173181
5.247524752475248,1.7715862464225411
5.267326732673268,1.7533576591302693
5.2871287128712865,1.7341278831179578
5.306930693069307,1.7139403183938418
5.326732673267327,1.6928417290862356
5.346534653465346,1.670882385617644
5.366336633663367,1.6481162215024825
5.3861386138613865,1.6246010053373512
5.405940594059405,1.6003985282856965
5.425742574257426,1.5755748069616649
5.445544554455446,1.5502003010538281
5.465346534653465,1.524350144249234
5.485148514851486,1.4981043859661198
5.504950495049505,1.4715482400126758
5.524752475247524,1.4447723344858079
5.544554455445545,1.4178729549287157
5.564356435643565,1.3909522699031938
5.584158415841584,1.3641185246384142
5.603960396039604,1.3374861842621206
5.623762376237624,1.3111760033289932
5.643564356435643,1.2853149930571073
5.663366336633663,1.2600362521290172
5.683168316831684,1.2354786215680673
5.702970297029703,1.2117861197707618
5.7227722772277225,1.1891071112618878
5.742574257425743,1.1675931634354462
5.762376237623762,1.1473975509770575
5.782178217821782,1.1286733794211972
5.801980198019803,1.11157131872493
5.821782178217822,1.0962369654949105
5.841584158415841,1.0828078880127596
5.861386138613861,1.0714104491441927
5.881188118811881,1.062156544226288
5.900990099009901,1.05514042786468
5.920792079207921,1.0504358279304291
5.9405940594059405,1.0480935500237656
5.96039603960396,1.0481397566407975
5.98019801980198,1.050575061610136
6.0,1.055374516333769
6.01980198019802,1.0624884887395138
6.03960396039604,1.0718443601019831
6.0594059405940595,1.0833489005139754
6.079207920792079,1.0968911396320808
6.099009900990099,1.1123455297502605
6.118811881188119,1.129575202736159
6.138613861386139,1.1484351463379978
6.158415841584159,1.1687751619655091
6.178217821782178,1.1904425079592311
6.198019801980198,1.2132841733221358
6.217821782178218,1.2371487624967223
6.237623762376237,1.2618879996709038
6.257425742574258,1.2873578806812525
6.2772277227722775,1.313419512488515
6.297029702970296,1.3399396857592647
6.316831683168317,1.3667912268836468
6.336633663366337,1.393853173318538
6.356435643564356,1.4210108117655516
6.376237623762377,1.4481556133784625
6.396039603960396,1.4751850946572722
6.415841584158415,1.5020026273886953
6.435643564356436,1.5285172162020282
6.455445544554456,1.5546432581488963
6.475247524752475,1.5803002952153014
6.495049504950495,1.6054127678035057
6.514851485148515,1.6299097749190257
6.534653465346534,1.6537248449870563
6.554455445544554,1.6767957198253582
6.574257425742575,1.699064153242483
6.594059405940594,1.720475724945266
6.6138613861386135,1.7409796698706619
6.633663366336634,1.760528722656881
6.653465346534653,1.7790789766983206
6.673267326732673,1.7965897570565037
6.693069306930694,1.813023506400976
6.712871287128713,1.8283456831095648
6.732673267326732,1.8425246706525218
6.752475247524753,1.8555316974078675
6.772277227722772,1.867340766097226
6.792079207920792,1.8779285920864741
6.811881188118813,1.8872745498585044
6.8316831683168315,1.8953606270333263
6.851485148514851,1.902171385380916
6.871287128712871,1.9076939283435057
6.891089108910891,1.9119178746548287
6.910891089108911,1.914835337714072
6.930693069306931,1.9164409104414746
6.9504950495049505,1.916731655410535
6.97029702970297,1.9157071001189925
6.99009900990099,1.913369237327159
7.00990099009901,1.9097225304582544
7.02970297029703,1.9047739241213355
7.0495049504950495,1.8985328598838154
7.069306930693069,1.891011297487331
7.089108910891089,1.8822237417685415
7.108910891089109,1.8721872756152265
7.128712871287128,1.8609215993576418
7.148514851485149,1.848449077065764
7.1683168316831685,1.8347947902934467
7.188118811881187,1.8199865998807752
7.207920792079208,1.8040552164932104
7.227722772277228,1.7870342806395194
7.247524752475247,1.7689604529658964
7.267326732673268,1.749873515666889
7.287128712871287,1.7298164858789307
7.306930693069306,1.7088357419207578
7.326732673267327,1.6869811632062688
7.346534653465347,1.6643062845649366
7.366336633663366,1.640868465544426
7.3861386138613865,1.6167290750156311
7.405940594059406,1.5919536910223682
7.425742574257425,1.5666123152787799
7.445544554455446,1.5407796009718906
7.465346534653466,1.5145350915197198
7.485148514851485,1.4879634666032426
7.504950495049505,1.4611547900617037
7.524752475247524,1.4342047520383336
7.544554455445544,1.407214895012483
7.564356435643565,1.3802928099907725
7.584158415841584,1.3535522851194688
7.603960396039604,1.3271133843411937
7.623762376237624,1.3011024285575448
7.643564356435643,1.2756518463120599
7.663366336633663,1.2508998556967494
7.683168316831684,1.22698993466657
7.702970297029703,1.2040700341571455
7.7227722772277225,1.1822914885677083
7.742574257425743,1.1618075827590786
7.762376237623762,1.1427717452815045
7.782178217821782,1.125335355460363
7.801980198019803,1.1096451780015226
7.821782178217822,1.0958404725891027
7.841584158415841,1.0840498655634976
7.861386138613862,1.0743881122488972
7.881188118811881,1.0669529160190048
7.900990099009901,1.0618219967060962
7.92079207920792,1.0590506095475067
7.9405940594059405,1.0586697014946946
7.96039603960396,1.0606848529868904
7.980198019801979,1.0650760935144132
8.0,1.0717986063138523
8.01980198019802,1.0807842622316537
8.03960396039604,1.0919438565921473
8.05940594059406,1.1051698751122117
8.07920792079208,1.1203395907197085
8.099009900990099,1.1373182929593066
8.118811881188119,1.155962471740478
8.138613861386139,1.1761228111114403
8.158415841584159,1.1976468893520615
8.178217821782178,1.2203815225486008
8.198019801980198,1.2441747252205324
8.217821782178218,1.2688772907861223
8.237623762376238,1.2943440157423238
8.257425742574258,1.3204346047866566
8.277227722772277,1.3470143009087083
8.297029702970297,1.3739542862456702
8.316831683168317,1.4011318977507279
8.336633663366337,1.4284306977942525
8.356435643564357,1.4557404347564313
8.376237623762377,1.4829569232393844
8.396039603960396,1.5099818682352966
8.415841584158416,1.5367226527377582
8.435643564356436,1.5630921040301369
8.455445544554456,1.5890082502752236
8.475247524752476,1.61439407604928
8.495049504950495,1.6391772830560796
8.514851485148515,1.6632900603515979
8.534653465346535,1.686668866930474
8.554455445544555,1.7092542283978807
8.574257425742575,1.7309905486076862
8.594059405940595,1.75182593653204
8.613861386138613,1.771712048189447
8.633663366336634,1.7906039431577485
8.653465346534654,1.8084599550029425
8.673267326732672,1.8252415748376467
8.693069306930694,1.8409133471647832
8.712871287128714,1.8554427771463322
8.732673267326732,1.868800248451676
8.752475247524753,1.8809589508762674
8.772277227722773,1.8918948169718448
8.792079207920791,1.9015864669894462
8.811881188118813,1.910015161502079
8.831683168316832,1.9171647611426823
8.85148514851485,1.9230216929633257
8.871287128712872,1.927574922991686
8.891089108910892,1.9308159346308171
8.91089108910891,1.9327387126171331
8.930693069306932,1.933339732319433
8.950495049504951,1.9326179542289006
8.97029702970297,1.930574823556351
8.990099009900991,1.927214274918836
9.00990099009901,1.9225427421636483
9.029702970297029,1.9165691734436408
9.04950495049505,1.9093050517243366
9.06930693069307,1.9007644209706474
9.089108910891088,1.8909639183290825
9.10891089108911,1.8799228126903471
9.12871287128713,1.867663050087084
9.148514851485148,1.854209306451205
9.16831683168317,1.8395890483243522
9.188118811881187,1.823832602181896
9.207920792079207,1.8069732330935337
9.227722772277229,1.7890472334983456
9.247524752475247,1.770094022915829
9.267326732673267,1.750156259440274
9.287128712871288,1.7292799638661476
9.306930693069306,1.7075146572571371
9.326732673267326,1.6849135126865826
9.346534653465348,1.6615335217251876
9.366336633663366,1.637435676010475
9.386138613861386,1.6126851638722932
9.405940594059407,1.5873515814750572
9.425742574257425,1.5615091572259006
9.445544554455445,1.535236987236656
9.465346534653467,1.5086192783552181
9.485148514851485,1.4817455936296788
9.504950495049505,1.4547110929616958
9.524752475247526,1.4276167590713886
9.544554455445544,1.4005695956701039
9.564356435643564,1.3736827808823802
9.584158415841586,1.3470757544846803
9.603960396039604,1.3208742125267479
9.623762376237623,1.2952099775839716
9.643564356435645,1.2702207076386565
9.663366336633663,1.2460494020104238
9.683168316831683,1.2228436597211392
9.702970297029704,1.2007546453417353
9.722772277227723,1.1799357211216968
9.742574257425742,1.160540713558704
9.762376237623764,1.142721798908261
9.782178217821782,1.1266270163337113
9.801980198019802,1.1123974493343378
9.821782178217823,1.1001641541395304
9.841584158415841,1.0900449544304862
9.861386138613861,1.0821412596789677
9.881188118811881,1.076535092870583
9.900990099009901,1.073286525540719
9.92079207920792,1.0724317085269721
9.94059405940594,1.0739816534903799
9.96039603960396,1.0779218653603186
9.98019801980198,1.084212856228533
10.0,1.0927914969985648
10.01980198019802,1.103573095495732
10.03960396039604,1.1164540384272053
10.05940594059406,1.1313148055711997
10.07920792079208,1.1480231592802717
10.099009900990099,1.1664373279534261
10.118811881188119,1.186409032791172
10.138613861386139,1.2077862459572661
10.158415841584159,1.230415608714652
10.178217821782178,1.254144475149496
10.198019801980198,1.2788225776210251
10.217821782178218,1.3043033327671316
10.237623762376238,1.3304448218549134
10.257425742574258,1.3571104874881585
10.277227722772277,1.3841695915951169
10.297029702970297,1.4114974787184906
10.316831683168317,1.4389756852681799
10.336633663366337,1.46649193067362
10.356435643564357,1.4939400211040357
10.376237623762377,1.5212196911707236
10.396039603960396,1.548236404132662
10.415841584158416,1.574901126781804
10.435643564356436,1.6011300914603117
10.455445544554454,1.6268445545598607
10.475247524752476,1.6519705583283264
10.495049504950495,1.6764387007970643
10.514851485148514,1.7001839170680224
10.534653465346535,1.723145273991473
10.554455445544555,1.7452657793549042
10.574257425742573,1.7664922060319812
10.594059405940595,1.7867749310574064
10.613861386138614,1.8060677892569184
10.633663366336632,1.8243279408373225
10.653465346534654,1.8415157522024646
10.673267326732674,1.8575946891853
10.693069306930692,1.8725312218573522
