Frequency (Hz),Amplitude
0.0,5.431621106400774
0.019823788546255508,5.430824474238892
0.039647577092511016,5.428436958588104
0.059471365638766524,5.424465700515276
0.07929515418502203,5.418922596967497
0.09911894273127755,5.411824293388732
0.11894273127753305,5.403192173108106
0.13876651982378857,5.3930523432214805
0.15859030837004406,5.3814356166029444
0.17841409691629956,5.368377489595735
0.1982378854625551,5.353918114838968
0.2180616740088106,5.338102268590823
0.2378854625550661,5.3209793118064965
0.25770925110132165,5.302603144123305
0.27753303964757714,5.283032149794018
0.29735682819383263,5.262329134493565
0.31718061674008813,5.2405612518063425
0.3370044052863437,5.217799918079694
0.3568281938325991,5.194120714209104
0.37665198237885467,5.169603272801917
0.3964757709251102,5.14433114905405
0.41629955947136565,5.118391673571628
0.4361233480176212,5.0918757852813
0.4559471365638767,5.064877842506039
0.4757709251101322,5.037495410242633
0.49559471365638774,5.009829021672888
0.5154185022026433,4.9819819119779325
0.5352422907488987,4.954059722616878
0.5550660792951543,4.9261701743831665
0.5748898678414097,4.898422707776954
0.5947136563876653,4.870928089536499
0.6145374449339208,4.843797984565667
0.6343612334801763,4.817144492983002
0.6541850220264318,4.791079652605726
0.6740088105726874,4.765714907868675
0.6938325991189428,4.741160546959848
0.7136563876651982,4.71752510982255
0.7334801762114539,4.694914770612232
0.7533039647577093,4.673432699184409
0.7731277533039648,4.653178407198751
0.7929515418502204,4.634247085419401
0.8127753303964759,4.616728939733797
0.8325991189427313,4.600708534254938
0.8524229074889869,4.58626415057176
0.8722466960352424,4.573467172720519
0.8920704845814978,4.562381507725192
0.9118942731277534,4.553063051561463
0.931718061674009,4.545559210108344
0.9515418502202644,4.539908484052825
0.9713656387665199,4.536140125805265
0.9911894273127755,4.534273875284706
1.0110132158590308,4.534319779977135
1.0308370044052866,4.536278103005022
1.0506607929515421,4.540139321133877
1.0704845814977975,4.545884212752463
1.090308370044053,4.553484033972732
1.1101321585903086,4.562900779179102
1.1299559471365639,4.574087520685415
1.1497797356828194,4.586988820693363
1.1696035242290752,4.601541207537777
1.1894273127753305,4.617673707285358
1.209251101321586,4.635308421143379
1.2290748898678416,4.654361138833361
1.248898678414097,4.674741978080469
1.2687224669603525,4.6963560406347895
1.288546255506608,4.719104075741171
1.3083700440528636,4.742883142666569
1.3281938325991192,4.767587264732253
1.3480176211453747,4.793108068236393
1.36784140969163,4.819335400645866
1.3876651982378856,4.846157923444305
1.4074889867841411,4.873463676012099
1.4273127753303965,4.901140607854042
1.4471365638766522,4.92907707736088
1.4669603524229078,4.957162316075092
1.4867841409691631,4.985286858122054
1.5066079295154187,5.013342935057691
1.5264317180616742,5.041224836876439
1.5462555066079295,5.068829240320046
1.5660792951541853,5.0960555059359125
1.5859030837004409,5.122805945560747
1.6057268722466962,5.1489860620607555
1.6255506607929517,5.1745047632527035
1.6453744493392073,5.199274551970373
1.6651982378854626,5.223211694237409
1.6850220264317182,5.246236367468937
1.7048458149779737,5.268272790558065
1.7246696035242293,5.289249337616065
1.7444933920704848,5.3090986370332836
1.7643171806167404,5.327757657415493
1.7841409691629957,5.345167781832558
1.8039647577092512,5.361274871695696
1.8237885462555068,5.3760293214587325
1.8436123348017623,5.389386105220358
1.863436123348018,5.401304816188275
1.8832599118942732,5.411749699855364
1.9030837004405288,5.42068968163102
1.9229074889867843,5.428098389569175
1.9427312775330399,5.433954172737784
1.9625550660792954,5.438240115682013
1.982378854625551,5.440944049345566
2.002202643171806,5.442058558729613
2.0220264317180616,5.44158098748725
2.041850220264317,5.439513439571682
2.061674008810573,5.435862777978036
2.0814977973568287,5.430640620540668
2.1013215859030843,5.423863332669859
2.1211453744493394,5.415552016832171
2.140969162995595,5.405732498497301
2.1607929515418505,5.3944353081903555
2.180616740088106,5.381695659200571
2.2004405286343616,5.367553420406073
2.220264317180617,5.35205308357848
2.2400881057268722,5.335243724429724
2.2599118942731278,5.3171789565588465
2.2797356828193833,5.297916877345449
2.299559471365639,5.277520004722938
2.319383259911895,5.256055203646879
2.3392070484581504,5.233593600954659
2.3590308370044055,5.210210487193629
2.378854625550661,5.185985203878123
2.3986784140969166,5.1610010145253025
2.418502202643172,5.135344957718738
2.4383259911894277,5.1091076803628575
2.4581497797356833,5.082383249225146
2.4779735682819384,5.055268938825138
2.497797356828194,5.027864993724616
2.5176211453744495,5.0002743633129185
2.537444933920705,4.972602407271756
2.5572687224669606,4.944956570056077
2.577092511013216,4.9174460229500685
2.5969162995594717,4.890181272559137
2.6167400881057272,4.863273734988152
2.6365638766519828,4.8368352754386335
2.6563876651982383,4.8109777135379685
2.676211453744494,4.785812295390461
2.6960352422907494,4.761449134111454
2.715859030837005,4.7379966214609475
2.73568281938326,4.715560814118076
2.7555066079295156,4.694244799111817
2.775330396475771,4.674148043917008
2.7951541850220267,4.6553657377069015
2.8149779735682823,4.637988131181959
2.834801762114538,4.622099883228541
2.854625550660793,4.607779423352874
2.874449339207049,4.595098339342001
2.8942731277533045,4.584120799880488
2.91409691629956,4.5749030218654285
2.9339207048458156,4.567492791885814
2.953744493392071,4.561929050751512
2.9735682819383262,4.558241549073812
2.993392070484582,4.556450580728522
3.0132158590308373,4.556566799607528
3.033039647577093,4.558591123431677
3.0528634361233484,4.5625147266179065
3.072687224669604,4.568319122333533
3.092511013215859,4.575976332006974
3.1123348017621146,4.585449138768355
3.1321585903083706,4.596691419637601
3.151982378854626,4.6096485498211806
3.1718061674008817,4.624257871271486
3.1916299559471373,4.640449216738801
3.2114537444933924,4.6581454799240545
3.231277533039648,4.677263222022113
3.2511013215859035,4.697713304920998
3.270925110132159,4.719401541564244
3.2907488986784146,4.742229354459665
3.31057268722467,4.766094433985909
3.3303964757709252,4.790891388962837
3.350220264317181,4.816512382868808
3.3700440528634363,4.842847750062514
3.389867841409692,4.869786587359571
3.4096916299559474,4.897217317290203
3.4295154185022034,4.925028220295704
3.4493392070484585,4.953107933985291
3.469162995594714,4.98134591835661
3.4889867841409696,5.009632886572488
3.508810572687225,5.037861201478539
3.5286343612334807,5.065925238541431
3.5484581497797363,5.093721716288574
3.5682819383259914,5.121149995643592
3.588105726872247,5.148112349783878
3.6079295154185025,5.174514206308387
3.627753303964758,5.200264363602395
3.6475770925110136,5.225275183331589
3.667400881057269,5.249462761000107
3.6872246696035247,5.272747076472768
3.7070484581497802,5.295052126300258
3.726872246696036,5.3163060396025354
3.7466960352422913,5.3364411791673305
3.7665198237885464,5.35539422931107
3.7863436123348024,5.373106271934488
3.8061674008810575,5.389522852086257
3.8259911894273135,5.404594034228973
3.8458149779735686,5.418274450284468
3.8656387665198246,5.430523340420688
3.8854625550660797,5.441304587431993
3.905286343612335,5.45058674545839
3.925110132158591,5.458343063687912
3.9449339207048464,5.464551505589906
3.964757709251102,5.469194764134549
3.9845814977973575,5.4722602733658805
4.004405286343612,5.473740216611016
4.024229074889869,5.47363153152651
4.044052863436123,5.471935912102902
4.06387665198238,5.468659807670531
4.083700440528634,5.463814418871585
4.103524229074891,5.457415690485525
4.123348017621146,5.449484300915725
4.143171806167401,5.440045648064399
4.162995594713657,5.429129831238972
4.182819383259912,5.41677162864673
4.2026431718061685,5.403010469943431
4.222466960352423,5.387890403207358
4.242290748898679,5.3714600556104335
4.262114537444934,5.353772586954793
4.28193832599119,5.3348856351346345
4.301762114537445,5.314861252471634
4.321585903083701,5.293765831757338
4.3414096916299565,5.271670020719699
4.361233480176212,5.248648623515084
4.381057268722468,5.224780487734028
4.400881057268723,5.200148375302007
4.420704845814979,5.174838815559482
4.440528634361234,5.148941938723039
4.46035242290749,5.122551287867344
4.4801762114537445,5.095763607532212
4.500000000000001,5.068678607057653
4.5198237885462555,5.041398696790419
4.539647577092512,5.014028695396607
4.559471365638767,4.986675506666025
4.579295154185023,4.95944776441294
4.599118942731278,4.932455444374745
4.618942731277533,4.905809442390889
4.63876651982379,4.879621118616047
4.658590308370044,4.854001808087058
4.678414096916301,4.829062298623021
4.6982378854625555,4.804912277787638
4.718061674008811,4.781659751474759
4.737885462555067,4.759410437576803
4.757709251101322,4.738267139141155
4.777533039647578,4.718329102385934
4.797356828193833,4.699691365900155
4.817180616740089,4.682444108257147
4.837004405286344,4.666672002082435
4.856828193832599,4.65245358329455
4.876651982378855,4.6398606447352915
4.896475770925111,4.628957663685124
4.9162995594713665,4.61980127278481
4.936123348017622,4.612439783630156
4.955947136563877,4.606912771759653
4.975770925110133,4.603250730914004
4.995594713656388,4.601474803327143
5.015418502202644,4.601596591440506
5.035242290748899,4.603618054860099
5.055066079295155,4.607531494656266
5.07488986784141,4.613319625304465
5.094713656387666,4.62095573275193
5.114537444933921,4.630403915343124
5.134361233480177,4.6416194027109166
5.154185022026432,4.654548946303623
5.174008810572688,4.669131274015997
5.193832599118943,4.68529760046147
5.213656387665199,4.702972183781732
5.2334801762114544,4.722072919543304
5.25330396475771,4.742511962208736
5.2731277533039655,4.764196364870454
5.292951541850221,4.787028728366504
5.312775330396477,4.810907851519153
5.332599118942731,4.835729375009361
5.352422907488988,4.86138641227574
5.372246696035242,4.887770161765851
5.392070484581499,4.914770495829654
5.4118942731277535,4.942276522497136
5.43171806167401,4.970177117294914
5.451541850220265,4.998361423108372
5.47136563876652,5.02671931687047
5.491189427312777,5.055141842544998
5.511013215859031,5.0835216104662475
5.530837004405288,5.1117531635965054
5.550660792951542,5.139733311671248
5.570484581497798,5.167361434524089
5.5903083700440535,5.194539756126097
5.610132158590309,5.22117359104578
5.6299559471365646,5.247171565145722
5.64977973568282,5.272445812387761
5.669603524229076,5.296912149630599
5.689427312775331,5.320490231278665
5.709251101321586,5.343103685587771
5.729074889867842,5.364680234357116
5.748898678414098,5.385151797645136
5.768722466960353,5.404454585042984
5.788546255506609,5.422529174928862
5.808370044052864,5.439320583011609
5.82819383259912,5.454778321356107
5.848017621145375,5.468856448968354
5.867841409691631,5.481513614905132
5.887665198237886,5.492713094764566
5.907488986784142,5.502422821308512
5.927312775330397,5.51061540986731
5.9471365638766525,5.517268179081179
5.966960352422908,5.52236316744089
5.986784140969164,5.525887146002028
6.00660792951542,5.527831627562855
6.026431718061675,5.528192872514027
6.04625550660793,5.526971891488491
6.066079295154186,5.524174444862179
6.085903083700441,5.519811039077844
6.105726872246697,5.513896919687257
6.125550660792952,5.5064520609278444
6.145374449339208,5.497501151569929
6.1651982378854635,5.487073576687653
6.185022026431718,5.4752033949215795
6.204845814977975,5.4619293107114215
6.224669603524229,5.447294640884727
6.244493392070486,5.431347274890235
6.264317180616741,5.414139627863379
6.284140969162996,5.3957285856065065
6.303964757709252,5.376175440458005
6.323788546255507,5.355545816913407
6.3436123348017635,5.333909585750121
6.363436123348018,5.3113407652954825
6.3832599118942746,5.287917408370264
6.403083700440529,5.263721473337479
6.422907488986785,5.238838677594436
6.44273127753304,5.213358331768242
6.462555066079296,5.187373152817564
6.482378854625551,5.160979054211325
6.502202643171807,5.134274911356343
6.5220264317180625,5.107362300487372
6.541850220264318,5.080345209323441
6.561674008810574,5.053329717941595
6.581497797356829,5.026423648531981
6.601321585903085,4.999736182985035
6.62114537444934,4.9733774476283035
6.640969162995596,4.947458064884028
6.6607929515418505,4.922088672161026
6.680616740088107,4.897379408926902
6.700440528634362,4.873439373624533
6.720264317180618,4.850376052892712
6.740088105726873,4.828294726410799
6.759911894273129,4.80729785159244
6.779735682819384,4.787484433279294
6.799559471365639,4.768949384500367
6.819383259911895,4.751782885233374
6.83920704845815,4.73606974688868
6.859030837004407,4.721888790896613
6.8788546255506615,4.709312250270463
6.898678414096917,4.698405203304679
6.918502202643173,4.689225048615757
6.938325991189428,4.681821030517602
6.958149779735684,4.676233823229462
6.977973568281939,4.6724951816413665
6.997797356828195,4.670627665321146
7.01762114537445,4.670644441165553
7.037444933920705,4.672549168616122
7.0572687224669615,4.676335969729689
7.077092511013216,4.681989484675176
7.096916299559473,4.689485011488301
7.116740088105728,4.6987887272220545
7.136563876651983,4.709857986047745
7.156387665198239,4.722641688446975
7.176211453744494,4.737080714436775
7.19603524229075,4.753108412823805
7.215859030837005,4.77065113781049
7.235682819383261,4.789628823882319
7.255506607929516,4.809955589786423
7.275330396475772,4.83154036254633
7.295154185022027,4.854287512820309
7.314977973568283,4.878097493464125
7.334801762114538,4.9028674738644025
7.354625550660794,4.928491963424311
7.374449339207049,4.9548634184695235
7.394273127753305,4.981872827759843
7.4140969162995605,5.009410272708921
7.433920704845816,5.037365459300964
7.453744493392072,5.065628219528377
7.473568281938327,5.094088980939236
7.493392070484583,5.1226392035684185
7.513215859030838,5.151171784123565
7.533039647577093,5.179581427805534
7.552863436123348,5.207764988563194
7.572687224669605,5.235621778918799
7.59251101321586,5.263053850759207
7.612334801762115,5.2899662486763
7.6321585903083715,5.316267237566129
7.651982378854627,5.341868506268925
7.671806167400882,5.366685349059105
7.691629955947137,5.390636826783386
7.711453744493394,5.413645909405157
7.731277533039649,5.435639601647984
7.751101321585904,5.456549053349693
7.7709251101321595,5.476309656042858
7.790748898678416,5.494861127174417
7.81057268722467,5.512147583268346
7.830396475770926,5.528117603224101
7.850220264317182,5.542724282833088
7.870044052863436,5.555925281485302
7.889867841409693,5.567682861931879
7.909691629955948,5.577963923865946
7.929515418502204,5.586740031984426
7.9493392070484585,5.593987439098554
7.969162995594715,5.599687104769041
7.9889867841409705,5.603824709854434
8.008810572687224,5.606390667276282
8.02863436123348,5.607380129223799
8.048458149779737,5.606792990940226
8.068281938325994,5.604633891155801
8.088105726872246,5.600912209154315
8.107929515418503,5.595642058383246
8.12775330396476,5.588842276439408
8.147577092511014,5.580536411182638
8.167400881057269,5.570752702648701
8.187224669603525,5.559524060348776
8.207048458149782,5.5468880354556775
8.226872246696036,5.532886787286586
8.246696035242293,5.517567043398268
8.266519823788547,5.500980052512373
8.286343612334802,5.483181529388222
8.306167400881058,5.464231590655557
8.325991189427315,5.444194680514447
8.345814977973568,5.423139485102274
8.365638766519824,5.401138834222317
8.38546255506608,5.378269589025606
8.405286343612337,5.354612514141855
8.42511013215859,5.330252132668085
8.444933920704846,5.305276562351552
8.464757709251103,5.2797773312491545
8.484581497797357,5.253849171117146
8.504405286343614,5.227589786786636
8.524229074889869,5.201099599820809
8.544052863436125,5.1744814648360755
8.56387665198238,5.147840357008716
8.583700440528636,5.121283029490289
8.60352422907489,5.094917639724788
8.623348017621145,5.06885334400642
8.643171806167402,5.043199860043214
8.662995594713658,5.018066997801628
8.682819383259913,4.993564159501449
8.702643171806168,4.9697998103054495
8.722466960352424,4.946880921996668
8.74229074889868,4.924912392746376
8.762114537444935,4.903996446929962
8.78193832599119,4.884232019824186
8.801762114537446,4.865714132888828
8.821585903083701,4.848533266167283
8.841409691629957,4.832774735097845
8.861233480176212,4.818518079671557
8.881057268722468,4.8058364743661
8.900881057268723,4.794796167592024
8.92070484581498,4.785455959474309
8.940528634361234,4.7778667266365265
8.960352422907489,4.772071002239343
8.980176211453745,4.76810261884676
9.000000000000002,4.765986420761059
9.019823788546258,4.765738051302281
9.039647577092511,4.767363819145601
9.059471365638768,4.77086064631504
9.079295154185024,4.776216098820254
9.099118942731279,4.783408499274583
9.118942731277533,4.792407119210305
9.13876651982379,4.803172447271832
9.158590308370046,4.815656528075611
9.1784140969163,4.829803365324228
9.198237885462555,4.845549381787393
9.218061674008812,4.862823928039206
9.237885462555067,4.8815498313791075
9.257709251101323,4.901643976161612
9.27753303964758,4.923017906804227
9.297356828193834,4.945578445009453
9.317180616740089,4.969228313196167
9.337004405286345,4.993866756751225
9.356828193832602,5.019390158446493
9.376651982378855,5.045692639181402
9.396475770925111,5.07266664007035
9.416299559471367,5.1002034817648685
9.436123348017622,5.1281938977542865
9.455947136563877,5.156528539201934
9.475770925110133,5.1850984496292325
9.49559471365639,5.213795508443932
9.515418502202644,5.242512842913682
9.5352422907489,5.271145208707955
9.555066079295155,5.299589339569738
9.57488986784141,5.327744267036763
9.594713656387666,5.355511611413546
9.614537444933923,5.382795845408495
9.634361233480178,5.409504532000292
9.654185022026432,5.435548538193356
9.674008810572689,5.460842226371088
9.693832599118945,5.48530362496484
9.713656387665198,5.508854580134292
9.733480176211454,5.53142089010611
9.75330396475771,5.552932423749867
9.773127753303967,5.573323224887147
9.792951541850222,5.592531603736104
9.812775330396477,5.6105002167935485
9.832599118942733,5.627176136352657
9.852422907488988,5.642510910748155
9.872246696035244,5.656460616316336
9.892070484581499,5.66898590195268
9.911894273127754,5.680052027049616
9.93171806167401,5.689628893498491
9.951541850220266,5.697691072346005
9.971365638766521,5.704217825603982
9.991189427312776,5.709193123624612
10.011013215859032,5.712605658368325
10.030837004405289,5.714448852810441
10.050660792951543,5.714720866652652
10.070484581497798,5.713424598428049
10.090308370044054,5.710567684010835
10.11013215859031,5.706162491465502
10.129955947136565,5.700226112093088
10.14977973568282,5.692780347453615
10.169603524229077,5.6838516920646045
10.189427312775331,5.673471311393241
10.209251101321588,5.661675014675375
10.229074889867842,5.648503222007179
10.248898678414099,5.634000925064504
10.268722466960353,5.618217640711585
10.28854625550661,5.6012073566639495
10.308370044052865,5.5830284682711335
10.32819383259912,5.5637437053846845
10.348017621145376,5.543420048175185
10.367841409691632,5.522128630662248
10.387665198237887,5.499944630624878
10.407488986784141,5.476947144467981
10.427312775330398,5.453219045539775
10.447136563876654,5.4288468243253485
10.466960352422909,5.40392040889052
10.486784140969164,5.378532963921724
10.50660792951542,5.352780666707405
10.526431718061675,5.326762458441893
10.546255506607931,5.300579769309697
10.566079295154186,5.274336215934749
10.585903083700442,5.248137269961567
10.605726872246697,5.22208989678194
10.625550660792953,5.196302163735569
10.645374449339208,5.170882817503568
10.665198237885463,5.145940830880527
10.685022026431719,5.121584919656927
10.704845814977975,5.097923030964393
10.724669603524232,5.075061805128128
10.744493392070485,5.053106013821019
10.764317180616741,5.032157978109745
10.784140969162998,5.012316970803518
10.803964757709252,4.993678608336999
10.823788546255507,4.976334238211983
10.843612334801763,4.960370328754466
10.86343612334802,4.945867868580884
