Time (s),Filtered Signal
0.0,0.022552297809351255
0.0334075723830735,-1.0298928508892458
0.066815144766147,-1.8154258147445013
0.1002227171492205,-2.1600456608319667
0.133630289532294,-2.037198319901909
0.1670378619153675,-1.563286382118257
0.200445434298441,-0.9401105385415758
0.23385300668151449,-0.3725850345015748
0.267260579064588,0.0020958047032190374
0.3006681514476615,0.1469145802017595
0.334075723830735,0.11253154949853753
0.3674832962138085,-0.006178667348725168
0.400890868596882,-0.11958633160948134
0.4342984409799555,-0.17626611291706967
0.46770601336302897,-0.16945323952470387
0.5011135857461025,-0.12156205319509882
0.534521158129176,-0.06040995443395367
0.5679287305122495,-0.0011226286492553147
0.601336302895323,0.0587959286260348
0.6347438752783965,0.13216493109755503
0.66815144766147,0.22932235913670268
0.7015590200445435,0.3476944102230918
0.734966592427617,0.4689014805784695
0.7683741648106905,0.5641997849324714
0.801781737193764,0.6052562797308365
0.8351893095768375,0.5753350303964253
0.868596881959911,0.4762278711481853
0.9020044543429845,0.3282252001884284
0.9354120267260579,0.16322159987224344
0.9688195991091315,0.013692810737808515
1.002227171492205,-0.09812938761386211
1.0356347438752784,-0.16661247123930664
1.069042316258352,-0.2021147630804578
1.1024498886414256,-0.22383685128840186
1.135857461024499,-0.24943855675379883
1.1692650334075725,-0.2862230105272869
1.202672605790646,-0.32794299081031214
1.2360801781737194,-0.3585169058684616
1.269487750556793,-0.36050322673742324
1.3028953229398665,-0.3238964513719739
1.33630289532294,-0.250921093984553
1.3697104677060135,-0.1548993619821014
1.403118040089087,-0.054509410604758377
1.4365256124721606,0.033074785697245056
1.469933184855234,0.0967613208973958
1.5033407572383075,0.13252710793311534
1.536748329621381,0.14204983847600292
1.5701559020044544,0.13141557980373644
1.603563474387528,0.11135215996890087
1.6369710467706016,0.09806233689172827
1.670378619153675,0.11187310863286294
1.7037861915367485,0.17131997118423448
1.737193763919822,0.2832027187310831
1.7706013363028954,0.43294287240274076
1.804008908685969,0.5815858648077371
1.8374164810690425,0.6740656879966773
1.8708240534521159,0.6580983912700101
1.9042316258351895,0.5068689396303538
1.937639198218263,0.23511557136190195
1.9710467706013366,-0.10021631901841187
2.00445434298441,-0.41710538758787097
2.0378619153674835,-0.6373678305318794
2.071269487750557,-0.7153818781366147
2.1046770601336307,-0.6542492892502545
2.138084632516704,-0.5024849279798319
2.1714922048997773,-0.3329542001089825
2.204899777282851,-0.21339857423777817
2.2383073496659245,-0.18104794114017347
2.271714922048998,-0.231361927461717
2.3051224944320716,-0.32432679184268726
2.338530066815145,-0.40414269769054395
2.3719376391982183,-0.4229444843583355
2.405345211581292,-0.3584859960451257
2.4387527839643655,-0.2194174893087277
2.472160356347439,-0.0378299825981388
2.5055679287305126,0.14585827374228894
2.538975501113586,0.2982289395254216
2.5723830734966593,0.4022603704981706
2.605790645879733,0.4583818824863161
2.6391982182628064,0.478755571885692
2.67260579064588,0.4787639995207267
2.7060133630289536,0.4698577426098705
2.739420935412027,0.45633715336155756
2.7728285077951007,0.43636278766477427
2.806236080178174,0.40557174180624556
2.8396436525612474,0.3608458733462536
2.873051224944321,0.30223681850245054
2.9064587973273945,0.2324274814712781
2.939866369710468,0.15459895652661054
2.9732739420935417,0.07035796527156063
3.006681514476615,-0.020895130617542525
3.0400890868596884,-0.12081035756006135
3.073496659242762,-0.2298659444417315
3.1069042316258355,-0.345277286411385
3.140311804008909,-0.45997149977090257
3.1737193763919826,-0.5629138357688174
3.207126948775056,-0.6405558514382979
3.2405345211581293,-0.6790616078041536
3.273942093541203,-0.6671046383902564
3.3073496659242765,-0.5990220554061586
3.34075723830735,-0.4777256616654293
3.3741648106904236,-0.3162056294613035
3.407572383073497,-0.13627704691371875
3.4409799554565703,0.036103788329025985
3.474387527839644,0.17813330608266867
3.5077951002227175,0.2776126499795494
3.541202672605791,0.33728571551287556
3.5746102449888646,0.37344544435237914
3.608017817371938,0.4083070039430467
3.6414253897550113,0.4585067659325945
3.674832962138085,0.5244939984179455
3.7082405345211584,0.5862511300803849
3.7416481069042318,0.608882372763113
3.7750556792873056,0.5574087620027182
3.808463251670379,0.4152438923682106
3.8418708240534527,0.19781161682129528
3.875278396436526,-0.0463514350214424
3.9086859688195994,-0.2497081377258736
3.942093541202673,-0.3507845253473765
3.9755011135857465,-0.3202589340952058
4.00890868596882,-0.17658677787578306
4.042316258351893,0.01684338315590604
4.075723830734967,0.17370920819683067
4.109131403118041,0.2182999371589116
4.142538975501114,0.11721695275068214
4.1759465478841875,-0.104580720104043
4.209354120267261,-0.37142342689287483
4.242761692650334,-0.5863481479092296
4.276169265033408,-0.6705367643429874
4.309576837416482,-0.5960034714626183
4.342984409799555,-0.3971561182347043
4.3763919821826285,-0.1558176166125282
4.409799554565702,0.034118747047525856
4.443207126948775,0.10716787956215973
4.476614699331849,0.05415412390601522
4.510022271714923,-0.07487572863585808
4.543429844097996,-0.19423606414382338
4.5768374164810695,-0.22238059579614003
4.610244988864143,-0.12011518720263903
4.643652561247216,0.09010543470865838
4.67706013363029,0.33280749400339077
4.710467706013364,0.5124208305544177
4.743875278396437,0.5557177696143718
4.77728285077951,0.44460997363496835
4.810690423162584,0.2246199327093318
4.844097995545657,-0.014486145513249966
4.877505567928731,-0.17688298133671604
4.910913140311805,-0.20060081156624845
4.944320712694878,-0.08200914496619234
4.977728285077951,0.12470674484633489
5.011135857461025,0.3312715895599376
5.044543429844098,0.4506903848391963
5.077951002227172,0.4289381215368502
5.111358574610246,0.2610795686119905
5.144766146993319,-0.01182694180006507
5.178173719376392,-0.3202199520076431
5.211581291759466,-0.5885797656770174
5.244988864142539,-0.7545881748603842
5.278396436525613,-0.7809484559035207
5.311804008908687,-0.6603517574023653
5.34521158129176,-0.4156628681434644
5.378619153674833,-0.0960389576431351
5.412026726057907,0.23219740149423335
5.445434298440981,0.5007790097842763
5.478841870824054,0.6584296819345106
5.512249443207128,0.6871599210657888
5.545657015590201,0.6082334079606977
5.579064587973274,0.4733800088939386
5.612472160356348,0.3435315829963344
5.645879732739422,0.2637915328425725
5.679287305122495,0.24568103796335292
5.712694877505569,0.2644520311946976
5.746102449888642,0.27218540594756696
5.779510022271715,0.22031513661487412
5.812917594654789,0.08162002495893823
5.846325167037863,-0.13714670363913564
5.879732739420936,-0.3962325148285571
5.91314031180401,-0.6362104646852076
5.946547884187083,-0.7982078068552976
5.979955456570156,-0.843745636866866
6.01336302895323,-0.7674236313318504
6.046770601336304,-0.5981707215661882
6.080178173719377,-0.3886225942738194
6.1135857461024505,-0.19640536714476606
6.146993318485524,-0.06426694895197865
6.180400890868597,-0.006663642968182883
6.213808463251671,-0.007975249237277526
6.247216035634745,-0.0327797925327749
6.280623608017818,-0.043534185636984954
6.3140311804008915,-0.017819888922168202
6.347438752783965,0.042493187233338246
6.380846325167038,0.11419024986717032
6.414253897550112,0.1662366335814832
6.447661469933186,0.17736770719968878
6.481069042316259,0.14919108299316491
6.5144766146993325,0.10824706289911765
6.547884187082406,0.09561632985910744
6.581291759465479,0.14847211255496656
6.614699331848553,0.2816610299993001
6.648106904231627,0.4773262527887301
6.6815144766147,0.6870473025083574
6.7149220489977735,0.8458410441395917
6.748329621380847,0.8929570270709672
6.78173719376392,0.7922677638274558
6.815144766146994,0.545531290550086
6.848552338530068,0.1942938876342498
6.881959910913141,-0.19023840552677007
6.915367483296214,-0.5263689093212146
6.948775055679288,-0.7443313755739058
6.982182628062361,-0.8051170591421101
7.015590200445435,-0.7100001017933273
7.048997772828509,-0.4980745527991767
7.082405345211582,-0.232967767337286
7.115812917594655,0.01675173326920986
7.149220489977729,0.19714166568680774
7.182628062360802,0.28229249546101737
7.216035634743876,0.277539145804449
7.24944320712695,0.2118890680667925
7.282850779510023,0.12287910916698584
7.316258351893096,0.03994409591079019
7.34966592427617,-0.026898164322436968
7.383073496659243,-0.08825242471464428
7.416481069042317,-0.16588826408038554
7.449888641425391,-0.2769183035759395
7.4832962138084635,-0.4192106136637921
7.516703786191537,-0.5656162518012934
7.550111358574611,-0.6708646591893328
7.583518930957685,-0.6889760773881541
7.616926503340758,-0.5935962965619042
7.650334075723832,-0.39167956766129947
7.683741648106905,-0.12375303563221488
7.717149220489978,0.14964952443740084
7.750556792873052,0.36921297891863814
7.783964365256126,0.49627049694751746
7.817371937639199,0.5226128273060213
7.850779510022273,0.46813114665733185
7.884187082405346,0.369445248039752
7.917594654788419,0.2657303713662599
7.951002227171493,0.18735251713350204
7.984409799554567,0.1499569390321997
8.01781737193764,0.1536692469815367
8.051224944320714,0.18568869661240392
8.084632516703786,0.22481421909134516
8.118040089086861,0.24724436336154354
8.151447661469934,0.2332253423879221
8.184855233853007,0.1734991268236412
8.218262806236082,0.07361046399465991
8.251670378619155,-0.04610132480249552
8.285077951002227,-0.15595482047337098
8.318485523385302,-0.22677524422708797
8.351893095768375,-0.24074245480956988
8.385300668151448,-0.1986679842335504
8.418708240534523,-0.12010080919636637
8.452115812917596,-0.035654363844202126
8.485523385300668,0.025390912459199923
8.518930957683743,0.046762581336660905
8.552338530066816,0.030963778343861794
8.585746102449889,-0.003196473140190854
8.619153674832964,-0.02971617892154676
8.652561247216036,-0.02666049200299703
8.68596881959911,0.015374882498796913
8.719376391982184,0.09054717635758212
8.752783964365257,0.1806732110943892
8.78619153674833,0.26130512765830577
8.819599109131405,0.3080844734099056
8.853006681514477,0.3017386516206156
8.88641425389755,0.23171652118224084
8.919821826280625,0.09907655210418798
8.953229398663698,-0.08154486637522794
8.98663697104677,-0.282318451123763
9.020044543429846,-0.4666541789318711
9.053452115812918,-0.5978794945712108
9.086859688195991,-0.6498295272885514
9.120267260579066,-0.6151970023073885
9.153674832962139,-0.5078508256146471
9.187082405345212,-0.3578995138981127
9.220489977728286,-0.20158322007360754
9.25389755011136,-0.07021585392508327
9.287305122494432,0.017698455003993096
9.320712694877507,0.059020486465782354
9.35412026726058,0.06354064995033969
9.387527839643653,0.04856533195789396
9.420935412026727,0.032848893591480514
9.4543429844098,0.031496633153683416
9.487750556792873,0.05253703153627266
9.521158129175948,0.09534354877419075
9.55456570155902,0.1511165331942585
9.587973273942094,0.20581757630780245
9.621380846325168,0.245628941360526
9.654788418708241,0.2638179988498466
9.688195991091314,0.2662366051603834
9.721603563474389,0.2717944187280943
9.755011135857462,0.3054193795221511
9.788418708240535,0.3845526032762966
9.82182628062361,0.504696774117601
9.855233853006682,0.632213675551127
9.888641425389755,0.710973252932767
9.92204899777283,0.6832633090462034
9.955456570155903,0.5172466057500953
9.988864142538976,0.22779970047912765
10.02227171492205,-0.12133623360054639
10.055679287305123,-0.4380186354159052
10.089086859688196,-0.6372571135011812
10.12249443207127,-0.6757944916493202
10.155902004454344,-0.5691418310745106
10.189309576837417,-0.38279340806168793
10.222717149220491,-0.20216239994296542
10.256124721603564,-0.09614059015976774
10.289532293986637,-0.09155315159089539
10.322939866369712,-0.16921697519332243
10.356347438752785,-0.2808063254168734
10.389755011135858,-0.37564806510778675
10.423162583518932,-0.4230061158019283
10.456570155902005,-0.4196147888999839
10.489977728285078,-0.3812811327729501
10.523385300668153,-0.3260989521319165
10.556792873051226,-0.2605630975622346
10.590200445434299,-0.17696425448601785
10.623608017817373,-0.06293037013631274
10.657015590200446,0.08362376785508241
10.69042316258352,0.24420318560267282
10.723830734966594,0.3814595643449737
10.757238307349667,0.453325922350681
10.790645879732741,0.4327548087318727
10.824053452115814,0.32281144949489127
10.857461024498887,0.1589223450372265
10.890868596881962,-0.0035785632020677084
10.924276169265035,-0.11116220677716367
10.957683741648108,-0.13307959329983016
10.991091314031182,-0.07206261195864373
11.024498886414255,0.03961807155109544
11.057906458797328,0.15594673420418065
11.091314031180403,0.23660320650238362
11.124721603563476,0.2609236001814952
11.158129175946549,0.231055585011608
11.191536748329623,0.165120055267327
11.224944320712696,0.08609119995504862
11.25835189309577,0.013139476750743732
11.291759465478844,-0.04082936688949163
11.325167037861917,-0.06651676933682968
11.35857461024499,-0.05497790681242115
11.391982182628064,0.0017398722808613617
11.425389755011137,0.10492955414358283
11.45879732739421,0.24180235032441463
11.492204899777285,0.38211273178653343
11.525612472160358,0.48340800606307305
11.55902004454343,0.5048798650048857
11.592427616926505,0.42436065680224583
11.625835189309578,0.25006992661228145
11.659242761692651,0.020384273981145958
11.692650334075726,-0.20940531122608613
11.726057906458799,-0.387770323076105
11.759465478841872,-0.4856897121558218
11.792873051224946,-0.5051844028273593
11.82628062360802,-0.47450436399611057
11.859688195991092,-0.43307834150611446
11.893095768374167,-0.41353556781115486
11.92650334075724,-0.4285802839275817
11.959910913140313,-0.4675684109883611
11.993318485523387,-0.5030739317180923
12.02672605790646,-0.5037053549345629
12.060133630289533,-0.4475028401683556
12.093541202672608,-0.33080809557327273
12.12694877505568,-0.1698267344060819
12.160356347438753,0.005053488226146857
12.193763919821828,0.15980049625454829
12.227171492204901,0.26838737714710403
12.260579064587974,0.3214735406345257
12.293986636971049,0.32878898214439606
12.327394209354122,0.3138830855530119
12.360801781737194,0.30291885401045937
12.39420935412027,0.312192136078907
12.427616926503342,0.34034649405351874
12.461024498886415,0.36956938223359104
12.49443207126949,0.3757194126888686
12.527839643652563,0.34248972507347114
12.561247216035635,0.27216759779694316
12.59465478841871,0.18697134958342002
12.628062360801783,0.1197099167065206
12.661469933184856,0.09806347122143384
12.69487750556793,0.13018122358002504
12.728285077951004,0.19882884442957866
12.761692650334076,0.2672877796592182
12.795100222717151,0.2946007991845943
12.828507795100224,0.25324256175053206
12.861915367483297,0.1410148525586793
12.895322939866372,-0.018413523712654326
12.928730512249444,-0.18653984279931654
12.962138084632517,-0.32726330498765244
12.995545657015592,-0.4218838983909985
13.028953229398665,-0.47450379911661267
13.062360801781738,-0.5053055509078355
13.095768374164813,-0.5354141935165998
13.129175946547885,-0.5714870678436684
13.162583518930958,-0.5984586464269445
13.195991091314033,-0.5847830464489928
13.229398663697106,-0.49814228986523557
13.262806236080179,-0.32417585090835604
13.296213808463254,-0.07901975739667548
13.329621380846326,0.1909087272835749
13.3630289532294,0.4227583244260161
13.396436525612474,0.559541851835344
13.429844097995547,0.5719074695219205
13.46325167037862,0.4703838151573638
13.496659242761694,0.30277586272382934
13.530066815144767,0.13724878074426577
13.56347438752784,0.037347572968026356
13.596881959910915,0.03848215728669693
13.630289532293988,0.13492988457991928
13.66369710467706,0.2823531286823166
13.697104677060135,0.41483571501661637
13.730512249443208,0.4699012825298554
13.763919821826281,0.41203131974140295
13.797327394209356,0.24590397220727128
13.830734966592429,0.014560831646362855
13.864142538975502,-0.21657310188521184
13.897550111358576,-0.38356669206134486
13.93095768374165,-0.44655709771158003
13.964365256124722,-0.4024291512695895
13.997772828507797,-0.2830738897753322
14.03118040089087,-0.14067973126758204
14.064587973273943,-0.026840007639632575
14.097995545657017,0.02553444819334825
14.13140311804009,0.010485400637909493
14.164810690423163,-0.05447528117917798
14.198218262806238,-0.14006266891118097
14.23162583518931,-0.21851795130700954
14.265033407572384,-0.27251344170176883
14.298440979955458,-0.2971169400291275
14.331848552338531,-0.2962288442822758
14.365256124721604,-0.2771119150788977
14.398663697104679,-0.2462471391104263
14.432071269487752,-0.20767694635923137
14.465478841870825,-0.16302652844354648
14.4988864142539,-0.11182925897002072
14.532293986636972,-0.05160663740317221
14.565701559020045,0.02172004269059941
14.59910913140312,0.11221798017699663
14.632516703786193,0.22108478223795353
14.665924276169266,0.34372507147999387
14.69933184855234,0.468531063155095
14.732739420935413,0.5785360665810767
14.766146993318486,0.6556473365332283
14.79955456570156,0.6857593394751318
14.832962138084634,0.6625565755485631
14.866369710467707,0.5884924100083402
14.899777282850781,0.4728368805922152
14.933184855233854,0.32802315955406847
14.966592427616927,0.16612791552735742
15.0,-0.0030030287206191785
