Time (s),Filtered Signal
0.0,-0.05097288290059496
0.03337004405286344,0.025061026342875454
0.06674008810572687,0.10562918288017165
0.10011013215859031,0.18882797790323816
0.13348017621145375,0.26450366025119076
0.16685022026431717,0.316201106754865
0.20022026431718062,0.32668886938039815
0.23359030837004408,0.28467159302630185
0.2669603524229075,0.19016324318718872
0.3003303964757709,0.05670638851439837
0.33370044052863435,-0.09051642802326879
0.3670704845814978,-0.2207624903130645
0.40044052863436125,-0.3068541354194076
0.43381057268722467,-0.3345843861397931
0.46718061674008815,-0.3084710047631826
0.5005506607929515,-0.25047439183049947
0.533920704845815,-0.1910617970862702
0.5672907488986785,-0.15592565108076523
0.6006607929515418,-0.1545052374440897
0.6340308370044053,-0.17620528162312804
0.6674008810572687,-0.19652071480817862
0.7007709251101322,-0.18998130895331514
0.7341409691629956,-0.14297075269708404
0.767511013215859,-0.05949406645136371
0.8008810572687225,0.04293455648300557
0.834251101321586,0.14428710019531166
0.8676211453744493,0.23289912475467223
0.9009911894273128,0.30954393415695103
0.9343612334801763,0.3824714680858641
0.9677312775330397,0.45698458584142687
1.001101321585903,0.5266558478178271
1.0344713656387665,0.5723555056316677
1.06784140969163,0.5704484775816054
1.1012114537444935,0.50578290912835
1.134581497797357,0.3819467694843809
1.1679515418502202,0.2226353629006805
1.2013215859030837,0.0630062838050453
1.2346916299559472,-0.06448671570131391
1.2680616740088106,-0.14246031249005353
1.3014317180616741,-0.17331889093638245
1.3348017621145374,-0.17503624561034653
1.3681718061674009,-0.1713987902480181
1.4015418502202643,-0.1822060583799503
1.4349118942731278,-0.21765949914173638
1.4682819383259913,-0.2779115889835873
1.5016519823788548,-0.3558314032233398
1.535022026431718,-0.44015171604318976
1.5683920704845815,-0.517367068129326
1.601762114537445,-0.5727353751152412
1.6351321585903085,-0.5918759332631913
1.668502202643172,-0.5639588846948639
1.7018722466960352,-0.4858317668366626
1.7352422907488987,-0.36495525752840385
1.7686123348017622,-0.21891800333936953
1.8019823788546256,-0.07080516455471979
1.8353524229074891,0.058060228737191195
1.8687224669603526,0.15488032249780964
1.9020925110132159,0.21856859706217302
1.9354625550660793,0.2579851161823221
1.9688325991189428,0.2862773806842379
2.002202643171806,0.31421798172750204
2.0355726872246698,0.3457349096161849
2.068942731277533,0.37753050326982107
2.1023127753303967,0.40251631073362937
2.13568281938326,0.41485181845226454
2.1690528634361232,0.4136058271606593
2.202422907488987,0.4028691873873619
2.23579295154185,0.38821384145138677
2.269162995594714,0.37168040474059016
2.302533039647577,0.3486350277481508
2.3359030837004404,0.30897903910357116
2.369273127753304,0.24262012376788514
2.4026431718061674,0.14632975402848716
2.436013215859031,0.027940282635419103
2.4693832599118943,-0.09485296125533732
2.5027533039647576,-0.20077901877446117
2.5361233480176213,-0.2731927871497918
2.5694933920704845,-0.3060599708637452
2.6028634361233483,-0.3050018228431421
2.6362334801762115,-0.2834209048810859
2.6696035242290748,-0.25612623471803114
2.7029735682819385,-0.23369264683239546
2.7363436123348017,-0.21987909730976185
2.7697136563876654,-0.21258627643213385
2.8030837004405287,-0.20713839495115813
2.8364537444933924,-0.19987906062369928
2.8698237885462556,-0.19033138871480013
2.903193832599119,-0.18113944732967857
2.9365638766519826,-0.17611441607784384
2.969933920704846,-0.1774699405758529
3.0033039647577096,-0.18353449814783002
3.036674008810573,-0.18794146493963432
3.070044052863436,-0.1807337615132016
3.1034140969162998,-0.15118863259872192
3.136784140969163,-0.09160704487993765
3.1701541850220267,-0.0009126789845772561
3.20352422907489,0.11323304276277964
3.2368942731277532,0.23485109038216953
3.270264317180617,0.34295660119630195
3.30363436123348,0.4170744015547547
3.337004405286344,0.44323442414190467
3.370374449339207,0.41822230187953807
3.4037444933920704,0.35030774586594304
3.437114537444934,0.25604097197813974
3.4704845814977974,0.15441391910299493
3.503854625550661,0.06085470293496879
3.5372246696035243,-0.01649004117518174
3.5705947136563876,-0.0769369763283198
3.6039647577092513,-0.12440390903006861
3.6373348017621145,-0.16333457210121174
3.6707048458149782,-0.19552370711631023
3.7040748898678415,-0.21916392934728995
3.737444933920705,-0.2301361882059626
3.7708149779735685,-0.22450294939800508
3.8041850220264317,-0.2008111825300215
3.8375550660792954,-0.16118029699304745
3.8709251101321587,-0.11089598344623229
3.9042951541850224,-0.05691441552531662
3.9376651982378856,-0.005996165180036038
3.971035242290749,0.03690705464959928
4.004405286343612,0.06969640209303662
4.037775330396476,0.09352982267976143
4.0711453744493395,0.11256318678164152
4.104515418502203,0.13293312218881173
4.137885462555066,0.1608901715310928
4.171255506607929,0.20023281967358889
4.2046255506607935,0.2496722765907199
4.237995594713657,0.3012603860072598
4.27136563876652,0.34115508758774166
4.304735682819383,0.3534101584634264
4.3381057268722465,0.32610172548929195
4.371475770925111,0.2574494670425104
4.404845814977974,0.1586697210394584
4.438215859030837,0.05110378919891291
4.4715859030837,-0.042155873960635776
4.504955947136564,-0.10657667151829668
4.538325991189428,-0.14298245113224814
4.571696035242291,-0.1665908710266177
4.605066079295154,-0.19812153937934163
4.638436123348018,-0.25147362204352036
4.671806167400881,-0.3247841671244205
4.705176211453745,-0.4000258037349228
4.738546255506608,-0.4515757366149097
4.7719162995594715,-0.4592082719735586
4.805286343612335,-0.4186299439637233
4.838656387665198,-0.34417625965524423
4.872026431718062,-0.26253136696921964
4.905396475770925,-0.2008216880126132
4.938766519823789,-0.17485558357191067
4.972136563876652,-0.18272927837863978
5.005506607929515,-0.20621064788827834
5.038876651982379,-0.21885465841944285
5.072246696035243,-0.1972001203313457
5.105616740088106,-0.13044727190734814
5.138986784140969,-0.02479452645306346
5.172356828193832,0.09927534567058095
5.2057268722466965,0.21570678868348772
5.23909691629956,0.30402067826942175
5.272466960352423,0.35808087632265523
5.305837004405286,0.3883677281276903
5.3392070484581495,0.4163180498120901
5.372577092511014,0.4629316767575125
5.405947136563877,0.5367740233788941
5.43931718061674,0.6271636896200845
5.4726872246696034,0.7061920093045094
5.506057268722468,0.739172574874642
5.539427312775331,0.6990937373525108
5.572797356828194,0.5786371595268157
5.606167400881057,0.39435467029668547
5.639537444933921,0.18117908514329178
5.672907488986785,-0.020177774839934826
5.706277533039648,-0.17734713235185667
5.739647577092511,-0.276050707853251
5.7730176211453745,-0.32197970831604256
5.806387665198238,-0.3350459750769733
5.839757709251102,-0.33942905394427975
5.873127753303965,-0.3540799682619316
5.9064977973568284,-0.38733910773337044
5.939867841409692,-0.436864185681598
5.973237885462555,-0.4934952578576389
6.006607929515419,-0.5462393760521734
6.039977973568282,-0.5857790442609883
6.073348017621146,-0.6054315418818536
6.106718061674009,-0.600291087158743
6.140088105726872,-0.5662926772645854
6.173458149779736,-0.5006180084208036
6.2068281938325995,-0.40353863786610505
6.240198237885463,-0.28041449322115636
6.273568281938326,-0.14210927891673442
6.306938325991189,-0.0028844748051024883
6.3403083700440535,0.12363891225500385
6.373678414096917,0.22862218764261338
6.40704845814978,0.31026641773922814
6.440418502202643,0.3731787329549875
6.4737885462555065,0.4253166394914483
6.507158590308371,0.47406497747814413
6.540528634361234,0.5231273226112912
6.573898678414097,0.5711551137525339
6.60726872246696,0.6120253112266436
6.640638766519824,0.6361357590441509
6.674008810572688,0.6322726245693074
6.707378854625551,0.590100017105603
6.740748898678414,0.5034178603434556
6.774118942731278,0.37369142697656044
6.807488986784141,0.21238161902875785
6.840859030837005,0.040200805825827905
6.874229074889868,-0.11771737276904967
6.9075991189427315,-0.23974422484820318
6.940969162995595,-0.3156818138287942
6.974339207048458,-0.3507526214007811
7.007709251101322,-0.3629927115352322
7.041079295154185,-0.374468456355517
7.074449339207049,-0.4001474973538085
7.107819383259912,-0.4400465353562074
7.141189427312775,-0.47912992534881876
7.174559471365639,-0.49557720142921885
7.207929515418503,-0.47338838985915926
7.241299559471366,-0.41251001169389123
7.274669603524229,-0.3305699726518991
7.308039647577092,-0.25467121682703575
7.3414096916299565,-0.20718881611986273
7.37477973568282,-0.19302550206639307
7.408149779735683,-0.19524313244474978
7.441519823788546,-0.1816525359515581
7.47488986784141,-0.11924842351292185
7.508259911894274,0.010516951131382185
7.541629955947137,0.2027100490507487
7.575,0.4297532024600233
7.608370044052863,0.6508651413016805
7.641740088105728,0.8252295552518467
7.675110132158591,0.9232392388197933
7.708480176211454,0.9320919271440586
7.741850220264317,0.8551955243768263
7.775220264317181,0.7075225615703482
7.808590308370045,0.5101000825043674
7.841960352422908,0.28608428143169456
7.875330396475771,0.05903869167121421
7.9087004405286345,-0.14777718018522043
7.942070484581498,-0.3130496644398301
7.975440528634362,-0.42112130955956156
8.008810572687224,-0.4669673968142604
8.042180616740088,-0.459777554034143
8.075550660792953,-0.42208085774754567
8.108920704845815,-0.3830352300680738
8.142290748898679,-0.36759115833938905
8.175660792951541,-0.3860231378497699
8.209030837004406,-0.42903182411178614
8.24240088105727,-0.4715204643122053
8.275770925110132,-0.4840613991269863
8.309140969162996,-0.44703010275546196
8.342511013215859,-0.3606208419223468
8.375881057268723,-0.2456488693448244
8.409251101321587,-0.1345223148562542
8.44262114537445,-0.05671334829699407
8.475991189427313,-0.025759985101462678
8.509361233480176,-0.03381831225273866
8.54273127753304,-0.05575230789576881
8.576101321585904,-0.060075740888336546
8.609471365638766,-0.021288512578403574
8.64284140969163,0.07153436572961142
8.676211453744493,0.21233304641230874
8.709581497797357,0.38106936379645473
8.742951541850221,0.549533572907155
8.776321585903084,0.6874944814904689
8.809691629955948,0.7681776474480057
8.84306167400881,0.7733049561251316
8.876431718061674,0.6978721040480935
8.909801762114538,0.553573220921413
8.9431718061674,0.3685785994702411
8.976541850220265,0.1817136633400153
9.009911894273127,0.03140822148096999
9.043281938325991,-0.057071133724262
9.076651982378856,-0.08069236346355814
9.110022026431718,-0.05950183655446919
9.143392070484582,-0.028246684964061266
9.176762114537445,-0.02216140450065635
9.210132158590309,-0.06312253809042996
9.243502202643173,-0.15209350491914658
9.276872246696035,-0.27060784024669465
9.3102422907489,-0.3897303365564303
9.343612334801762,-0.481738836241903
9.376982378854626,-0.5291879270690086
9.41035242290749,-0.5280792473968224
9.443722466960352,-0.4852299677377668
9.477092511013216,-0.4127053445255407
9.510462555066079,-0.32296975031640424
9.543832599118943,-0.22703720484960557
9.577202643171807,-0.13541158455067467
9.61057268722467,-0.05959440649098729
9.643942731277534,-0.011611108595216274
9.677312775330396,-0.0004990167625214235
9.71068281938326,-0.027027310260932254
9.744052863436124,-0.07960154605147053
9.777422907488987,-0.13428960399649073
9.81079295154185,-0.16019071461810994
9.844162995594713,-0.12891397699758533
9.877533039647577,-0.024975291275471753
9.910903083700441,0.1467254922292669
9.944273127753304,0.3593832028572586
9.977643171806168,0.5698625820461037
10.01101321585903,0.7301248745342213
10.044383259911895,0.8011136278464847
10.077753303964759,0.7645611915781304
10.111123348017621,0.6285901565636551
10.144493392070485,0.4249960378350008
10.177863436123348,0.19906588371456704
10.211233480176212,-0.004440189552476702
10.244603524229076,-0.1541135739007876
10.277973568281938,-0.23909010648429557
10.311343612334802,-0.26852600033875645
10.344713656387665,-0.2643745968107653
10.378083700440529,-0.25101020693992454
10.411453744493393,-0.24613521021313148
10.444823788546255,-0.2563218259033911
10.47819383259912,-0.27805150189807926
10.511563876651982,-0.3024815306354632
10.544933920704846,-0.32073226792126464
10.57830396475771,-0.32693536754603003
10.611674008810573,-0.3182123689243634
10.645044052863437,-0.2928893530955197
10.678414096916299,-0.2492376474810899
10.711784140969163,-0.18628307599349184
10.745154185022027,-0.10631825457538266
10.77852422907489,-0.017043114709365686
10.811894273127754,0.0689819491725631
10.845264317180618,0.13834543809848832
10.87863436123348,0.1826464323405265
10.912004405286345,0.20298932974002537
10.945374449339207,0.21024696047702035
10.978744493392071,0.2204290287233792
11.012114537444935,0.2471865724628122
11.045484581497798,0.2950318183845562
11.078854625550662,0.3564310969228216
11.112224669603524,0.41395548502315804
11.145594713656388,0.446371445503489
11.178964757709252,0.43607988438313317
11.212334801762115,0.3751341076754631
11.245704845814979,0.26792546073985835
11.279074889867841,0.12993215273528885
11.312444933920705,-0.016819623525820115
11.34581497797357,-0.1500069761511547
11.379185022026432,-0.2529451064777685
11.412555066079296,-0.31831619973859443
11.445925110132158,-0.34857910398796993
11.479295154185023,-0.35317480691159514
11.512665198237887,-0.343861775741975
11.546035242290749,-0.3301677914446069
11.579405286343613,-0.31670217440793125
11.612775330396476,-0.3030617084237147
11.64614537444934,-0.2858210552695267
11.679515418502204,-0.2612692599901207
11.712885462555066,-0.2275273361010225
11.74625550660793,-0.18536946876142618
11.779625550660793,-0.13795842300565536
11.812995594713657,-0.09017743040601087
11.846365638766521,-0.04800237642189123
11.879735682819383,-0.01768839318448941
11.913105726872248,-0.0041343166261335355
11.94647577092511,-0.008200063597992632
11.979845814977974,-0.023881380924977172
12.013215859030838,-0.037256782343637
12.0465859030837,-0.029010863626123134
12.079955947136565,0.01923674772728181
12.113325991189427,0.1168676411551047
12.146696035242291,0.2581190561697028
12.180066079295155,0.4211930460455157
12.213436123348018,0.5736848772904806
12.246806167400882,0.6823542772024274
12.280176211453744,0.7231645330674321
12.313546255506608,0.6875262280492219
12.346916299559473,0.5827248210518623
12.380286343612335,0.4273529877656652
12.413656387665199,0.24462047286410238
12.447026431718061,0.05668460041817925
12.480396475770926,-0.11823963505718421
12.51376651982379,-0.26622233288681063
12.547136563876652,-0.37700537215693203
12.580506607929516,-0.4440680285897354
12.613876651982379,-0.46592482332443097
12.647246696035243,-0.4478246064781413
12.680616740088107,-0.4022354616657271
12.71398678414097,-0.3467882208028427
12.747356828193833,-0.2995607235267548
12.780726872246696,-0.2730953324581621
12.81409691629956,-0.26959037469906694
12.847466960352424,-0.27968927575958724
12.880837004405286,-0.28601114579854775
12.91420704845815,-0.27042122956884795
12.947577092511013,-0.2220140402169045
12.980947136563877,-0.14204764317380103
13.014317180616741,-0.043277002967304384
13.047687224669604,0.056130852491209526
13.081057268722468,0.1410625672527654
13.11442731277533,0.2059133224006731
13.147797356828194,0.25563359078960757
13.181167400881058,0.3008476671244851
13.21453744493392,0.3497402000731689
13.247907488986785,0.4012037494611424
13.281277533039647,0.44312549873159834
13.314647577092511,0.4569932377099272
13.348017621145376,0.42667637741401915
13.381387665198238,0.3470397175000429
13.414757709251102,0.22806398820544777
13.448127753303964,0.09229195936443287
13.481497797356829,-0.033404069908607954
13.514867841409693,-0.12803190140793488
13.548237885462555,-0.18398010618065055
13.58160792951542,-0.2083562958709574
13.614977973568282,-0.2176512713194168
13.648348017621146,-0.22848407264910958
13.68171806167401,-0.2491167246485836
13.715088105726872,-0.2759691704134544
13.748458149779736,-0.29669704894296367
13.781828193832599,-0.29791547121194806
13.815198237885463,-0.27324170850675705
13.848568281938327,-0.22730376429431126
13.88193832599119,-0.17370260959119146
13.915308370044054,-0.1282696889648939
13.948678414096916,-0.10143142216986321
13.98204845814978,-0.09374210836492657
14.015418502202644,-0.09663824296224437
14.048788546255507,-0.09743653834781885
14.08215859030837,-0.08532580636174084
14.115528634361233,-0.054896136602709075
14.148898678414097,-0.005673386145502476
14.182268722466961,0.06106474184416335
14.215638766519824,0.1450605241662158
14.249008810572688,0.24668120172295158
14.28237885462555,0.36304233554590687
14.315748898678414,0.48324562465943655
14.349118942731279,0.5866813419924158
14.382488986784141,0.6470463622042717
14.415859030837005,0.641413157145412
14.449229074889868,0.5603682523860924
14.482599118942732,0.41401994751722
14.515969162995596,0.23039185018180836
14.549339207048458,0.04644320312017685
14.582709251101322,-0.10438990748285984
14.616079295154185,-0.20262673834506928
14.649449339207049,-0.24683610236801723
14.682819383259913,-0.250315353674136
14.716189427312775,-0.23279076635928816
14.74955947136564,-0.21161285190939258
14.782929515418502,-0.19659344513361046
14.816299559471366,-0.19026267542829767
14.84966960352423,-0.1922116699650741
14.883039647577093,-0.2039806829210436
14.916409691629957,-0.23085602753705067
14.94977973568282,-0.27903779155044867
14.983149779735683,-0.3497448288461304
15.016519823788547,-0.4340705942810773
15.04988986784141,-0.5123625680385744
15.083259911894274,-0.5594942060061311
15.116629955947138,-0.5540066115808447
15.15,-0.4867228982356028
15.183370044052865,-0.36450721882114984
15.216740088105727,-0.20734072645588006
15.250110132158591,-0.04036611689275587
15.283480176211455,0.11501117087300605
15.316850220264318,0.24682639156986064
15.350220264317182,0.3530902508602159
15.383590308370044,0.4380597231573135
15.416960352422908,0.5069869331692081
15.450330396475772,0.5620607337143538
15.483700440528635,0.600869697818002
15.517070484581499,0.6172023207283914
15.550440528634361,0.6032891371310763
15.583810572687225,0.5527101466359361
15.61718061674009,0.46349382320860744
15.650550660792952,0.3408290159842566
15.683920704845816,0.19832309934273026
15.717290748898678,0.05648634318274616
15.750660792951543,-0.062227559854010066
15.784030837004407,-0.1408565409437443
15.817400881057269,-0.17500553310520536
15.850770925110133,-0.1758886015298424
15.884140969162996,-0.16680216064353262
15.91751101321586,-0.17346870150280827
15.950881057268724,-0.2121002226882189
15.984251101321586,-0.28088509472626627
16.01762114537445,-0.35953005021996415
16.050991189427315,-0.41771956764026474
16.084361233480177,-0.428776915041764
16.11773127753304,-0.3819588526748678
16.151101321585905,-0.28735443443526526
16.184471365638768,-0.1710497846955422
16.21784140969163,-0.06307515387300917
16.251211453744492,0.015873976591080297
16.284581497797358,0.062540263085954
16.31795154185022,0.09034603366692331
16.351321585903083,0.12048976782035233
16.38469162995595,0.169549074671739
16.41806167400881,0.23983471427519934
16.451431718061674,0.3172486749156874
16.48480176211454,0.3775729551427754
16.518171806167402,0.39786606707939565
16.551541850220264,0.367118104785867
16.584911894273127,0.29080739388240917
16.618281938325993,0.18726980455110392
16.651651982378855,0.07814390947943357
16.685022026431717,-0.021710268371691543
16.718392070484583,-0.10922645428252427
16.751762114537446,-0.19042601583294178
16.785132158590308,-0.27186156107463355
16.818502202643174,-0.3516538200146787
16.851872246696036,-0.4160358770215849
16.8852422907489,-0.4442489345143639
16.91861233480176,-0.41968541091686573
16.951982378854627,-0.34121047243788183
16.98535242290749,-0.227976268277949
17.01872246696035,-0.11421910736441471
17.052092511013218,-0.03577900683222842
17.08546255506608,-0.014554591155168311
17.118832599118942,-0.048440612218702876
17.152202643171808,-0.11183207593512236
17.18557268722467,-0.16677994749104216
17.218942731277533,-0.1797862990134829
