Time (s),Filtered Signal
0.0,0.00730947646031741
0.0334075723830735,-0.6267259247956306
0.066815144766147,-1.0404374514727288
0.1002227171492205,-1.0871317980307749
0.133630289532294,-0.7412988770484171
0.1670378619153675,-0.1035771293153927
0.200445434298441,0.6382130345317825
0.23385300668151449,1.2767635372367556
0.267260579064588,1.655554448493886
0.3006681514476615,1.7151160408478379
0.334075723830735,1.4994413018747463
0.3674832962138085,1.1240272804550229
0.400890868596882,0.7227875463892576
0.4342984409799555,0.39796027531066747
0.46770601336302897,0.1925449658027474
0.5011135857461025,0.09206644377093821
0.534521158129176,0.048621353199483165
0.5679287305122495,0.01189510458205618
0.601336302895323,-0.04789233008009007
0.6347438752783965,-0.13303668489261994
0.66815144766147,-0.22607593094535916
0.7015590200445435,-0.3043677259652246
0.734966592427617,-0.3525091532089296
0.7683741648106905,-0.36716372597063274
0.801781737193764,-0.3543280008066009
0.8351893095768375,-0.32314383431854726
0.868596881959911,-0.2811339354196922
0.9020044543429845,-0.23347555729486935
0.9354120267260579,-0.18555985346098558
0.9688195991091315,-0.14583683213708928
1.002227171492205,-0.12600851433505464
1.0356347438752784,-0.13763613690773635
1.069042316258352,-0.1867047909917424
1.1024498886414256,-0.2691043760575134
1.135857461024499,-0.36962655316033516
1.1692650334075725,-0.46532296459817585
1.202672605790646,-0.5320011450784567
1.2360801781737194,-0.5513269994985873
1.269487750556793,-0.5159542324527638
1.3028953229398665,-0.4310923083175984
1.33630289532294,-0.31231670135043804
1.3697104677060135,-0.18061468544694856
1.403118040089087,-0.05634567346586572
1.4365256124721606,0.04605662318674875
1.469933184855234,0.1211371091540383
1.5033407572383075,0.172438591980655
1.536748329621381,0.20965810756876968
1.5701559020044544,0.24404785858470848
1.603563474387528,0.2837344713746898
1.6369710467706016,0.3305610057168261
1.670378619153675,0.3793700797607953
1.7037861915367485,0.41970171012164
1.737193763919822,0.43916268246295403
1.7706013363028954,0.4274934333108678
1.804008908685969,0.3804599760117847
1.8374164810690425,0.3027589105548556
1.8708240534521159,0.20896365270773762
1.9042316258351895,0.12143461340380975
1.937639198218263,0.06462766160702763
1.9710467706013366,0.05667543909124417
2.00445434298441,0.1010286642943704
2.0378619153674835,0.18211861778107125
2.071269487750557,0.2682166906308227
2.1046770601336307,0.32172826928944626
2.138084632516704,0.31336704339633553
2.1714922048997773,0.23417118930047534
2.204899777282851,0.09978013276559626
2.2383073496659245,-0.055227996089159105
2.271714922048998,-0.19056284633408563
2.3051224944320716,-0.2752726600125463
2.338530066815145,-0.298383819978429
2.3719376391982183,-0.27128383481541274
2.405345211581292,-0.2218033197107963
2.4387527839643655,-0.18318411565748313
2.472160356347439,-0.18243755568518777
2.5055679287305126,-0.23188077807551843
2.538975501113586,-0.3257818003234475
2.5723830734966593,-0.44219070234228364
2.605790645879733,-0.548861191072121
2.6391982182628064,-0.6116635696249632
2.67260579064588,-0.6036720469967277
2.7060133630289536,-0.5128987440344797
2.739420935412027,-0.3465426538743834
2.7728285077951007,-0.13002805229739794
2.806236080178174,0.09960914466447923
2.8396436525612474,0.3043702530462234
2.873051224944321,0.4563323334792782
2.9064587973273945,0.5446544849795614
2.939866369710468,0.5754730281723706
2.9732739420935417,0.5648055765011643
3.006681514476615,0.5281170732784146
3.0400890868596884,0.47205205450806237
3.073496659242762,0.3927480789446491
3.1069042316258355,0.28153224788330955
3.140311804008909,0.13465189898721425
3.1737193763919826,-0.03861041603371266
3.207126948775056,-0.2142387480583226
3.2405345211581293,-0.35957149078364137
3.273942093541203,-0.44450675643063003
3.3073496659242765,-0.45262842651564966
3.34075723830735,-0.3871500402925357
3.3741648106904236,-0.26905506374833826
3.407572383073497,-0.12844822479718393
3.4409799554565703,0.006715388235549262
3.474387527839644,0.11916300389846499
3.5077951002227175,0.20422393756381582
3.541202672605791,0.2648717642364672
3.5746102449888646,0.303501932345182
3.608017817371938,0.3159105012178267
3.6414253897550113,0.2914928067241567
3.674832962138085,0.2197004748778333
3.7082405345211584,0.09876202280545428
3.7416481069042318,-0.05880930823411824
3.7750556792873056,-0.22736982749633822
3.808463251670379,-0.3752666883555487
3.8418708240534527,-0.4738013168799968
3.875278396436526,-0.5034932200039997
3.9086859688195994,-0.4557832183297135
3.942093541202673,-0.33187816894579836
3.9755011135857465,-0.1420420492070578
4.00890868596882,0.09298703884005707
4.042316258351893,0.3402750389921199
4.075723830734967,0.5568250202643051
4.109131403118041,0.6984879655218753
4.142538975501114,0.734012261603821
4.1759465478841875,0.6577821475652644
4.209354120267261,0.493549514637272
4.242761692650334,0.28541253590375854
4.276169265033408,0.0794136737674385
4.309576837416482,-0.09503271337808368
4.342984409799555,-0.23397537884462416
4.3763919821826285,-0.3532579095808849
4.409799554565702,-0.4716877896419225
4.443207126948775,-0.5927967684912959
4.476614699331849,-0.6959621768384762
4.510022271714923,-0.7426234505681766
4.543429844097996,-0.6949962045364574
4.5768374164810695,-0.53766500728787
4.610244988864143,-0.290584494523292
4.643652561247216,-0.00629187156380918
4.67706013363029,0.24788026856256032
4.710467706013364,0.4144307813473906
4.743875278396437,0.4660221334058032
4.77728285077951,0.4130257802330119
4.810690423162584,0.29623865932414156
4.844097995545657,0.16938567202761703
4.877505567928731,0.07961109705752956
4.910913140311805,0.05345885080335769
4.944320712694878,0.09204899053258551
4.977728285077951,0.17481971483752215
5.011135857461025,0.26850460952761657
5.044543429844098,0.3376171688811168
5.077951002227172,0.35379601952973394
5.111358574610246,0.3025943669856688
5.144766146993319,0.18690138297191625
5.178173719376392,0.026330750873178915
5.211581291759466,-0.14770982902776622
5.244988864142539,-0.3004991006799431
5.278396436525613,-0.4037969092791604
5.311804008908687,-0.4436891935880929
5.34521158129176,-0.42348426228040803
5.378619153674833,-0.3604411912352625
5.412026726057907,-0.277718328181365
5.445434298440981,-0.19506603766613698
5.478841870824054,-0.1222874535955051
5.512249443207128,-0.05804977537098633
5.545657015590201,0.00598121884070697
5.579064587973274,0.07810859286934681
5.612472160356348,0.1601354469418979
5.645879732739422,0.24430918032139762
5.679287305122495,0.3148470613524425
5.712694877505569,0.3533767181236498
5.746102449888642,0.34629067438029587
5.779510022271715,0.2913709848544649
5.812917594654789,0.20105415883901065
5.846325167037863,0.10043138106774775
5.879732739420936,0.01964883399558088
5.91314031180401,-0.01736360422547928
5.946547884187083,-0.003725680508543444
5.979955456570156,0.044971619132685214
6.01336302895323,0.09422501172963951
6.046770601336304,0.10319320075716022
6.080178173719377,0.042074800797436696
6.1135857461024505,-0.09283866057178734
6.146993318485524,-0.27352923529441087
6.180400890868597,-0.4477646497773201
6.213808463251671,-0.557908811207883
6.247216035634745,-0.5637462975816698
6.280623608017818,-0.4594107747195218
6.3140311804008915,-0.2764075961098594
6.347438752783965,-0.07075669502957951
6.380846325167038,0.10022849835395076
6.414253897550112,0.20086813911650434
6.447661469933186,0.22915736861682717
6.481069042316259,0.21276547257713804
6.5144766146993325,0.19182142924010173
6.547884187082406,0.19759375145765218
6.581291759465479,0.2375261501857305
6.614699331848553,0.2931510991695068
6.648106904231627,0.3306695450148942
6.6815144766147,0.3181471986159007
6.7149220489977735,0.24104563100477497
6.748329621380847,0.10960234575755862
6.78173719376392,-0.044241467247297724
6.815144766146994,-0.1784220938757282
6.848552338530068,-0.25618795334929295
6.881959910913141,-0.2599042539509378
6.915367483296214,-0.1984151053974103
6.948775055679288,-0.10496115997542398
6.982182628062361,-0.025478650888037864
7.015590200445435,-0.000623728815467037
7.048997772828509,-0.04804261109034364
7.082405345211582,-0.15260711115082418
7.115812917594655,-0.27017380949791536
7.149220489977729,-0.34493197621119936
7.182628062360802,-0.33365788216197184
7.216035634743876,-0.22571803818153974
7.24944320712695,-0.04855936585580744
7.282850779510023,0.14483611952005887
7.316258351893096,0.30058049740111364
7.34966592427617,0.3877829149679547
7.383073496659243,0.4090640134604222
7.416481069042317,0.3925411678125491
7.449888641425391,0.37074963534462735
7.4832962138084635,0.35926939949247666
7.516703786191537,0.3474779882035886
7.550111358574611,0.30629860001315234
7.583518930957685,0.2078374954925682
7.616926503340758,0.04529758475396236
7.650334075723832,-0.15807500730393143
7.683741648106905,-0.35579295391845805
7.717149220489978,-0.4969483354638021
7.750556792873052,-0.5474318748794406
7.783964365256126,-0.5033998103550897
7.817371937639199,-0.39133334971768624
7.850779510022273,-0.2557624004003351
7.884187082405346,-0.1411509636199748
7.917594654788419,-0.076139470007264
7.951002227171493,-0.06604304410225448
7.984409799554567,-0.09494723728433685
8.01781737193764,-0.1344977303432927
8.051224944320714,-0.1545310706060816
8.084632516703786,-0.13150533961920025
8.118040089086861,-0.05318241608221047
8.151447661469934,0.07965886135350868
8.184855233853007,0.25299237400631164
8.218262806236082,0.4403705333448482
8.251670378619155,0.6059483977507318
8.285077951002227,0.7111889592279335
8.318485523385302,0.7250280381024614
8.351893095768375,0.6344547253317798
8.385300668151448,0.45067537493565996
8.418708240534523,0.20705811253516979
8.452115812917596,-0.051173313490184676
8.485523385300668,-0.2811337607394826
8.518930957683743,-0.45380728092391165
8.552338530066816,-0.5579487651847311
8.585746102449889,-0.5958911607037484
8.619153674832964,-0.5753942252020332
8.652561247216036,-0.5034601801251815
8.68596881959911,-0.38594450166141664
8.719376391982184,-0.23227744104128004
8.752783964365257,-0.06071376094194969
8.78619153674833,0.10116331999831046
8.819599109131405,0.22297355306620117
8.853006681514477,0.282666683023247
8.88641425389755,0.2763746668238032
8.919821826280625,0.22117799066349503
8.953229398663698,0.14853092458016384
8.98663697104677,0.09106350093981312
9.020044543429846,0.06902653287721358
9.053452115812918,0.08281707266937822
9.086859688195991,0.11480075111743283
9.120267260579066,0.1389038576046203
9.153674832962139,0.13282664354896837
9.187082405345212,0.08709104877706601
9.220489977728286,0.007490221399086797
9.25389755011136,-0.08884984153656689
9.287305122494432,-0.1808311034812405
9.320712694877507,-0.2505647495662056
9.35412026726058,-0.2879580445932462
9.387527839643653,-0.29203909886148033
9.420935412026727,-0.2695277344414986
9.4543429844098,-0.23150391234585763
9.487750556792873,-0.18903240283097766
9.521158129175948,-0.14881491826532117
9.55456570155902,-0.11033383730882128
9.587973273942094,-0.06596599223967453
9.621380846325168,-0.004685101215448995
9.654788418708241,0.08162620212783975
9.688195991091314,0.1917839880266004
9.721603563474389,0.31193915217569446
9.755011135857462,0.41747643532140033
9.788418708240535,0.48030224083149875
9.82182628062361,0.4791457946335048
9.855233853006682,0.40875212158295016
9.888641425389755,0.28381645448370796
9.92204899777283,0.13543064090222767
9.955456570155903,0.0009329919268755256
9.988864142538976,-0.08904262630331874
10.02227171492205,-0.12118150599700712
10.055679287305123,-0.10345830983136035
10.089086859688196,-0.06079337198201936
10.12249443207127,-0.024085589228109997
10.155902004454344,-0.017053884087039027
10.189309576837417,-0.04634403830143597
10.222717149220491,-0.09917982862659382
10.256124721603564,-0.14978478590520175
10.289532293986637,-0.1720006302842036
10.322939866369712,-0.1525869835455297
10.356347438752785,-0.09904179246149411
10.389755011135858,-0.03794535475350071
10.423162583518932,-0.003981945972682556
10.456570155902005,-0.02408088727531927
10.489977728285078,-0.10357485844992398
10.523385300668153,-0.22077423236353927
10.556792873051226,-0.33307745528179605
10.590200445434299,-0.39296505995315134
10.623608017817373,-0.36780645422816394
10.657015590200446,-0.25515262152431273
10.69042316258352,-0.08629203851005961
10.723830734966594,0.08466044938550507
10.757238307349667,0.2024947723049535
10.790645879732741,0.23432934569316857
10.824053452115814,0.18394266293775166
10.857461024498887,0.08980833254567268
10.890868596881962,0.007170147971028482
10.924276169265035,-0.017669579976186504
10.957683741648108,0.03130776692843344
10.991091314031182,0.1329391383062034
11.024498886414255,0.23942464911025788
11.057906458797328,0.2989507883592039
11.091314031180403,0.279575961435791
11.124721603563476,0.18347755236575455
11.158129175946549,0.04560373560055102
11.191536748329623,-0.08190917254090804
11.224944320712696,-0.15199109750119316
11.25835189309577,-0.14158879605865066
11.291759465478844,-0.05946961052522158
11.325167037861917,0.05960538409023436
11.35857461024499,0.17084923005338673
11.391982182628064,0.23809597701147114
11.425389755011137,0.24716695223769003
11.45879732739421,0.20882871660451885
11.492204899777285,0.15090390686175745
11.525612472160358,0.10361332511356793
11.55902004454343,0.08482230012132624
11.592427616926505,0.09164992548763289
11.625835189309578,0.10207487403584473
11.659242761692651,0.08588937235234369
11.692650334075726,0.02030128423129881
11.726057906458799,-0.09671894917263264
11.759465478841872,-0.24165501030500258
11.792873051224946,-0.3722259960981993
11.82628062360802,-0.44384192478466195
11.859688195991092,-0.4292304418716919
11.893095768374167,-0.332443018288773
11.92650334075724,-0.18994519637433951
11.959910913140313,-0.05679297751167717
11.993318485523387,0.016944558248315884
12.02672605790646,0.008791874176748609
12.060133630289533,-0.0658367194450377
12.093541202672608,-0.16151131031782814
12.12694877505568,-0.22542301730505354
12.160356347438753,-0.2232681529399558
12.193763919821828,-0.15476081385062776
12.227171492204901,-0.050685959184931066
12.260579064587974,0.046322442432079614
12.293986636971049,0.10597619522906238
12.327394209354122,0.12561225854674632
12.360801781737194,0.12816174600156713
12.39420935412027,0.14471635312134762
12.427616926503342,0.19258254078581127
12.461024498886415,0.26209730232570494
12.49443207126949,0.32001830332974496
12.527839643652563,0.3274637419646738
12.561247216035635,0.2620968372164567
12.59465478841871,0.13221523326127774
12.628062360801783,-0.02467240860058111
12.661469933184856,-0.15764935750203324
12.69487750556793,-0.2242390416979006
12.728285077951004,-0.20771208252682674
12.761692650334076,-0.12242565098240403
12.795100222717151,-0.005974634364554344
12.828507795100224,0.09723296012681873
12.861915367483297,0.1534393850792853
12.895322939866372,0.1511402317976794
12.928730512249444,0.10311913214677615
12.962138084632517,0.03921277051997596
12.995545657015592,-0.006623791631558684
13.028953229398665,-0.009759826342587664
13.062360801781738,0.036064136455941774
13.095768374164813,0.1170584699021265
13.129175946547885,0.20518449221068824
13.162583518930958,0.26877539680673607
13.195991091314033,0.2837005037922049
13.229398663697106,0.24092981182403594
13.262806236080179,0.14810995553177375
13.296213808463254,0.025315466525620584
13.329621380846326,-0.10262750774753363
13.3630289532294,-0.21385469490930603
13.396436525612474,-0.29439927824596046
13.429844097995547,-0.33926147692471337
13.46325167037862,-0.3504322595373437
13.496659242761694,-0.3337753865948588
13.530066815144767,-0.29649080284073615
13.56347438752784,-0.24583000391069118
13.596881959910915,-0.1887234528613622
13.630289532293988,-0.13171634328173532
13.66369710467706,-0.08101847128001374
13.697104677060135,-0.04282146662466966
13.730512249443208,-0.023700961846716478
13.763919821826281,-0.030141190725616766
13.797327394209356,-0.06601963589059967
13.830734966592429,-0.1280952494951455
13.864142538975502,-0.20173047055636065
13.897550111358576,-0.2605397010045491
13.93095768374165,-0.272672691267648
13.964365256124722,-0.21287664195303058
13.997772828507797,-0.07531549311138974
14.03118040089087,0.11973682642216042
14.064587973273943,0.3300510085221762
14.097995545657017,0.5058420899341347
14.13140311804009,0.6083114432080822
14.164810690423163,0.6237207153236598
14.198218262806238,0.5662898469693473
14.23162583518931,0.4685604886463305
14.265033407572384,0.3640419530507238
14.298440979955458,0.27096665791524494
14.331848552338531,0.18570137617553764
14.365256124721604,0.08955053236259612
14.398663697104679,-0.03453902607170859
14.432071269487752,-0.18472939564664398
14.465478841870825,-0.3328738067037595
14.4988864142539,-0.4324747175767176
14.532293986636972,-0.43927976916794065
14.565701559020045,-0.3345896740083258
14.59910913140312,-0.1392987378459042
14.632516703786193,0.08906945519632149
14.665924276169266,0.2758414070741725
14.69933184855234,0.3568308389325594
14.732739420935413,0.3021923262534938
14.766146993318486,0.1267420289823695
14.79955456570156,-0.11652979596406639
14.832962138084634,-0.3557424384358485
14.866369710467707,-0.5236117367730125
14.899777282850781,-0.5764268498615137
14.933184855233854,-0.503378897374684
14.966592427616927,-0.32582789903697884
15.0,-0.08936216234533573
