Time (s),Filtered Signal
0.0,-0.029190450503421575
0.033370165745856356,-0.7574533721636018
0.06674033149171271,-1.3555474180593172
0.10011049723756907,-1.7317303072405237
0.13348066298342542,-1.854846727203572
0.16685082872928178,-1.754755506347984
0.20022099447513814,-1.5023745497583623
0.2335911602209945,-1.1797749021511068
0.26696132596685085,-0.8535412086610138
0.30033149171270723,-0.5610683411650099
0.33370165745856356,-0.3120923473077595
0.3670718232044199,-0.1006686073695812
0.4004419889502763,0.08069985823013633
0.43381215469613266,0.23210477603238283
0.467182320441989,0.3456960648357249
0.5005524861878453,0.412094213632522
0.5339226519337017,0.42903336378097917
0.5672928176795581,0.4068389262410816
0.6006629834254145,0.36722847996775065
0.6340331491712707,0.33547114567245045
0.6674033149171271,0.32958556572298775
0.7007734806629835,0.35220218578617757
0.7341436464088398,0.3897280801600118
0.7675138121546962,0.41974361398146304
0.8008839779005525,0.42301818404145664
0.8342541436464089,0.3938021752276699
0.8676243093922653,0.3428691533354411
0.9009944751381216,0.29174686550246304
0.934364640883978,0.26135758889993654
0.9677348066298344,0.261133073876921
1.0011049723756906,0.28409461458024227
1.0344751381215471,0.3099476068788153
1.0678453038674034,0.3140144843832383
1.1012154696132597,0.27713973253919383
1.1345856353591162,0.19183745420181608
1.1679558011049724,0.06258288234111786
1.201325966850829,-0.0983969206113122
1.2346961325966852,-0.27624744147050717
1.2680662983425415,-0.4561920263762389
1.301436464088398,-0.6229223578100518
1.3348066298342542,-0.7586801035105958
1.3681767955801105,-0.8433237313894119
1.401546961325967,-0.8583389547408262
1.4349171270718233,-0.7936415601366854
1.4682872928176796,-0.6533639249610556
1.501657458563536,-0.4566902285519884
1.5350276243093923,-0.23258530866449642
1.5683977900552488,-0.01116634583591288
1.601767955801105,0.183324796787768
1.6351381215469614,0.3342830727557326
1.6685082872928179,0.42964182290356606
1.7018784530386741,0.45823286831430154
1.7352486187845306,0.4106127063591317
1.768618784530387,0.2859885062769123
1.8019889502762432,0.1015939739547811
1.8353591160220997,-0.10260202950972279
1.868729281767956,-0.2698807737812951
1.9020994475138122,-0.3439791686103375
1.9354696132596687,-0.29118797576374067
1.968839779005525,-0.11694132186635953
2.0022099447513813,0.13210647393968022
2.0355801104972375,0.38306153317073577
2.0689502762430942,0.5631672504637323
2.1023204419889505,0.6262864405154267
2.135690607734807,0.5680526066985636
2.169060773480663,0.42357326884655094
2.2024309392265193,0.2495894763316536
2.235801104972376,0.09980371107793788
2.2691712707182323,0.004587182610596437
2.3025414364640886,-0.03645804658450184
2.335911602209945,-0.04707800288729061
2.369281767955801,-0.057151388144178784
2.402651933701658,-0.08506329286122301
2.436022099447514,-0.12859725070516262
2.4693922651933704,-0.16835814567984994
2.5027624309392267,-0.18094576770593956
2.536132596685083,-0.1540230400869707
2.5695027624309392,-0.09473627718912273
2.602872928176796,-0.026903381600884284
2.636243093922652,0.021297137848837213
2.6696132596685085,0.0322322069524959
2.7029834254143648,0.008150111785156886
2.736353591160221,-0.03001063660433281
2.7697237569060777,-0.05349162565477447
2.803093922651934,-0.04025054911797604
2.8364640883977903,0.014554719194150446
2.8698342541436466,0.09723367993954057
2.903204419889503,0.18312795113086014
2.936574585635359,0.2478838548309267
2.969944751381216,0.2756506090809342
3.003314917127072,0.26011064829921926
3.0366850828729284,0.19949534456566453
3.0700552486187846,0.09106374600900838
3.103425414364641,-0.06915730678566076
3.1367955801104976,-0.2797453354794353
3.170165745856354,-0.524639787572486
3.20353591160221,-0.768849728435398
3.2369060773480665,-0.9645780140923108
3.2702762430939227,-1.0667691247418079
3.3036464088397794,-1.050586769929042
3.3370165745856357,-0.9213214582123176
3.370386740331492,-0.7111843478405862
3.4037569060773483,-0.46477372046205323
3.4371270718232045,-0.22101850520459232
3.4704972375690613,-0.0005902235050038928
3.5038674033149175,0.1960783866970553
3.537237569060774,0.3811093886797267
3.57060773480663,0.5673913875782645
3.6039779005524863,0.7591570140840819
3.6373480662983426,0.9487989464333197
3.6707182320441993,1.1197730525702525
3.7040883977900556,1.2524444281122147
3.737458563535912,1.3291987484523051
3.770828729281768,1.3368639076424849
3.8041988950276244,1.2670041325371406
3.837569060773481,1.1162234594008937
3.8709392265193374,0.8882342694721566
3.9043093922651937,0.5973780981904311
3.93767955801105,0.2709699591350523
3.9710497237569062,-0.0529147971831267
4.0044198895027625,-0.3337865046486486
4.037790055248619,-0.5411330540986351
4.071160220994475,-0.6654619425897162
4.104530386740332,-0.7220028370608154
4.1379005524861885,-0.7440444090563905
4.171270718232044,-0.7680065221852861
4.204640883977901,-0.8168125014291718
4.238011049723757,-0.8893908570010706
4.271381215469614,-0.961425317223999
4.30475138121547,-0.9971369793356296
4.338121546961326,-0.9666043390503656
4.371491712707183,-0.860503653613123
4.404861878453039,-0.6954187337064702
4.438232044198895,-0.5073516332252891
4.471602209944752,-0.33657039045054227
4.504972375690608,-0.2108424148094928
4.538342541436465,-0.13465211688558262
4.5717127071823205,-0.08907732071354106
4.605082872928177,-0.042109385469426844
4.638453038674034,0.035360331432139507
4.67182320441989,0.15495710741247737
4.7051933701657465,0.30395382921898817
4.738563535911602,0.4491511491198141
4.771933701657459,0.5501656882576833
4.805303867403316,0.5769647988431343
4.8386740331491715,0.5245629284859051
4.872044198895028,0.41847202611874207
4.905414364640884,0.307696063010561
4.938784530386741,0.24686212883675115
4.972154696132597,0.2738338517598387
5.005524861878453,0.39187382985169394
5.03889502762431,0.5645719503935784
5.072265193370166,0.7271135103293471
5.105635359116023,0.8105777343423608
5.1390055248618784,0.7697794297567216
5.172375690607735,0.6027739127682906
5.205745856353592,0.35312455829431955
5.239116022099448,0.09339011081826198
5.272486187845304,-0.10330606778856184
5.30585635359116,-0.19136582755100176
5.339226519337017,-0.16847194793067047
5.372596685082874,-0.07279323193011594
5.4059668508287295,0.03614105048020331
5.439337016574586,0.10362427171475919
5.472707182320442,0.10126758801043664
5.506077348066299,0.035028723221379426
5.5394475138121555,-0.06232608323380052
5.572817679558011,-0.14935117096085068
5.606187845303868,-0.19543208786833113
5.639558011049724,-0.19278077600717403
5.672928176795581,-0.15640590982453953
5.706298342541437,-0.11372519823837728
5.739668508287293,-0.09043725218881832
5.77303867403315,-0.1005953337280024
5.806408839779006,-0.14584959983303705
5.839779005524862,-0.2230496867336825
5.873149171270718,-0.3339651474160142
5.906519337016575,-0.4890587623700623
5.939889502762432,-0.7005592866459049
5.9732596685082875,-0.9670964196941474
6.006629834254144,-1.2589073954859464
6.04,-1.5146835351171828
6.073370165745857,-1.6563754358882403
6.1067403314917135,-1.618573762716182
6.140110497237569,-1.3796284380160087
6.173480662983426,-0.9781893315325936
6.206850828729282,-0.5041762451075569
6.240220994475139,-0.06528899989111318
6.273591160220995,0.2570407745993504
6.306961325966851,0.4418066915964246
6.340331491712708,0.5358376832682465
6.373701657458564,0.6299231736326976
6.40707182320442,0.8140781634771578
6.440441988950277,1.1324613834685877
6.473812154696133,1.5586722411517941
6.50718232044199,2.0025287582850875
6.5405524861878455,2.34485792669474
6.573922651933702,2.4843934922413853
6.607292817679559,2.3762649065750443
6.640662983425415,2.0464311727579245
6.674033149171271,1.577872100532101
6.707403314917127,1.0766532251699046
6.740773480662984,0.6335148956364655
6.774143646408841,0.29661679719799
6.8075138121546965,0.0645148339995717
6.840883977900553,-0.10093228122867975
6.874254143646409,-0.2500038268473701
6.907624309392266,-0.42079020164688924
6.9409944751381225,-0.625294230686946
6.974364640883978,-0.8502736081484735
7.007734806629835,-1.0697831342139374
7.041104972375691,-1.2609876280426546
7.074475138121548,-1.4140803951390246
7.107845303867403,-1.5314691952012576
7.14121546961326,-1.618354827970928
7.174585635359117,-1.6722751531319828
7.207955801104973,-1.6796793140880961
7.241325966850829,-1.6227022821214505
7.274696132596685,-1.492119103149203
7.308066298342542,-1.297725653654214
7.341436464088399,-1.0684021450802939
7.3748066298342545,-0.8404069480352969
7.408176795580111,-0.6400429270456841
7.441546961325967,-0.4708375160248099
7.474917127071824,-0.31313811491189814
7.5082872928176805,-0.1368140824288589
7.541657458563536,0.08007332312351018
7.575027624309393,0.337464022030996
7.608397790055249,0.6124394631804976
7.641767955801106,0.8717423101356362
7.675138121546962,1.0900454370206836
7.708508287292818,1.2627094964063805
7.741878453038675,1.4048841213198031
7.775248618784531,1.5369968139905856
7.808618784530387,1.6651478576346763
7.841988950276244,1.7685871491657064
7.8753591160221,1.802961310388689
7.908729281767957,1.7192744485283613
7.9420994475138125,1.489477579453203
7.975469613259669,1.125402595455723
8.008839779005525,0.6807251383120395
8.042209944751383,0.23412224415903268
8.075580110497238,-0.13882880892333915
8.108950276243094,-0.392133435092599
8.14232044198895,-0.5226473188662806
8.175690607734808,-0.5653333908936478
8.209060773480664,-0.5741825011931304
8.24243093922652,-0.5983328078427522
8.275801104972377,-0.66374877274984
8.309171270718233,-0.766963101901181
8.342541436464089,-0.8813132999806149
8.375911602209946,-0.9708667945520892
8.409281767955802,-1.0049893526308478
8.442651933701658,-0.9677623459705402
8.476022099447514,-0.8600363418592488
8.509392265193371,-0.6957238203073098
8.542762430939227,-0.49604626985575123
8.576132596685083,-0.2850683755789293
8.60950276243094,-0.08764780553917727
8.642872928176796,0.07149085120841918
8.676243093922652,0.1699538485304108
8.709613259668508,0.19269065997701623
8.742983425414366,0.13902545853095366
8.776353591160222,0.028390640685871042
8.809723756906077,-0.0996726361871533
8.843093922651935,-0.1942443893870879
8.87646408839779,-0.2095556989552109
8.909834254143647,-0.12364996749986545
8.943204419889504,0.049304852136844796
8.97657458563536,0.26017410585640305
9.009944751381216,0.4409903537242069
9.043314917127072,0.5302927529473245
9.07668508287293,0.49694772238402535
9.110055248618785,0.3520350090328922
9.143425414364641,0.14390969713395968
9.176795580110499,-0.060748750394222575
9.210165745856354,-0.20130288858966255
9.24353591160221,-0.24308125747639153
9.276906077348068,-0.18610198806740394
9.310276243093924,-0.06101414614119141
9.34364640883978,0.08467029709044345
9.377016574585635,0.20432655912442435
9.410386740331493,0.26773510991440486
9.443756906077349,0.26938584589317166
9.477127071823205,0.2271051361709613
9.510497237569062,0.17192219006631573
9.543867403314918,0.13350181761984858
9.577237569060774,0.12754950252604785
9.610607734806631,0.1510150668222971
9.643977900552487,0.1873710571441628
9.677348066298343,0.21904990867650842
9.710718232044199,0.23990526389988828
9.744088397790057,0.25988960511504616
9.777458563535912,0.2979417110372278
9.810828729281768,0.3657870645261954
9.844198895027626,0.45146694949141597
9.877569060773482,0.5132717838358114
9.910939226519337,0.4906471625060749
9.944309392265193,0.3300432410929204
9.97767955801105,0.01485355666780901
10.011049723756907,-0.41550650110493786
10.044419889502763,-0.8688773249227679
10.07779005524862,-1.2276575056909866
10.111160220994476,-1.3903401493581793
10.144530386740332,-1.3101387558602116
10.17790055248619,-1.0139940402423036
10.211270718232045,-0.5933560977221369
10.244640883977901,-0.17022798766101066
10.278011049723757,0.14741125025284574
10.311381215469615,0.30231425988817384
10.34475138121547,0.30220411534311115
10.378121546961326,0.20726792281069423
10.411491712707184,0.09845569740367602
10.44486187845304,0.04184856397290394
10.478232044198895,0.06457652897693937
10.511602209944753,0.15100122840176008
10.544972375690609,0.25795481406845566
10.578342541436465,0.33958410875177497
10.61171270718232,0.36925182492756814
10.645082872928178,0.34878873740374766
10.678453038674034,0.3023488961891514
10.71182320441989,0.25976074313096464
10.745193370165747,0.23904220143459637
10.778563535911603,0.23749824637284275
10.811933701657459,0.23575624514493315
10.845303867403315,0.21181292208867808
10.878674033149172,0.15652946190993852
10.912044198895028,0.08119660768868671
10.945414364640884,0.012407327253568001
10.978784530386742,-0.023044818121421617
11.012154696132598,-0.01456260269379374
11.045524861878453,0.024130294386289726
11.078895027624311,0.06002739732959655
11.112265193370167,0.056531266430766246
11.145635359116023,-0.008488759670597739
11.179005524861878,-0.13156098282782852
11.212375690607736,-0.28469633266672817
11.245745856353592,-0.4275716241993696
11.279116022099448,-0.5243910062818898
11.312486187845305,-0.5573290557283184
11.345856353591161,-0.5307766726646708
11.379226519337017,-0.46540625798613117
11.412596685082875,-0.38592598114145865
11.44596685082873,-0.3090551281731132
11.479337016574586,-0.23754170590592655
11.512707182320442,-0.16242575477941146
11.5460773480663,-0.07123731904389931
11.579447513812156,0.043073565786834016
11.612817679558011,0.1774100558208675
11.646187845303869,0.3198963784648401
11.679558011049725,0.45541976909078574
11.71292817679558,0.571193497069658
11.746298342541436,0.6588100564277775
11.779668508287294,0.7122017875216865
11.81303867403315,0.7241895051620745
11.846408839779006,0.6855955425400281
11.879779005524863,0.5891522006657589
11.91314917127072,0.43664115495121286
11.946519337016575,0.24445835202953115
11.979889502762433,0.04265892073374742
12.013259668508288,-0.1339030976492624
12.046629834254144,-0.25854511008920855
12.08,-0.3228024047580327
12.113370165745858,-0.33774568129741783
12.146740331491714,-0.3259386308655882
12.18011049723757,-0.30911570487808326
12.213480662983427,-0.2990055665775522
12.246850828729283,-0.2961437387441696
12.280220994475139,-0.29590545146937614
12.313591160220996,-0.29628778302091086
12.346961325966852,-0.3013324244010261
12.380331491712708,-0.31771525580916454
12.413701657458564,-0.34720927615584307
12.447071823204421,-0.3808292841448112
12.480441988950277,-0.39947571164685575
12.513812154696133,-0.3816247016109575
12.54718232044199,-0.31395317061773637
12.580552486187846,-0.19871876661775403
12.613922651933702,-0.05347048209667667
12.64729281767956,0.09687274457916067
12.680662983425416,0.23105814194546245
12.714033149171271,0.33928889972765525
12.747403314917127,0.4233213319405183
12.780773480662985,0.48906465380283265
12.81414364640884,0.5366046390160383
12.847513812154697,0.5545502268163598
12.880883977900554,0.5234122909784619
12.91425414364641,0.427318776456033
12.947624309392266,0.2677672858489107
12.980994475138122,0.07079726570102073
13.01436464088398,-0.11824194284133545
13.047734806629835,-0.2514269727730837
13.081104972375691,-0.29871996952458824
13.114475138121549,-0.2615279784432706
13.147845303867404,-0.1718923793889643
13.18121546961326,-0.07736329100613946
13.214585635359118,-0.01922097993071693
13.247955801104974,-0.015068869333806521
13.28132596685083,-0.054160927997493856
13.314696132596685,-0.10684296917229963
13.348066298342543,-0.14219659980857316
13.381436464088399,-0.1442736212816733
13.414806629834255,-0.11882360705923732
13.448176795580112,-0.08785941938542224
13.481546961325968,-0.07563768711159519
13.514917127071824,-0.09356445626374493
13.548287292817681,-0.13162129693720734
13.581657458563537,-0.16053444358287056
13.615027624309393,-0.14386133220699973
13.648397790055249,-0.05469162949697788
13.681767955801106,0.11039934106277897
13.715138121546962,0.32632929068611843
13.748508287292818,0.5457224913318561
13.781878453038676,0.7138289303024331
13.815248618784532,0.7860860988974279
13.848618784530387,0.7416194024283106
13.881988950276245,0.5882665823884464
13.9153591160221,0.35846513001988123
13.948729281767957,0.09861673145698269
13.982099447513813,-0.14389168589787438
14.01546961325967,-0.33204173537506315
14.048839779005526,-0.4462602407979514
14.082209944751382,-0.4862525712431107
14.11558011049724,-0.4681647518802832
14.148950276243095,-0.41865972344942237
14.182320441988951,-0.36773737957925295
14.215690607734807,-0.34170263495960956
14.249060773480664,-0.35710252723486274
14.28243093922652,-0.4162833862209121
14.315801104972376,-0.505564003109356
14.349171270718234,-0.597326235773528
14.38254143646409,-0.6567814379835392
14.415911602209945,-0.652452878262273
14.449281767955803,-0.5671832695771917
14.482651933701659,-0.4051645968450949
14.516022099447515,-0.19135465875882948
14.54939226519337,0.03724898605660265
14.582762430939228,0.24509004351644742
14.616132596685084,0.4103296707685369
14.64950276243094,0.5302959528500444
14.682872928176797,0.6177246911865815
14.716243093922653,0.6899374310327115
14.749613259668509,0.7565943367960439
14.782983425414367,0.8123371965861718
14.816353591160222,0.8381723378614612
14.849723756906078,0.8110602573679069
14.883093922651934,0.7170076036016426
14.916464088397792,0.5610192657210056
14.949834254143648,0.3685660704560446
14.983204419889503,0.17725484703123293
15.016574585635361,0.022272759406938864
15.049944751381217,-0.0775442135863217
15.083314917127073,-0.12629542562922846
15.116685082872928,-0.14711879944632583
15.150055248618786,-0.16988433090947355
15.183425414364642,-0.2166067299201583
15.216795580110498,-0.2915300143374336
15.250165745856355,-0.38018500247491716
15.283535911602211,-0.45721020705802645
15.316906077348067,-0.4987517222121708
15.350276243093925,-0.4935972464410925
15.38364640883978,-0.4482348059875809
15.417016574585636,-0.38391391379667805
15.450386740331492,-0.32717365614416494
15.48375690607735,-0.2979452151025068
15.517127071823205,-0.3003541551038122
15.550497237569061,-0.32031884944567
15.583867403314919,-0.33120224004458443
15.617237569060775,-0.30519794321352217
15.65060773480663,-0.22547250722092443
15.683977900552488,-0.09374201727125892
15.717348066298344,0.06983582945433525
15.7507182320442,0.23398509602600231
15.784088397790056,0.3672636528419471
15.817458563535913,0.44787278716139284
15.85082872928177,0.46864970071332535
15.884198895027625,0.4361502389833721
15.917569060773483,0.3653897453021529
15.950939226519338,0.2732944086593009
15.984309392265194,0.1737499463031922
16.01767955801105,0.07576337566673223
16.051049723756908,-0.015404611517728458
16.084419889502765,-0.0954865331341263
16.11779005524862,-0.1586879638984425
16.151160220994477,-0.19708088938497587
16.18453038674033,-0.20274895530509987
16.21790055248619,-0.17208573623262133
16.251270718232046,-0.11011217441605424
16.2846408839779,-0.03199135764766887
16.318011049723758,0.04016243261993595
16.351381215469615,0.08477161067395945
16.38475138121547,0.08973285826669125
16.418121546961327,0.0588509168579254
16.451491712707185,0.012638819162741403
16.48486187845304,-0.017453237551003455
16.518232044198896,0.0001317781470081741
16.551602209944754,0.08453085812663651
16.584972375690608,0.23250087975296485
16.618342541436466,0.4150862005871081
16.651712707182323,0.5834314655365225
16.685082872928177,0.6832843885369015
16.718453038674035,0.6739738242162012
16.751823204419892,0.5447118469100459
16.785193370165747,0.32087348842754493
16.818563535911604,0.056364749001338095
16.851933701657458,-0.18580252177565715
16.885303867403316,-0.35691025621925204
16.918674033149173,-0.43976781327885955
16.952044198895027,-0.45214212120191954
16.985414364640885,-0.4350117955405685
17.018784530386743,-0.43128845597733045
17.052154696132597,-0.46501452768754076
17.085524861878454,-0.5306486452004168
17.118895027624312,-0.5970761132315623
17.152265193370166,-0.6238556913985895
17.185635359116024,-0.5814462176126278
17.21900552486188,-0.4656045449774963
17.252375690607735,-0.29950394884121406
17.285745856353593,-0.12348591043515796
17.31911602209945,0.021746752707933803
