Time (s),Filtered Signal
0.0,-0.01884239215397489
0.033370165745856356,-0.022409258599658165
0.06674033149171271,-0.02408461895973269
0.10011049723756907,-0.022554437061193214
0.13348066298342542,-0.016935676094038288
0.16685082872928178,-0.0068698298279328196
0.20022099447513814,0.0074525010281574575
0.2335911602209945,0.02529340253544353
0.26696132596685085,0.045365647555531435
0.30033149171270723,0.06583966549625368
0.33370165745856356,0.08442284519263897
0.3670718232044199,0.09859865179113364
0.4004419889502763,0.10607732654579625
0.43381215469613266,0.1054057417101981
0.467182320441989,0.09655037153707129
0.5005524861878453,0.08118509174278049
0.5339226519337017,0.062460885292388156
0.5672928176795581,0.044220859874646176
0.6006629834254145,0.029877458680504468
0.6340331491712707,0.021361199390985585
0.6674033149171271,0.01857048466773641
0.7007734806629835,0.019571114365813547
0.7341436464088398,0.021485241749188238
0.7675138121546962,0.021711619760977012
0.8008839779005525,0.018968542208081158
0.8342541436464089,0.013719262664028276
0.8676243093922653,0.007802852659691339
0.9009944751381216,0.0034411455428033175
0.934364640883978,0.0020715880987303534
0.9677348066298344,0.003536253348373182
1.0011049723756906,0.005994991663019645
1.0344751381215471,0.006597143284533914
1.0678453038674034,0.0026007760942199716
1.1012154696132597,-0.007558833851757189
1.1345856353591162,-0.02368830793832649
1.1679558011049724,-0.0439128157488613
1.201325966850829,-0.06526548907703127
1.2346961325966852,-0.08446138398428217
1.2680662983425415,-0.0985618212932289
1.301436464088398,-0.10542215032446973
1.3348066298342542,-0.1039911056152662
1.3681767955801105,-0.09455420539519988
1.401546961325967,-0.07888400706230066
1.4349171270718233,-0.06011221349180078
1.4682872928176796,-0.04213872379749513
1.501657458563536,-0.02859957558349245
1.5350276243093923,-0.021719303707320285
1.5683977900552488,-0.021559392281645356
1.601767955801105,-0.026075586834719652
1.6351381215469614,-0.03202365836739894
1.6685082872928179,-0.03630942205712149
1.7018784530386741,-0.03713631388960818
1.7352486187845306,-0.034419800435772675
1.768618784530387,-0.029345525031848414
1.8019889502762432,-0.02340232975099298
1.8353591160220997,-0.017461897717085926
1.868729281767956,-0.011387114469589042
1.9020994475138122,-0.004311324177598885
1.9354696132596687,0.0046501496865596305
1.968839779005525,0.015706997172886733
2.0022099447513813,0.028117225670259007
2.0355801104972375,0.040462652758071586
2.0689502762430942,0.051302859257396194
2.1023204419889505,0.059844115751162656
2.135690607734807,0.06627537557050715
2.169060773480663,0.07161559075960598
2.2024309392265193,0.07717193705442542
2.235801104972376,0.08389420973274642
2.2691712707182323,0.09194015215782365
2.3025414364640886,0.10063731677173107
2.335911602209945,0.10881614479257833
2.369281767955801,0.11530929761076726
2.402651933701658,0.11935320545949502
2.436022099447514,0.1207101728950903
2.4693922651933704,0.11949926887818378
2.5027624309392267,0.11588608495718843
2.536132596685083,0.10984961650626468
2.5695027624309392,0.10118525560745993
2.602872928176796,0.0897490222228063
2.636243093922652,0.07578349088041503
2.6696132596685085,0.060085785886548705
2.7029834254143648,0.0438401858214816
2.736353591160221,0.028124728141207235
2.7697237569060777,0.013318063640196843
2.803093922651934,-0.0012487724199615313
2.8364640883977903,-0.017122147320102418
2.8698342541436466,-0.03601763793258338
2.903204419889503,-0.05887386267995775
2.936574585635359,-0.08517478774989981
2.969944751381216,-0.11299365396084017
3.003314917127072,-0.13987615092244468
3.0366850828729284,-0.16420136090823936
3.0700552486187846,-0.186286295223084
3.103425414364641,-0.208474347985097
3.1367955801104976,-0.2338670906536246
3.170165745856354,-0.2640944003420681
3.20353591160221,-0.29723131109829404
3.2369060773480665,-0.32723751017230446
3.2702762430939227,-0.3458180039154819
3.3036464088397794,-0.3464211164126733
3.3370165745856357,-0.32867655243384575
3.370386740331492,-0.3007053300341594
3.4037569060773483,-0.2771089449296247
3.4371270718232045,-0.27224668094182314
3.4704972375690613,-0.29101425713082557
3.5038674033149175,-0.321453683513861
3.537237569060774,-0.3337898099944094
3.57060773480663,-0.2882748578719319
3.6039779005524863,-0.1501971917899254
3.6373480662983426,0.09356586082881402
3.6707182320441993,0.42381873174720214
3.7040883977900556,0.7897635749703975
3.737458563535912,1.1220692182735976
3.770828729281768,1.3537141250274782
3.8041988950276244,1.4404820842836543
3.837569060773481,1.3731339567639176
3.8709392265193374,1.1769708538900328
3.9043093922651937,0.8999005447160779
3.93767955801105,0.5947008934505159
3.9710497237569062,0.30297237940057886
4.0044198895027625,0.04670380670125221
4.037790055248619,-0.17059722818839348
4.071160220994475,-0.35565428547903083
4.104530386740332,-0.5152773883323603
4.1379005524861885,-0.6495679559836283
4.171270718232044,-0.7512380956871731
4.204640883977901,-0.810298605190541
4.238011049723757,-0.8206941334214567
4.271381215469614,-0.7848951541368127
4.30475138121547,-0.7140480202948201
4.338121546961326,-0.6239436507611987
4.371491712707183,-0.5292492931388056
4.404861878453039,-0.43904833112777397
4.438232044198895,-0.35563819778258493
4.471602209944752,-0.27657472448898873
4.504972375690608,-0.1983108958092063
4.538342541436465,-0.11929318814536052
4.5717127071823205,-0.04111359109407184
4.605082872928177,0.03235443786889022
4.638453038674034,0.09683375124783308
4.67182320441989,0.14926814288775422
4.7051933701657465,0.18845084020154657
4.738563535911602,0.21473413005724032
4.771933701657459,0.22942992886173777
4.805303867403316,0.23446794178084357
4.8386740331491715,0.23241312016739107
4.872044198895028,0.22648579856955428
4.905414364640884,0.22014555531041852
4.938784530386741,0.21614811191584443
4.972154696132597,0.21548769142805999
5.005524861878453,0.21689988605275237
5.03889502762431,0.217389561572425
5.072265193370166,0.21366159134478513
5.105635359116023,0.20374068848782734
5.1390055248618784,0.18787298590283294
5.172375690607735,0.1681675195819994
5.205745856353592,0.14716281104860268
5.239116022099448,0.12615632640197366
5.272486187845304,0.1043130042084252
5.30585635359116,0.07915355046641621
5.339226519337017,0.04823846260932251
5.372596685082874,0.011144838078292857
5.4059668508287295,-0.02941380205726406
5.439337016574586,-0.06808761274066925
5.472707182320442,-0.09892778986479821
5.506077348066299,-0.11801030734935983
5.5394475138121555,-0.12528633141535694
5.572817679558011,-0.1246171826900352
5.606187845303868,-0.12187410096929954
5.639558011049724,-0.12202907673695618
5.672928176795581,-0.1267420193848041
5.706298342541437,-0.13370984345244427
5.739668508287293,-0.1381008345768362
5.77303867403315,-0.13528140828944674
5.806408839779006,-0.12337687112828417
5.839779005524862,-0.10434405259497148
5.873149171270718,-0.08306105773376489
5.906519337016575,-0.06497894014986941
5.939889502762432,-0.05357430122928372
5.9732596685082875,-0.048856642069317724
6.006629834254144,-0.047564658389925935
6.04,-0.04480380798143594
6.073370165745857,-0.03621553220547552
6.1067403314917135,-0.019650376139373548
6.140110497237569,0.004264217518901437
6.173480662983426,0.03262538493214007
6.206850828729282,0.06131596102253156
6.240220994475139,0.08604564476285255
6.273591160220995,0.10306869396700742
6.306961325966851,0.109629568518413
6.340331491712708,0.10435233712910168
6.373701657458564,0.08767485616156144
6.40707182320442,0.06216655131694805
6.440441988950277,0.03239729800411231
6.473812154696133,0.004112580065224662
6.50718232044199,-0.017202228648226153
6.5405524861878455,-0.027910942694403255
6.573922651933702,-0.0273292802591023
6.607292817679559,-0.01784318672160928
6.640662983425415,-0.003952737079032336
6.674033149171271,0.009381251427021078
6.707403314917127,0.01841740853636887
6.740773480662984,0.02168567664545807
6.774143646408841,0.02005919520077978
6.8075138121546965,0.01593335128980406
6.840883977900553,0.01196735209846239
6.874254143646409,0.009977948325379222
6.907624309392266,0.010428316480413882
6.9409944751381225,0.01261734234358098
6.974364640883978,0.01532646069339369
7.007734806629835,0.01750086271893634
7.041104972375691,0.018609123731754575
7.074475138121548,0.01857862076907037
7.107845303867403,0.017478546866996795
7.14121546961326,0.015250160342218518
7.174585635359117,0.011698850964936738
7.207955801104973,0.006739881099254018
7.241325966850829,0.0006910779010955857
7.274696132596685,-0.005634263523271433
7.308066298342542,-0.011145639235131247
7.341436464088399,-0.014908170517188114
7.3748066298342545,-0.016554749861384166
7.408176795580111,-0.016455750937372345
7.441546961325967,-0.01556700923411706
7.474917127071824,-0.015047121316088463
7.5082872928176805,-0.01583012994409732
7.541657458563536,-0.018320811190340142
7.575027624309393,-0.022287107978438372
7.608397790055249,-0.026934320605043884
7.641767955801106,-0.031109625548930354
7.675138121546962,-0.03359492290001229
7.708508287292818,-0.033451489788469124
7.741878453038675,-0.030345899982087605
7.775248618784531,-0.02473438102378536
7.808618784530387,-0.017778582031967756
7.841988950276244,-0.010958269600364298
7.8753591160221,-0.005507101384389499
7.908729281767957,-0.001924881598762322
7.9420994475138125,0.00018606997319545955
7.975469613259669,0.0018668274101832805
8.008839779005525,0.004251892895148118
8.042209944751383,0.00799449996689302
8.075580110497238,0.01293987992998855
8.108950276243094,0.018183401908467116
8.14232044198895,0.022460780085579772
8.175690607734808,0.024672240761468685
8.209060773480664,0.02430254699514522
8.24243093922652,0.021567990127492418
8.275801104972377,0.017257775150022702
8.309171270718233,0.012376292664216844
8.342541436464089,0.00777232168539718
8.375911602209946,0.0039250514702434776
8.409281767955802,0.0009554444229582182
8.442651933701658,-0.0011961581747796505
8.476022099447514,-0.002563215121722129
8.509392265193371,-0.003040754853197426
8.542762430939227,-0.0024103013342233943
8.576132596685083,-0.00046128834674597754
8.60950276243094,0.002864132300280252
8.642872928176796,0.007357103725895437
8.676243093922652,0.012483172314658422
8.709613259668508,0.017396323895187964
8.742983425414366,0.02105470825033349
8.776353591160222,0.0224573526736663
8.809723756906077,0.02096563133988813
8.843093922651935,0.016593947768504938
8.87646408839779,0.01011293829596783
8.909834254143647,0.0028582167846369472
8.943204419889504,-0.003727094745164986
8.97657458563536,-0.008637834615348542
9.009944751381216,-0.011690653861422614
9.043314917127072,-0.013556077254623298
9.07668508287293,-0.015411919844642455
9.110055248618785,-0.018368415489788112
9.143425414364641,-0.022912615706410025
9.176795580110499,-0.02859692089940134
9.210165745856354,-0.03408358085211611
9.24353591160221,-0.037520714315980794
9.276906077348068,-0.03712278862634256
9.310276243093924,-0.03178044085430291
9.34364640883978,-0.021523284334877667
9.377016574585635,-0.007691991133229012
9.410386740331493,0.007261568590381267
9.443756906077349,0.02033547222229928
9.477127071823205,0.02878000922027879
9.510497237569062,0.03092420815346621
9.543867403314918,0.026766079126297238
9.577237569060774,0.018104600427384116
9.610607734806631,0.008112218801503424
9.643977900552487,0.00041730536749853294
9.677348066298343,-0.0020636990375304375
9.710718232044199,0.001813794295737278
9.744088397790057,0.010851061855907345
9.777458563535912,0.02169840459635375
9.810828729281768,0.029854452522057318
9.844198895027626,0.031212946603824232
9.877569060773482,0.023637521077762694
9.910939226519337,0.00795565643382597
9.944309392265193,-0.012080705431377856
9.97767955801105,-0.0309480351317814
10.011049723756907,-0.04324633848179876
10.044419889502763,-0.04562809563659369
10.07779005524862,-0.03799406668586801
10.111160220994476,-0.02346118177630269
10.144530386740332,-0.007109730077364107
10.17790055248619,0.0059710977580352265
10.211270718232045,0.01253502579563977
10.244640883977901,0.012195957834850807
10.278011049723757,0.0072638870465562356
10.311381215469615,0.0015572135866933703
10.34475138121547,-0.0012584613491068318
10.378121546961326,0.0008747789858153792
10.411491712707184,0.0076923895660613835
10.44486187845304,0.01684130102596809
10.478232044198895,0.024906103243795996
10.511602209944753,0.028791792470389887
10.544972375690609,0.026919080088908462
10.578342541436465,0.019782200260120925
10.61171270718232,0.00968188214254811
10.645082872928178,-0.00022105234914368728
10.678453038674034,-0.007119157719056066
10.71182320441989,-0.009541824187641547
10.745193370165747,-0.00774477039184929
10.778563535911603,-0.0034226543981969787
10.811933701657459,0.0010520676336906313
10.845303867403315,0.0035068871011397183
10.878674033149172,0.0026376075041505778
10.912044198895028,-0.0016972966184298386
10.945414364640884,-0.008545291312101728
10.978784530386742,-0.01618383730569471
11.012154696132598,-0.022588588699027093
11.045524861878453,-0.02596520820646751
11.078895027624311,-0.02526215681258771
11.112265193370167,-0.020535223725455354
11.145635359116023,-0.01300177595207893
11.179005524861878,-0.004680621087186133
11.212375690607736,0.00231927026100258
11.245745856353592,0.006597476965222075
11.279116022099448,0.00798244926763657
11.312486187845305,0.007497890842195667
11.345856353591161,0.006762030074045853
11.379226519337017,0.007104712736891814
11.412596685082875,0.00884866172565482
11.44596685082873,0.011126807609607102
11.479337016574586,0.012334732550033431
11.512707182320442,0.0109945013520213
11.5460773480663,0.006600810567637369
11.579447513812156,2.717819387211342e-05
11.612817679558011,-0.006724889771653443
11.646187845303869,-0.01134634993753595
11.679558011049725,-0.012254029020749551
11.71292817679558,-0.009364277059202576
11.746298342541436,-0.004228058597735656
11.779668508287294,0.0005796925856345784
11.81303867403315,0.002588759457548111
11.846408839779006,0.0006037402742594735
11.879779005524863,-0.004608705093577402
11.91314917127072,-0.010457899940518753
11.946519337016575,-0.013494764666630528
11.979889502762433,-0.010848671254306056
12.013259668508288,-0.0015542030124581175
12.046629834254144,0.012802383079985743
12.08,0.028432446013440506
12.113370165745858,0.04060396206289756
12.146740331491714,0.045341014809762055
12.18011049723757,0.040894231673271546
12.213480662983427,0.028388242023635636
12.246850828729283,0.011382243921078516
12.280220994475139,-0.005469699965906454
12.313591160220996,-0.018096549383914532
12.346961325966852,-0.024335940005860198
12.380331491712708,-0.024398550898131064
12.413701657458564,-0.020365937832575176
12.447071823204421,-0.015043950045583517
12.480441988950277,-0.01073884033667539
12.513812154696133,-0.0084833745735741
12.54718232044199,-0.00796454143075201
12.580552486187846,-0.008053074905614624
12.613922651933702,-0.007584506451513744
12.64729281767956,-0.00599398832007707
12.680662983425416,-0.003549629383122407
12.714033149171271,-0.0011569595621456882
12.747403314917127,0.00010605269107579787
12.780773480662985,-0.0005066202761041117
12.81414364640884,-0.0030567446791698195
12.847513812154697,-0.006825353169252345
12.880883977900554,-0.010493218186944282
12.91425414364641,-0.012553536248218141
12.947624309392266,-0.011848091265723289
12.980994475138122,-0.008055783298731143
13.01436464088398,-0.001935273694892409
13.047734806629835,0.004825315373229643
13.081104972375691,0.010159683549982725
13.114475138121549,0.012403012741098894
13.147845303867404,0.010990893768445177
13.18121546961326,0.006757440311227074
13.214585635359118,0.0016566675398100165
13.247955801104974,-0.002018160220464986
13.28132596685083,-0.0025994067712822055
13.314696132596685,0.000233426187897792
13.348066298342543,0.005311667065647811
13.381436464088399,0.01049215252730909
13.414806629834255,0.01360268804210444
13.448176795580112,0.01339291337221937
13.481546961325968,0.010064941912108126
13.514917127071824,0.005154105605188457
13.548287292817681,0.0008271508107964025
13.581657458563537,-0.0010751552563923689
13.615027624309393,0.00018110768293093117
13.648397790055249,0.003957445508006126
13.681767955801106,0.008586363738310041
13.715138121546962,0.01213600382741804
13.748508287292818,0.01322270733180237
13.781878453038676,0.011496893872323697
13.815248618784532,0.007609953015725688
13.848618784530387,0.002740870681533639
13.881988950276245,-0.002023114084246449
13.9153591160221,-0.006112154411794497
13.948729281767957,-0.00950904581805753
13.982099447513813,-0.012439069528833923
14.01546961325967,-0.014956936114981416
14.048839779005526,-0.016716125670213605
14.082209944751382,-0.017078338498482715
14.11558011049724,-0.015505317060341103
14.148950276243095,-0.011999288468649163
14.182320441988951,-0.007319652134790325
14.215690607734807,-0.002819091757105011
14.249060773480664,5.557106453688186e-05
14.28243093922652,0.00037319225780361835
14.315801104972376,-0.001851229400455026
14.349171270718234,-0.00561797440946357
14.38254143646409,-0.009328385159347951
14.415911602209945,-0.011430257429830271
14.449281767955803,-0.011034823432569982
14.482651933701659,-0.008226583585527197
14.516022099447515,-0.003929463172403863
14.54939226519337,0.0005946117146807443
14.582762430939228,0.004358719717082297
14.616132596685084,0.007067705913539215
14.64950276243094,0.009139664875597617
14.682872928176797,0.011345609882438046
14.716243093922653,0.01427852466459254
14.749613259668509,0.017936948638029353
14.782983425414367,0.021626024372175073
14.816353591160222,0.024200708137724364
14.849723756906078,0.024509681973489524
14.883093922651934,0.02182978601159357
14.916464088397792,0.016125244490262924
14.949834254143648,0.008073397200566334
14.983204419889503,-0.0011033587430154125
15.016574585635361,-0.009916914382539301
15.049944751381217,-0.016930936549031834
15.083314917127073,-0.021067533025393027
15.116685082872928,-0.021857883968552306
15.150055248618786,-0.019572840222830217
15.183425414364642,-0.015162000147983376
15.216795580110498,-0.009973185094696966
15.250165745856355,-0.005321077079717905
15.283535911602211,-0.0020713873452307655
15.316906077348067,-0.0004287792250534121
15.350276243093925,-2.5604059387499236e-05
15.38364640883978,-0.00024722022186826593
15.417016574585636,-0.0005987884413435153
15.450386740331492,-0.0009043645795455787
15.48375690607735,-0.0012415401544943402
15.517127071823205,-0.0016820662463163793
15.550497237569061,-0.0020287660002936744
15.583867403314919,-0.001743210432933542
15.617237569060775,-0.00014714388199192302
15.65060773480663,0.0031844144152101137
15.683977900552488,0.008048900763089454
15.717348066298344,0.013488568449683125
15.7507182320442,0.01802417371496899
15.784088397790056,0.0201750614833999
15.817458563535913,0.019029724511423637
15.85082872928177,0.014595410140062196
15.884198895027625,0.007770919312609652
15.917569060773483,-1.3818320974329672e-05
15.950939226519338,-0.007284923190515766
15.984309392265194,-0.012902433540403564
16.01767955801105,-0.016205570034691207
16.051049723756908,-0.016971324440855803
16.084419889502765,-0.015335313521791846
16.11779005524862,-0.011789240053675097
16.151160220994477,-0.007231944627554277
16.18453038674033,-0.0029290057205782556
16.21790055248619,-0.00024154404530172318
16.251270718232046,-0.0001354603609962516
16.2846408839779,-0.0026786817935173235
16.318011049723758,-0.006827541288093969
16.351381215469615,-0.010704269077088357
16.38475138121547,-0.012314935875760557
16.418121546961327,-0.010399319532318952
16.451491712707185,-0.005001952027997919
16.48486187845304,0.0025236477367215145
16.518232044198896,0.010082622095750305
16.551602209944754,0.01569745957157706
16.584972375690608,0.018243546039981233
16.618342541436466,0.017733096847203658
16.651712707182323,0.01506857050201107
16.685082872928177,0.01145945687372571
16.718453038674035,0.007846127664124177
16.751823204419892,0.004628483572600699
16.785193370165747,0.0017918542513787909
16.818563535911604,-0.0007207861631321328
