Frequency (Hz),Amplitude
0.0,0.6461635737855218
0.019867549668874173,0.6465991929822739
0.039735099337748346,0.6479026404080904
0.059602649006622516,0.6500637601016521
0.07947019867549669,0.6530658698898888
0.09933774834437085,0.6568861143874787
0.11920529801324503,0.6614959332631876
0.13907284768211922,0.6668616217956072
0.15894039735099338,0.672944957909534
0.17880794701986755,0.6797038691103514
0.1986754966887417,0.6870931138333481
0.2185430463576159,0.6950649543386147
0.23841059602649006,0.7035698019451587
0.2582781456953642,0.7125568196268178
0.27814569536423844,0.7219744713431427
0.2980132450331126,0.7317710115956153
0.31788079470198677,0.7418949123324704
0.33774834437086093,0.7522952273287601
0.3576158940397351,0.762921896491975
0.3774834437086093,0.7737259942047908
0.3973509933774834,0.784659926883691
0.4172185430463576,0.7956775854985577
0.4370860927152318,0.8067344589674728
0.45695364238410596,0.8177877142135526
0.4768211920529801,0.8287962483371841
0.49668874172185434,0.8397207178940133
0.5165562913907285,0.8505235497358935
0.5364238410596026,0.8611689373158158
0.5562913907284769,0.8716228258108024
0.5761589403973509,0.8818528888998117
0.5960264900662252,0.8918284995615346
0.6158940397350993,0.901520696835293
0.6357615894039735,0.9109021501191085
0.6556291390728477,0.9199471222615578
0.6754966887417219,0.9286314324355268
0.695364238410596,0.9369324195565562
0.7152317880794702,0.944828906823357
0.7350993377483444,0.9523011678063977
0.7549668874172186,0.9593308943889052
0.7748344370860927,0.9659011667676264
0.7947019867549668,0.9719964256453573
0.8145695364238411,0.9776024466886184
0.8344370860927152,0.9827063172806493
0.8543046357615894,0.9872964155679296
0.8741721854304636,0.9913623917762265
0.8940397350993378,0.9948951517579578
0.9139072847682119,0.9978868427245362
0.9337748344370861,1.0003308411142569
0.9536423841059603,1.0022217425470867
0.9735099337748344,1.0035553538217303
0.9933774834437087,1.004328686916468
1.0132450331125828,1.0045399549633725
1.033112582781457,1.0041885701751598
1.0529801324503312,1.0032751437135898
1.0728476821192052,1.0018014874997367
1.0927152317880795,0.9997706179769099
1.1125827814569538,0.9971867618485049
1.1324503311258278,0.9940553638222821
1.1523178807947019,0.9903830964034056
1.1721854304635762,0.9861778717856371
1.1920529801324504,0.9814488558971016
1.2119205298013245,0.9762064846606769
1.2317880794701985,0.9704624825299275
1.2516556291390728,0.9642298833583373
1.271523178807947,0.957523053650627
1.2913907284768211,0.9503577182303391
1.3112582781456954,0.9427509883340712
1.3311258278145695,0.934721392109164
1.3509933774834437,0.9262889074454
1.370860927152318,0.9174749970091611
1.390728476821192,0.908302645267933
1.410596026490066,0.8987963971891306
1.4304635761589404,0.8889823981670877
1.4503311258278146,0.878888434568793
1.4701986754966887,0.8685439740892298
1.4900662251655628,0.857980204864664
1.5099337748344372,0.8472300720007935
1.5298013245033113,0.8363283098294647
1.5496688741721854,0.8253114678070549
1.5695364238410596,0.8142179275100646
1.5894039735099337,0.8030879076703011
1.609271523178808,0.7919634536312475
1.6291390728476822,0.7808884070140486
1.6490066225165563,0.7699083507801384
1.6688741721854303,0.7590705243048882
1.6887417218543048,0.7484237025852634
1.7086092715231789,0.7380180333612402
1.728476821192053,0.7279048258223045
1.7483443708609272,0.7181362847974985
1.7682119205298013,0.7087651850011223
1.7880794701986755,0.6998444811416759
1.8079470198675496,0.6914268515960972
1.8278145695364238,0.6835641759751594
1.847682119205298,0.6763069502665688
1.8675496688741722,0.6697036472672413
1.8874172185430464,0.6638000345264514
1.9072847682119205,0.6586384667179904
1.9271523178807946,0.6542571738287569
1.9470198675496688,0.6506895702929273
1.9668874172185429,0.647963612681038
1.9867549668874174,0.6461012342817269
2.0066225165562916,0.6451178835356565
2.0264900662251657,0.6450221896574293
2.0463576158940397,0.6458157730520743
2.066225165562914,0.6474932107248063
2.086092715231788,0.6500421584718563
2.1059602649006623,0.653443623054377
2.1258278145695364,0.6576723696522425
2.1456953642384105,0.6626974434202025
2.165562913907285,0.6684827794593916
2.185430463576159,0.6749878732284582
2.205298013245033,0.6821684833193752
2.2251655629139075,0.6899773403366976
2.2450331125827816,0.6983648388982361
2.2649006622516556,0.7072796939968684
2.2847682119205297,0.7166695476051026
2.3046357615894038,0.7264815160147542
2.324503311258278,0.7366626726390084
2.3443708609271523,0.7471604646356503
2.364238410596027,0.757923064627181
2.384105960264901,0.7688996609724761
2.403973509933775,0.7800406915352274
2.423841059602649,0.7912980267828258
2.443708609271523,0.8026251084471943
2.463576158940397,0.8139770499977682
2.4834437086092715,0.8253107049235722
2.5033112582781456,0.836584708386134
2.52317880794702,0.8477594972643133
2.543046357615894,0.8587973130224213
2.562913907284768,0.8696621912382628
2.5827814569536423,0.8803199410557917
2.6026490066225163,0.8907381172971676
2.622516556291391,0.900885987491818
2.642384105960265,0.9107344956590592
2.662251655629139,0.9202562243166744
2.6821192052980134,0.9294253558778595
2.7019867549668874,0.9382176343386996
2.7218543046357615,0.9466103279428234
2.741721854304636,0.9545821933333111
2.76158940397351,0.9621134415599158
2.781456953642384,0.9691857061957493
2.801324503311258,0.9757820137288065
2.821192052980132,0.9818867563248818
2.8410596026490067,0.9874856670060818
2.8609271523178808,0.9925657972516205
2.8807947019867552,0.9971154969999343
2.9006622516556293,1.0011243970138846
2.9205298013245033,1.004583393559733
2.9403973509933774,1.0074846353462665
2.9602649006622515,1.0098215126701027
2.9801324503311255,1.0115886487167518
3.0,1.012781892973541
3.0198675496688745,1.013398316718968
3.0397350993377485,1.0134362105634291
3.0596026490066226,1.0128950840275976
3.0794701986754967,1.011775667157288
3.0993377483443707,1.0100799141864705
3.119205298013245,1.007811009272982
3.1390728476821192,1.0049733743449214
3.1589403973509933,1.0015726791078758
3.1788079470198674,0.9976158532753511
3.198675496688742,0.9931111010949395
3.218543046357616,0.9880679182521134
3.23841059602649,0.9824971112394321
3.2582781456953644,0.9764108192828596
3.2781456953642385,0.9698225389151348
3.2980132450331126,0.9627471512805146
3.3178807947019866,0.9552009522411595
3.3377483443708607,0.9472016853333544
3.3576158940397347,0.9387685775883317
3.3774834437086096,0.9299223781843494
3.3973509933774837,0.9206853998322209
3.4172185430463577,0.9110815627094857
3.437086092715232,0.9011364406462705
3.456953642384106,0.8908773091212892
3.47682119205298,0.8803331944449743
3.4966887417218544,0.8695349232805647
3.5165562913907285,0.8585151713759692
3.5364238410596025,0.8473085100433421
3.556291390728477,0.8359514485208261
3.576158940397351,0.8244824698783318
3.596026490066225,0.8129420575825298
3.615894039735099,0.8013727092167217
3.6357615894039736,0.789818933167259
3.6556291390728477,0.7783272233554988
3.6754966887417218,0.7669460063429006
3.695364238410596,0.7557255544105445
3.7152317880794703,0.7447178575780651
3.7350993377483444,0.7339764470668881
3.754966887417219,0.7235561625373605
3.774834437086093,0.7135128556717335
3.794701986754967,0.7039030234795963
3.814569536423841,0.6947833662190024
3.834437086092715,0.686210267187706
3.854304635761589,0.6782391949307259
3.8741721854304636,0.6709240326422738
3.8940397350993377,0.6643163446055674
3.9139072847682117,0.6584645951626028
3.9337748344370858,0.6534133415241311
3.9536423841059607,0.6492024271552712
3.9735099337748347,0.6458662068321537
3.993377483443709,0.6434328370645701
4.013245033112583,0.6419236658086018
4.033112582781457,0.6413527528560212
4.052980132450331,0.6417265469070508
4.072847682119205,0.6430437374203051
4.0927152317880795,0.6452952895743482
4.112582781456953,0.6484646600490073
4.132450331125828,0.6525281809603912
4.152317880794702,0.6574555902398944
4.172185430463576,0.6632106798953261
4.19205298013245,0.669752029453404
4.211920529801325,0.6770337905898421
4.231788079470199,0.6850064902749556
4.251655629139073,0.6936178231934874
4.271523178807947,0.7028134090778289
4.291390728476821,0.7125374962289523
4.311258278145695,0.7227335982623716
4.33112582781457,0.7333450565111695
4.3509933774834435,0.7443155252060015
4.370860927152318,0.7555893803511705
4.390728476821192,0.7671120560766567
4.410596026490066,0.7788303142131388
4.43046357615894,0.7906924540236603
4.450331125827815,0.8026484695689563
4.470198675496689,0.8146501622348986
4.490066225165563,0.8266512156468082
4.509933774834438,0.83860723965925
4.529801324503311,0.8504757894376616
4.549668874172186,0.8622163649179221
4.569536423841059,0.8737903951929598
4.589403973509934,0.8851612116729841
4.6092715231788075,0.8962940132168603
4.629139072847682,0.9071558258524637
4.649006622516556,0.9177154591954725
4.66887417218543,0.9279434612402592
4.688741721854305,0.9378120728274343
4.708609271523179,0.9472951827870687
4.728476821192054,0.9563682845032995
4.748344370860927,0.9650084344434492
4.768211920529802,0.9731942130305639
4.788079470198675,0.9809056881102337
4.80794701986755,0.9881243811625776
4.827814569536423,0.9948332363345866
4.847682119205298,1.00101659231106
4.867549668874172,1.0066601570025788
4.887417218543046,1.0117509850004234
4.9072847682119205,1.0162774577313318
4.927152317880794,1.0202292662352843
4.947019867549669,1.0235973964868577
4.966887417218543,1.0263741171824003
4.986754966887418,1.0285529699219937
5.006622516556291,1.0301287617237538
5.026490066225166,1.0310975598202279
5.04635761589404,1.0314566886996368
5.066225165562914,1.0312047293701476
5.086092715231788,1.0303415208407272
5.105960264900662,1.028868163829435
5.125827814569536,1.0267870267269494
5.14569536423841,1.024101753860646
5.1655629139072845,1.0208172761223357
5.185430463576159,1.0169398240397227
5.205298013245033,1.0124769433885212
5.225165562913908,1.0074375134578912
5.245033112582782,1.0018317680956104
5.264900662251656,0.9956713196717387
5.28476821192053,0.9889691861078609
5.304635761589404,0.9817398211237053
5.324503311258278,0.973999147851728
5.344370860927152,0.9657645959613836
5.364238410596027,0.9570551424166278
5.3841059602649,0.9478913559585178
5.403973509933775,0.9382954453580356
5.4238410596026485,0.928291311415877
5.443708609271523,0.9179046025924665
5.463576158940397,0.9071627740259923
5.483443708609272,0.8960951495308089
5.503311258278146,0.8847329859557321
5.52317880794702,0.8731095390107643
5.543046357615895,0.8612601293318107
5.562913907284768,0.8492222071339001
5.582781456953643,0.8370354132940876
5.602649006622516,0.824741634094675
5.622516556291391,0.8123850461389481
5.642384105960264,0.8000121471234118
5.662251655629139,0.7876717672183075
5.682119205298013,0.7754150547914108
5.701986754966887,0.7632954291451074
5.7218543046357615,0.7513684918830995
5.741721854304636,0.7396918875712961
5.7615894039735105,0.7283251036301848
5.781456953642384,0.7173291990569053
5.801324503311259,0.7067664518207671
5.821192052980132,0.6966999158311571
5.841059602649007,0.6871928804728739
5.860927152317881,0.6783082290466311
5.880794701986755,0.6701076971741944
5.900662251655629,0.6626510383334357
5.920529801324503,0.6559951109908728
5.940397350993377,0.6501929098731982
5.960264900662251,0.6452925720775315
5.980132450331126,0.6413363960429804
6.0,0.6383599168326319
6.0198675496688745,0.636391083655688
6.039735099337749,0.6354495842612846
6.059602649006623,0.6355463553436314
6.079470198675497,0.636683308574117
6.099337748344371,0.6388532891111176
6.119205298013245,0.6420402687684559
6.139072847682119,0.6462197611215595
6.158940397350993,0.6513594324082498
6.178807947019867,0.6574198715848022
6.198675496688741,0.6643554762729577
6.218543046357616,0.6721154089021618
6.23841059602649,0.6806445788413414
6.258278145695365,0.6898846109844208
6.2781456953642385,0.6997747680984496
6.298013245033113,0.710252802194632
6.317880794701987,0.7212557182779761
6.337748344370861,0.7327204413255785
6.357615894039735,0.7445843837445199
6.377483443708609,0.7567859156244681
6.397350993377484,0.7692647437859714
6.417218543046357,0.7819622080352296
6.437086092715232,0.7948215043579099
6.456953642384105,0.8077878452437884
6.47682119205298,0.8208085671547121
6.496688741721854,0.8338331945354842
6.516556291390729,0.8468134688887295
6.5364238410596025,0.8597033504249089
6.556291390728477,0.8724589987529326
6.5761589403973515,0.8850387380636067
6.596026490066225,0.8974030113183324
6.6158940397351,0.9095143271127791
6.635761589403973,0.9213372021486901
6.655629139072848,0.9328381016177246
6.675496688741721,0.9439853792718657
6.695364238410596,0.9547492185186113
6.715231788079469,0.9651015755229038
6.735099337748344,0.9750161250129363
6.754966887417219,0.9844682092603588
6.774834437086093,0.9934347905301766
6.794701986754967,1.0018944071600975
6.814569536423841,1.009827133328567
6.8344370860927155,1.0172145424960048
6.854304635761589,1.0240396744521187
6.874172185430464,1.030287005866792
6.894039735099337,1.03594242422094
6.913907284768212,1.0409932049831458
6.933774834437086,1.0454279918952514
6.95364238410596,1.049236780234764
6.973509933774834,1.0524109029302073
6.993377483443709,1.0549430194189524
7.013245033112583,1.0568271071523738
7.033112582781457,1.0580584556712553
7.052980132450331,1.058633663193769
7.072847682119205,1.0585506356794423
7.0927152317880795,1.0578085883543265
7.112582781456954,1.0564080497056085
7.132450331125828,1.0543508679770268
7.152317880794702,1.0516402202211255
7.172185430463576,1.0482806239881493
7.19205298013245,1.0442779517570322
7.211920529801324,1.039639448238034
7.231788079470198,1.034373750701855
7.251655629139073,1.028490912514163
7.271523178807947,1.0220024300776012
7.291390728476822,1.014921273404642
7.311258278145695,1.0072619205638287
7.33112582781457,0.9990403962561832
7.3509933774834435,0.9902743147879394
7.370860927152318,0.9809829277066543
7.390728476821192,0.9711871763582336
7.410596026490066,0.9609097495981193
7.430463576158941,0.9501751468459649
7.450331125827814,0.9390097466050973
7.470198675496689,0.9274418804659795
7.490066225165562,0.9155019124701477
7.509933774834438,0.9032223235150894
7.52980132450331,0.8906378002185434
7.549668874172186,0.8777853273174363
7.569536423841059,0.864704282233896
7.589403973509934,0.8514365298801784
7.6092715231788075,0.8380265150734483
7.629139072847682,0.824521349072949
7.649006622516557,0.8109708857162271
7.66887417218543,0.7974277814097669
7.6887417218543055,0.7839475318231096
7.708609271523178,0.7705884765659089
7.728476821192054,0.7574117614446733
7.748344370860927,0.7444812461896018
7.768211920529802,0.7318633439557928
7.788079470198675,0.7196267776421268
7.80794701986755,0.7078422374139041
7.827814569536423,0.6965819241092253
7.847682119205298,0.6859189648533516
7.8675496688741715,0.6759266906172307
7.887417218543046,0.6666777709969174
7.907284768211921,0.6582432093774567
7.927152317880795,0.6506912118295843
7.9470198675496695,0.6440859551366416
7.966887417218543,0.638486292357613
7.986754966887418,0.6339444469045952
8.006622516556291,0.6305047564701369
8.026490066225167,0.6282025343549398
8.046357615894038,0.6270631161190433
8.066225165562914,0.6271011529430826
8.086092715231787,0.6283201995880484
8.105960264900663,0.630712625506101
8.125827814569536,0.6342598547000307
8.14569536423841,0.6389329162848424
8.165562913907285,0.64469326643439
8.185430463576159,0.6514938260850875
8.205298013245034,0.6592801690449318
8.225165562913906,0.6679917924705693
8.245033112582782,0.6775634053726439
8.264900662251655,0.6879261794255561
8.28476821192053,0.6990089180287985
8.304635761589404,0.7107391124271085
8.324503311258278,0.7230438661752586
8.344370860927151,0.7358506802167135
8.364238410596027,0.7490880997028423
8.3841059602649,0.7626862302095331
8.403973509933774,0.7765771353183027
8.42384105960265,0.7906951299275141
8.443708609271523,0.8049769845376402
8.463576158940398,0.8193620555213805
8.483443708609272,0.8337923554107632
8.503311258278146,0.8482125758144335
8.52317880794702,0.8625700739542144
8.543046357615895,0.8768148321465061
8.562913907284768,0.890899397963759
8.582781456953642,0.9047788113597975
8.602649006622515,0.9184105237624918
8.62251655629139,0.9317543130399236
8.642384105960264,0.9447721973247436
8.66225165562914,0.9574283499235609
8.682119205298013,0.9696890169258734
8.701986754966887,0.9815224386382821
8.721854304635762,0.9928987755883649
8.741721854304636,1.0037900395474277
8.76158940397351,1.0141700297989371
8.781456953642383,1.0240142747135026
8.801324503311259,1.0332999785726604
8.821192052980132,1.042005973500287
8.841059602649008,1.0501126763057103
8.86092715231788,1.0576020500098906
8.880794701986755,1.0644575698093974
8.90066225165563,1.0706641932296828
8.920529801324504,1.0762083342244717
8.940397350993377,1.081077840991343
8.960264900662251,1.0852619772910277
8.980132450331126,1.0887514070798727
9.0,1.0915381822890207
9.019867549668875,1.0936157336101904
9.039735099337747,1.0949788641753926
9.059602649006623,1.0956237460469154
9.079470198675496,1.0955479194630955
9.099337748344372,1.0947502948162362
9.119205298013245,1.093231157369703
9.139072847682119,1.0909921747533426
9.158940397350994,1.0880364073092892
9.178807947019868,1.0843683213934698
9.198675496688743,1.0799938057731906
9.218543046357615,1.0749201912967514
9.23841059602649,1.0691562740475564
9.258278145695364,1.0627123422330969
9.27814569536424,1.055600207097176
9.298013245033111,1.0478332381822717
9.317880794701987,1.039426403307175
9.33774834437086,1.030396313661342
9.357615894039736,1.0207612744513228
9.37748344370861,1.0105413415634616
9.397350993377483,0.9997583847279431
9.417218543046358,0.9884361576792674
9.437086092715232,0.9766003758007115
9.456953642384107,0.9642788017109356
9.47682119205298,0.9515013391881996
9.496688741721854,0.9383001357230292
9.516556291390728,0.9247096938276023
9.536423841059603,0.9107669909926538
9.556291390728477,0.8965116078475616
9.57615894039735,0.8819858636206426
9.596026490066224,0.8672349573806493
9.6158940397351,0.8523071127328944
9.635761589403973,0.8372537226003565
9.655629139072847,0.8221294894015283
9.675496688741722,0.8069925543004569
9.695364238410596,0.7919046072185432
9.715231788079471,0.7769309669510851
9.735099337748345,0.7621406180443422
9.754966887417218,0.7476061881376297
9.774834437086092,0.7334038464156746
9.794701986754967,0.7196131009132771
9.814569536423841,0.7063164700687175
9.834437086092716,0.6935990026939739
9.854304635761588,0.6815476211317646
9.874172185430464,0.6702502656332704
9.894039735099337,0.6597948247647719
9.913907284768213,0.650267847637386
9.933774834437086,0.6417530492585988
9.95364238410596,0.6343296399586784
9.973509933774835,0.6280705323314205
9.993377483443709,0.6230405020456025
10.013245033112582,0.6192943988424048
10.033112582781456,0.6168755171150494
10.052980132450331,0.6158142379974473
10.072847682119205,0.6161270444336735
10.09271523178808,0.61781598695653
10.112582781456952,0.6208686431682165
10.132450331125828,0.6252585728602202
10.152317880794701,0.630946229444143
10.172185430463577,0.6378802530386568
10.192052980132452,0.6459990459484265
10.211920529801324,0.655232519818953
10.2317880794702,0.6655039053032691
10.251655629139073,0.6767315273172588
10.271523178807948,0.6888304682943446
10.29139072847682,0.7017140643815779
10.311258278145695,0.7152952018458774
10.331125827814569,0.7294874006349874
10.350993377483444,0.7442056876943401
10.370860927152318,0.7593672738523389
10.390728476821192,0.7748920551192011
10.410596026490065,0.7907029627634508
10.43046357615894,0.8067261873648621
10.450331125827816,0.8228913010124344
10.470198675496688,0.839131299631324
10.490066225165563,0.8553825846440142
10.509933774834437,0.8715849002034304
10.529801324503312,0.8876812393495661
10.549668874172186,0.9036177297976242
10.56953642384106,0.9193435077451906
10.589403973509933,0.9348105861149585
10.609271523178808,0.9499737220189742
10.629139072847682,0.9647902869107704
10.649006622516556,0.9792201418457059
10.66887417218543,0.9932255194544353
