Frequency (Hz),Amplitude
0.0,5.369672587618682
0.01993355481727575,5.367026851152224
0.0398671096345515,5.359092259421829
0.059800664451827246,5.34587666298183
0.079734219269103,5.327393137919478
0.09966777408637874,5.303659973617684
0.11960132890365449,5.2747006556588065
0.13953488372093023,5.240543843906062
0.159468438538206,5.201223345811007
0.17940199335548174,5.15677808500784
0.19933554817275748,5.107252065269478
0.21926910299003324,5.052694329915738
0.23920265780730898,4.993158916781774
0.25913621262458475,4.928704808875493
0.27906976744186046,4.859395880877007
0.29900332225913623,4.785300841661948
0.318936877076412,4.7064931730659945
0.3388704318936877,4.623051065150841
0.3588039867109635,4.5350573482860765
0.37873754152823924,4.442599422429098
0.39867109634551495,4.345769184072403
0.4186046511627907,4.244662951439239
0.4385382059800665,4.1393813886556154
0.4584717607973422,4.0300294298196375
0.47840531561461797,3.9167162041483934
0.49833887043189373,3.7995549637318042
0.5182724252491695,3.678663015901879
0.5382059800664452,3.5541616628887973
0.5581395348837209,3.426176152366628
0.5780730897009968,3.2948356438175086
0.5980066445182725,3.1602731975602665
0.6179401993355482,3.0226257961054093
0.637873754152824,2.8820344117092116
0.6578073089700996,2.7386441404159516
0.6777408637873754,2.592604432863328
0.6976744186046512,2.444069468029007
0.717607973421927,2.293198742082833
0.7375415282392027,2.140157988202638
0.7574750830564785,1.9851206190849926
0.7774086378737541,1.828270020524306
0.7973421926910299,1.6698032809882437
0.8172757475083057,1.5099374475329537
0.8372093023255814,1.3489204515097752
0.8571428571428572,1.1870511921485996
0.877076411960133,1.0247189178687166
0.8970099667774087,0.8624870542075238
0.9169435215946844,0.7012915689972394
0.9368770764119602,0.5429803511353687
0.9568106312292359,0.3920728440087303
0.9767441860465116,0.26278083178149414
0.9966777408637875,0.20289566411402324
1.0166112956810631,0.26490930647050664
1.036544850498339,0.3949398178513398
1.0564784053156147,0.5461108751442673
1.0764119601328903,0.7045580515584347
1.0963455149501662,0.8658510660526831
1.1162790697674418,1.0281699358205236
1.1362126245847177,1.1905892611454982
1.1561461794019936,1.3525501987244721
1.176079734219269,1.5136656640076855
1.196013289036545,1.6736378161549452
1.2159468438538206,1.8322192231655556
1.2358803986710964,1.9891930289891178
1.255813953488372,2.144362152267562
1.275747508305648,2.2975430963831607
1.2956810631229239,2.4485622568624885
1.3156146179401993,2.5972536495808933
1.3355481727574752,2.7434574816804416
1.3554817275747508,2.8870192403993737
1.3754152823920267,3.0277891100305085
1.3953488372093024,3.165621602254942
1.4152823920265782,3.3003753283344115
1.435215946843854,3.4319128673753503
1.4551495016611296,3.5601007006320806
1.4750830564784054,3.684809191713956
1.495016611295681,3.805912598923416
1.514950166112957,3.9232891101286778
1.5348837209302328,4.0368208933691685
1.5548172757475083,4.146394158294675
1.5747508305647842,4.251899224855875
1.5946843853820598,4.353230596588898
1.6146179401993357,4.4502870364954115
1.6345514950166113,4.54297164399522
1.6544850498338872,4.631191931776245
1.6744186046511629,4.714859901623535
1.6943521594684385,4.793892118501736
1.7142857142857144,4.868209782310959
1.73421926910299,4.937738796847537
1.754152823920266,5.00240983558766
1.7740863787375416,5.0621584039794
1.7940199335548175,5.1169248979824395
1.8139534883720931,5.166654658637846
1.8338870431893688,5.211298022485253
1.8538205980066447,5.250810367673882
1.8737541528239203,5.285152155637791
1.893687707641196,5.314288968226583
1.9136212624584719,5.338191540200359
1.9335548172757475,5.356835787013412
1.9534883720930232,5.370202827825076
1.9734219269102993,5.378279003688836
1.993355481727575,5.381055890882547
2.0132890365448506,5.378530309353667
2.0332225913621262,5.3707043262640735
2.0531561461794023,5.357585254629475
2.073089700996678,5.339185647058562
2.0930232558139537,5.315523284607927
2.1129568106312293,5.286621160779244
2.132890365448505,5.2525074606967035
2.1528239202657806,5.213215535514992
2.1727574750830567,5.1687838721211365
2.1926910299003324,5.119256058208458
2.212624584717608,5.064680742817083
2.2325581395348837,5.005111592454799
2.25249169435216,4.940607242933873
2.2724252491694354,4.871231247085476
2.292358803986711,4.797052018544972
2.312292358803987,4.71814277183903
2.332225913621263,4.634581459052892
2.352159468438538,4.546450703414435
2.3720930232558137,4.453837730206032
2.39202657807309,4.356834295509822
2.4119601328903655,4.255536613414699
2.431893687707641,4.150045282473391
2.4518272425249172,4.040465212410115
2.471760797342193,3.9269055523623058
2.4916943521594686,3.809479622323612
2.511627906976744,3.688304849979731
2.5315614617940203,3.5635027158561265
2.551495016611296,3.4351987107182174
2.5714285714285716,3.303522310619678
2.5913621262458477,3.1686069770979666
2.611295681063123,3.030590193107441
2.6312292358803986,2.8896135499020894
2.6511627906976742,2.745822907124835
2.6710963455149503,2.5993686593241967
2.691029900332226,2.4504061595830007
2.7109634551495017,2.2990963794811012
2.7308970099667778,2.145606932600919
2.7508305647840534,1.9901136721118688
2.770764119601329,1.8328032230288287
2.7906976744186047,1.6738770914426122
2.810631229235881,1.5135585478178675
2.8305647840531565,1.3521046368644967
2.850498338870432,1.1898282366656023
2.870431893687708,1.027141276170582
2.8903654485049834,0.8646466080540969
2.910299003322259,0.7033548845743012
2.9302325581395348,0.5452712939378165
2.950166112956811,0.3952868699274866
2.9700996677740865,0.26847505195474075
2.990033222591362,0.21249933304016724
3.0099667774086383,0.2749747543418977
3.029900332225914,0.40416100972552427
3.0498338870431896,0.5550107121325188
3.0697674418604657,0.7135367062530575
3.089700996677741,0.8751388247965486
3.1096345514950166,1.0379045706409156
3.129568106312292,1.2008587313583268
3.1495016611295683,1.3634139314731688
3.169435215946844,1.5251656125335
3.1893687707641196,1.6858045525572074
3.2093023255813957,1.845075484305
3.2292358803986714,2.0027558806659096
3.249169435215947,2.1586443647754656
3.2691029900332227,2.312554049575646
3.289036544850499,2.4643085535752642
3.3089700996677744,2.613739542199607
3.32890365448505,2.7606851755287263
3.3488372093023258,2.9049891139024546
3.3687707641196014,3.0464998774492535
3.388704318936877,3.1850704360706827
3.4086378737541527,3.320557952853993
3.428571428571429,3.4528236315543963
3.4485049833887045,3.5817326357487485
3.46843853820598,3.707154057926183
3.4883720930232562,3.8289609236420743
3.508305647840532,3.9470302203687258
3.5282392026578075,4.06124294369315
3.548172757475083,4.171484155568376
3.5681063122923593,4.277643050747428
3.588039867109635,4.379613028529459
3.60797342192691,4.477291767659862
3.6279069767441863,4.57058130274084
3.647840531561462,4.659388100884838
3.6677740863787376,4.743623137621508
3.6877076411960132,4.82320197127716
3.7076411960132893,4.898044815202878
3.727574750830565,4.968076607348578
3.7475083056478407,5.033227076773017
3.7674418604651168,5.093430806753363
3.787375415282392,5.14862729421537
3.807308970099668,5.198761005251874
3.8272425249169437,5.243781426535006
3.8471760797342194,5.283643112458286
3.867109634551495,5.318305727871139
3.887043189368771,5.347734086289942
3.9069767441860463,5.371898183488984
3.9269102990033224,5.390773226391116
3.9468438538205985,5.404339657192942
3.9667774086378738,5.412583172672632
3.98671096345515,5.415494738641197
4.0066445182724255,5.413070599509602
4.026578073089701,5.405312282955615
4.046511627906977,5.392226599685363
4.0664451827242525,5.373825638295622
4.086378737541528,5.3501267552543
4.106312292358805,5.3211525600282465
4.1262458471760795,5.286930895400006
4.146179401993356,5.247494813028578
4.166112956810632,5.202882544323954
4.186046511627907,5.153137466721488
4.205980066445183,5.09830806546112
4.225913621262459,5.0384478909976576
4.245847176079734,4.973615512193939
4.26578073089701,4.903874465478366
4.2857142857142865,4.8292932001849405
4.305647840531561,4.7499450203379
4.325581395348838,4.665908023198212
4.345514950166113,4.577265034957724
4.365448504983389,4.484103544053959
4.385382059800665,4.38651563269017
4.40531561461794,4.284597907289886
4.425249169435216,4.178451428804394
4.445182724252492,4.068181644042409
4.465116279069767,3.9538983195263575
4.485049833887043,3.8357154798340667
4.50498338870432,3.713751353005977
4.524916943521594,3.5881283264606347
4.544850498338871,3.4589729180722806
4.5647840531561465,3.326415768789542
4.584717607973422,3.190591665669363
4.604651162790698,3.051639607865395
4.624584717607974,2.909702933591096
4.644518272425249,2.7649295344301197
4.664451827242526,2.6174721963633427
4.6843853820598005,2.467489127577694
4.704318936877076,2.3151447669274576
4.724252491694353,2.160611023735259
4.7441860465116275,2.0040691982116763
4.764119601328904,1.8457130091582503
4.78405315614618,1.6857534882096536
4.803986710963455,1.5244271537839187
4.823920265780731,1.3620102365361553
4.8438538205980075,1.1988447401974855
4.863787375415282,1.035389335926647
4.883720930232559,0.8723270532950284
4.9036544850498345,0.7108175587407137
4.92358803986711,0.5531701010104156
4.943521594684386,0.4049491074769324
4.963455149501661,0.28252187546082885
4.983388704318937,0.23210103322676592
5.003322259136213,0.29373523706166016
5.023255813953488,0.42066229458003473
5.043189368770764,0.5705960207505624
5.063122923588041,0.729109494379008
5.083056478405315,0.8912035424892036
5.102990033222592,1.0547558633120544
5.122923588039868,1.2186796860970905
5.142857142857143,1.3823242645715081
5.162790697674419,1.5452465325755096
5.182724252491695,1.7071124066777668
5.20265780730897,1.867649684269929
5.222591362126246,2.0266237376709606
5.242524916943522,2.183824164894342
5.262458471760797,2.3390570818267222
5.282392026578074,2.4921404897545543
5.3023255813953485,2.642901401816423
5.322259136212625,2.7911740173517123
5.342192691029901,2.9367985427534844
5.362126245847176,3.079620423375518
5.382059800664452,3.219489843665899
5.4019933554817285,3.3562614062735427
5.421926910299003,3.489793932856663
5.44186046511628,3.6199503489589007
5.4617940199335555,3.746597627683771
5.48172757475083,3.869606774863365
5.501661129568107,3.9888528436551627
5.5215946843853825,4.104214970011016
5.541528239202658,4.215576422855801
5.561461794019934,4.322824664471255
5.5813953488372094,4.425851417746071
5.601328903654485,4.524552737784753
5.621262458471762,4.618829085967475
5.641196013289036,4.70858540499234
5.661129568106313,4.793731193755614
5.681063122923589,4.874180581168663
5.700996677740864,4.949852398193757
5.72093023255814,5.020670247521375
5.740863787375416,5.086562570420315
5.760797342192691,5.147462710376628
5.780730897009967,5.203308973204599
5.800664451827243,5.2540446833665095
5.820598006644518,5.299618236281552
5.840531561461795,5.339983146439805
5.8604651162790695,5.375098091166772
5.880398671096346,5.404926949909361
5.900332225913622,5.429438838935347
5.920265780730897,5.448608141357328
5.940199335548173,5.462414532408998
5.960132890365449,5.470842999916376
5.980066445182724,5.473883859920962
6.0,5.471532767424796
6.0199335548172765,5.46379072224008
6.039867109634551,5.450664069938606
6.059800664451828,5.432164497908656
6.0797342192691035,5.408309026540062
6.099667774086379,5.379119995571182
6.119601328903655,5.3446250456462785
6.139534883720931,5.304857095147125
6.159468438538206,5.259854312379854
6.179401993355482,5.209660083217774
6.1993355481727574,5.154322974322874
6.219269102990033,5.093896692094793
6.23920265780731,5.02844003752691
6.259136212624584,4.958016857185517
6.279069767441861,4.882695990573204
6.299003322259137,4.802551214192075
6.318936877076412,4.717661182690789
6.338870431893688,4.6281093675653215
6.3588039867109645,4.533983993992265
6.378737541528239,4.435377976513862
6.398671096345516,4.332388854475677
6.418604651162791,4.22511872835643
6.438538205980066,4.1136741984456755
6.458471760797343,3.9981663077484524
6.4784053156146175,3.878710491569507
6.498338870431894,3.7554265370155075
6.51827242524917,3.6284385567435304
6.538205980066445,3.4978749828153877
6.558139534883721,3.3638685886982835
6.578073089700998,3.22655655060584
6.598006644518272,3.0860805640055813
6.617940199335549,2.9425870380428063
6.6378737541528245,2.7962274011777057
6.6578073089701,2.6471585677348677
6.677740863787376,2.495543641163632
6.6976744186046515,2.3415529724002124
6.717607973421927,2.1853657632232575
6.737541528239203,2.027172528380505
6.7574750830564785,1.8671789527264677
6.777408637873754,1.7056120956595218
6.797342192691031,1.5427307103809675
6.8172757475083055,1.3788431315122425
6.837209302325582,1.2143398985085119
6.857142857142858,1.0497570948992028
6.877076411960133,0.8859092249900135
6.897009966777409,0.7241961724603551
6.9169435215946855,0.5674016931038526
6.93687707641196,0.42206776614772157
6.956810631229236,0.306056907943673
6.9767441860465125,0.26252820991918213
6.996677740863787,0.3225585357249713
7.016611295681064,0.4460444901255158
7.036544850498339,0.5944208857677106
7.056478405315615,0.7527488357828933
7.076411960132891,0.9154518487956685
7.096345514950166,1.0800846129117248
7.116279069767442,1.2453833506425862
7.136212624584719,1.410595094209907
7.156146179401993,1.5752140873686826
7.17607973421927,1.7388655878817476
7.196013289036546,1.9012496661104805
7.21594684385382,2.0621119172686204
7.235880398671097,2.2212272505402892
7.2558139534883725,2.378390465887551
7.275747508305648,2.5334105542292207
7.295681063122924,2.6861071377860717
7.3156146179402,2.8363081906771814
7.335548172757475,2.9838485521380065
7.355481727574752,3.1285689452726957
7.3754152823920265,3.270315326659397
7.395348837209303,3.4089384573746515
7.415282392026579,3.5442936250693977
7.435215946843854,3.6762404707768725
7.45514950166113,3.8046428893076967
7.475083056478406,3.929368981881895
7.495016611295681,4.05029104609862
7.514950166112956,4.167285592674058
7.5348837209302335,4.280233381333502
7.554817275747508,4.389019470293147
7.574750830564784,4.493533275209858
7.5946843853820605,4.593668634505831
7.614617940199336,4.689323878718829
7.634551495016611,4.780401902072166
7.6544850498338874,4.8668102348610445
7.674418604651163,4.948461115552502
7.694352159468439,5.025271561723886
7.714285714285715,5.097163439138334
7.73421926910299,5.164063528390072
7.754152823920266,5.225903588656919
7.774086378737542,5.282620418179981
7.794019933554818,5.33415591115637
7.813953488372093,5.380457110783836
7.83388704318937,5.421476258239761
7.853820598006645,5.457170837412822
7.8737541528239205,5.487503615235862
7.893687707641197,5.512442677494366
7.913621262458472,5.531961460007251
7.9335548172757475,5.546038775096603
7.953488372093024,5.554658833280704
7.9734219269103,5.557811260141378
7.9933554817275745,5.555491108331825
8.013289036544851,5.5476988647065255
8.033222591362128,5.5344404525687825
8.053156146179402,5.515727229047082
8.073089700996679,5.491575977625922
8.093023255813954,5.462008895873355
8.11295681063123,5.427053578424581
8.132890365448505,5.386742995299907
8.152823920265782,5.3411154656566175
8.172757475083056,5.29021462709861
8.192691029900331,5.234089400695427
8.21262458471761,5.17279395189548
8.232558139534884,5.106387647557245
8.252491694352159,5.034935009369585
8.272425249169435,4.9585056639902785
8.292358803986712,4.8771742903031825
8.312292358803987,4.7910205642837305
8.332225913621263,4.700129102075321
8.352159468438538,4.604589402022474
8.372093023255815,4.5044957865920106
8.392026578073091,4.3999473453536835
8.411960132890366,4.291047880507741
8.43189368770764,4.177905856865794
8.451827242524917,4.060634358752903
8.471760797342194,3.9393510570600925
8.491694352159469,3.8141781907189047
8.511627906976745,3.6852425683166343
8.53156146179402,3.5526755976028808
8.551495016611296,3.4166133535321412
8.571428571428573,3.2771966996696498
8.591362126245848,3.134571483928818
8.611295681063122,2.988888838781279
8.6312292358804,2.8403056300420313
8.651162790697676,2.6889851200213957
8.67109634551495,2.53509794530285
8.691029900332227,2.378823565563606
8.710963455149502,2.2203524339360823
8.730897009966778,2.0598893020017375
8.750830564784053,1.8976583635213666
8.77076411960133,1.733911482943367
8.790697674418604,1.5689418106797344
8.81063122923588,1.4031072544208747
8.830564784053157,1.2368729995341814
8.850498338870432,1.0708933108921026
8.870431893687707,0.9061808105285402
8.890365448504983,0.7444889558034343
8.91029900332226,0.5892687038143182
8.930232558139535,0.4483016505470176
8.950166112956811,0.3407702056555526
8.970099667774086,0.3051162091584598
8.990033222591363,0.3633921446688199
9.00996677740864,0.4826162940032086
9.029900332225914,0.6287811738562727
9.049833887043189,0.7866564503993883
9.069767441860467,0.9499988279390962
9.089700996677742,1.115942298767355
9.109634551495017,1.2829792100363198
9.129568106312293,1.450211237172802
9.14950166112957,1.617041759134269
9.169435215946844,1.7830364066824145
9.189368770764121,1.94785431289554
9.209302325581396,2.1112117846980984
9.22923588039867,2.272861976766226
9.249169435215949,2.432582969507572
9.269102990033224,2.590170498874965
9.289036544850498,2.7454333792430163
9.308970099667773,2.898190546730373
9.328903654485051,3.048269110714922
9.348837209302326,3.195503051142836
9.368770764119601,3.3397323401436294
9.388704318936878,3.4808023486784476
9.408637873754152,3.6185634483886107
9.428571428571429,3.7528707493572444
9.448504983388705,3.883583933834745
9.46843853820598,4.010567158493482
9.488372093023255,4.133689006041019
9.508305647840533,4.2528224725781
9.528239202657808,4.367844980888552
9.548172757475083,4.478638412488148
9.56810631229236,4.585089153119878
9.588039867109636,4.68708814771182
9.60797342192691,4.784530961774534
9.627906976744187,4.877317846918251
9.647840531561462,4.965353808690576
9.667774086378738,5.048548675324558
9.687707641196015,5.126817166281512
9.70764119601329,5.200078959697532
9.727574750830565,5.268258758015989
9.747508305647841,5.331286351223328
9.767441860465118,5.389096677211775
9.787375415282392,5.441629878877052
9.807308970099669,5.488831357627264
9.827242524916944,5.530651823034366
9.84717607973422,5.567047338405285
9.867109634551497,5.59797936208804
9.887043189368772,5.6234147843602145
9.906976744186046,5.643325959775553
9.926910299003321,5.657690734868621
9.9468438538206,5.66649247113984
9.966777408637874,5.669720063263176
9.986710963455149,5.667367952477994
10.006644518272426,5.659436135144734
10.026578073089702,5.645930166462111
10.046511627906977,5.626861159361886
10.066445182724253,5.60224577861607
10.086378737541528,5.572106230211585
10.106312292358805,5.536470246069128
10.126245847176081,5.495371064207395
10.146179401993356,5.448847404480771
10.16611295681063,5.39694344005037
10.186046511627907,5.339708764784812
10.205980066445184,5.277198356830588
10.225913621262459,5.209472538644204
10.245847176079735,5.136596933841459
10.26578073089701,5.058642421297467
10.285714285714286,4.975685087027422
10.305647840531563,4.887806174499759
10.325581395348838,4.795092034186562
10.345514950166113,4.697634073352945
10.36544850498339,4.595528707339757
10.385382059800666,4.488877313924178
10.40531561461794,4.377786192776141
10.425249169435217,4.262366532604021
10.445182724252492,4.142734389354642
10.465116279069768,4.019010679878944
10.485049833887045,3.891321196907789
10.50498338870432,3.7597966531705254
10.524916943521594,3.624572765280603
10.544850498338871,3.485790391986411
10.564784053156147,3.3435957471242324
10.584717607973422,3.198140716028931
10.604651162790697,3.049583316719087
10.624584717607974,2.8980883662655135
10.64451827242525,2.7438284423630743
10.664451827242525,2.5869852770841617
10.684385382059801,2.4277517961079353
10.704318936877076,2.26633514416438
10.724252491694353,2.102961256806058
10.74418604651163,1.937881929257028
10.764119601328904,1.7713860557498693
10.784053156146179,1.603818108584226
10.803986710963457,1.435609757348344
10.823920265780732,1.2673365990357577
10.843853820598007,1.0998258235190943
