Frequency (Hz),Amplitude
0.0,0.21383066923170158
0.019801980198019802,0.23062026928128332
0.039603960396039604,0.27485059873534173
0.0594059405940594,0.33571885093655063
0.07920792079207921,0.4056261606239729
0.09900990099009901,0.48043266324954065
0.1188118811881188,0.5579387211830258
0.13861386138613863,0.6369117722054659
0.15841584158415842,0.7166085254817666
0.1782178217821782,0.7965458698069721
0.19801980198019803,0.8763869046711891
0.21782178217821782,0.9558812945775581
0.2376237623762376,1.0348324402752158
0.25742574257425743,1.1130785612522678
0.27722772277227725,1.1904813441852415
0.297029702970297,1.2669188872807653
0.31683168316831684,1.342281179507281
0.33663366336633666,1.4164671276643264
0.3564356435643564,1.48938255774207
0.37623762376237624,1.5609388463383025
0.39603960396039606,1.6310519694335635
0.4158415841584158,1.699641833609212
0.43564356435643564,1.7666318020797365
0.45544554455445546,1.831948357386519
0.4752475247524752,1.895520861397388
0.495049504950495,1.9572813854953106
0.5148514851485149,2.0171645919620635
0.5346534653465347,2.0751076530479873
0.5544554455445545,2.131050197983871
0.5742574257425742,2.184934280813583
0.594059405940594,2.236704363778867
0.613861386138614,2.286307312313057
0.6336633663366337,2.3336923986606948
0.6534653465346534,2.3788113118429344
0.6732673267326733,2.421618172209448
0.6930693069306931,2.4620695492066713
0.7128712871287128,2.50012448128628
0.7326732673267327,2.5357444971019274
0.7524752475247525,2.5688936373145754
0.7722772277227723,2.5995384764604967
0.7920792079207921,2.627648144440811
0.8118811881188118,2.6531943472740642
0.8316831683168316,2.676151386819316
0.8514851485148516,2.696496179230263
0.8712871287128713,2.714208271944162
0.891089108910891,2.7292698590445865
0.9108910891089109,2.7416657948667535
0.9306930693069307,2.7513836057389693
0.9504950495049505,2.7584134997751684
0.9702970297029703,2.762748374651896
0.99009900990099,2.7643838233199554
1.00990099009901,2.763318137615713
1.0297029702970297,2.759552309751248
1.0495049504950495,2.753090031676003
1.0693069306930694,2.7439376923154626
1.0891089108910892,2.732104372706551
1.108910891089109,2.717601839062463
1.1287128712871286,2.7004445338154417
1.1485148514851484,2.6806495647017403
1.1683168316831685,2.6582366919721117
1.188118811881188,2.633228313831397
1.2079207920792079,2.6056494502361542
1.227722772277228,2.5755277252077895
1.2475247524752475,2.542893347853731
1.2673267326732673,2.5077790923314125
1.2871287128712872,2.4702202770420523
1.3069306930693068,2.430254743405378
1.3267326732673268,2.387922834647662
1.3465346534653466,2.3432673751373425
1.3663366336633662,2.2963336509329144
1.3861386138613863,2.247169392375351
1.405940594059406,2.19582475977524
1.4257425742574257,2.1423523335294297
1.4455445544554455,2.08680711037935
1.4653465346534653,2.029246508025806
1.4851485148514851,1.9697303809932394
1.504950495049505,1.9083210515604814
1.5247524752475248,1.8450833608478678
1.5445544554455446,1.780084746925512
1.5643564356435644,1.713395359314021
1.5841584158415842,1.6450882228371346
1.6039603960396038,1.5752394689981832
1.6237623762376237,1.503928660746355
1.6435643564356437,1.4312392480514582
1.6633663366336633,1.3572592093816982
1.683168316831683,1.282081961779535
1.7029702970297032,1.205807666304676
1.7227722772277227,1.1285451277391467
1.7425742574257426,1.050414608718717
1.7623762376237624,0.9715520885230371
1.782178217821782,0.8921158728424841
1.801980198019802,0.8122971590859311
1.8217821782178218,0.7323375109585202
1.8415841584158414,0.6525589178451486
1.8613861386138615,0.5734178578960378
1.881188118811881,0.495607427472778
1.900990099009901,0.4202602017776406
1.920792079207921,0.34936740723947163
1.9405940594059405,0.2866367675015955
1.9603960396039604,0.2389294282634663
1.98019801980198,0.2166535230477172
2.0,0.22750318591026164
2.01980198019802,0.2674471029103015
2.0396039603960396,0.3258444311845884
2.0594059405940595,0.39441633814897326
2.0792079207920793,0.4685142496347246
2.099009900990099,0.5456648657303582
2.118811881188119,0.6244943079856105
2.1386138613861387,0.7041837914708554
2.1584158415841586,0.7842077239898703
2.1782178217821784,0.8642039967754325
2.1980198019801978,0.9439065536925749
2.217821782178218,1.0231085341409867
2.237623762376238,1.101641171784591
2.257425742574257,1.179361206333351
2.2772277227722775,1.2561430992851215
2.297029702970297,1.331874068431402
2.3168316831683167,1.4064508347932474
2.336633663366337,1.4797774425224988
2.3564356435643563,1.5517637698253548
2.376237623762376,1.6223244959467202
2.3960396039603964,1.6913783757775331
2.4158415841584158,1.7588477260273891
2.4356435643564356,1.8246580594302906
2.455445544554456,1.8887378241202795
2.4752475247524752,1.9510182187279377
2.495049504950495,2.011433062624252
2.514851485148515,2.069918706715827
2.5346534653465347,2.1264139742873853
2.5544554455445545,2.1808601242313466
2.5742574257425743,2.233200831008558
2.594059405940594,2.2833821771152625
2.6138613861386135,2.3313526548659693
2.633663366336634,2.377063175057809
2.6534653465346536,2.4204670806411883
2.673267326732673,2.461520163938486
2.6930693069306932,2.5001806862672176
2.712871287128713,2.5364093990636594
2.7326732673267324,2.5701695657864425
2.7524752475247527,2.60142698402238
2.7722772277227725,2.630150007327929
2.792079207920792,2.6563095664276553
2.811881188118812,2.6798791894608227
2.8316831683168315,2.7008350210235186
2.8514851485148514,2.71915583979918
2.8712871287128716,2.7348230746079616
2.891089108910891,2.747820818736137
2.910891089108911,2.7581358424332767
2.9306930693069306,2.7657576034869096
2.9504950495049505,2.7706782558041363
2.9702970297029703,2.77289265594663
2.99009900990099,2.772398367581421
3.00990099009901,2.7691956638240542
3.0297029702970297,2.763287527464965
3.0495049504950495,2.754679649083341
3.0693069306930694,2.7433804230665833
3.089108910891089,2.72940094156796
3.108910891089109,2.712754986450134
3.128712871287129,2.6934590192793495
3.148514851485148,2.6715321694535787
3.1683168316831685,2.646996220569662
3.1881188118811883,2.6198755951593826
3.2079207920792077,2.5901973379541046
3.227722772277228,2.557991097872938
3.2475247524752473,2.5232891089726115
3.267326732673267,2.4861261706498747
3.2871287128712874,2.4465396274526494
3.3069306930693068,2.4045693489382143
3.3267326732673266,2.360257710119688
3.346534653465347,2.3136495731739504
3.366336633663366,2.2647922712530772
3.386138613861386,2.2137355954603875
3.4059405940594063,2.1605317863388747
3.4257425742574257,2.1052355315976135
3.4455445544554455,2.047903972305463
3.4653465346534653,1.9885967204587893
3.485148514851485,1.9273758917509738
3.504950495049505,1.8643061586373635
3.5247524752475248,1.7994548305499107
3.5445544554455446,1.7328919705948553
3.564356435643564,1.6646905616051526
3.5841584158415842,1.5949267395426006
3.603960396039604,1.5236801197790377
3.6237623762376234,1.4510342530547773
3.6435643564356437,1.3770772650775065
3.6633663366336635,1.301902760398409
3.683168316831683,1.2256111135642438
3.702970297029703,1.1483113394492281
3.722772277227723,1.0701238497310872
3.7425742574257423,0.9911846002443402
3.762376237623762,0.9116514848725871
3.7821782178217824,0.8317144765439655
3.801980198019802,0.7516122472816357
3.8217821782178216,0.6716604493323153
3.841584158415842,0.592301926543225
3.8613861386138613,0.5142001173754545
3.881188118811881,0.438421272062885
3.9009900990099013,0.366803735723285
3.9207920792079207,0.30270305833191097
3.9405940594059405,0.252269426941004
3.96039603960396,0.22515042275726058
3.98019801980198,0.22987862685411106
4.0,0.26474792036174977
4.01980198019802,0.31995690963047735
4.03960396039604,0.38673746490892374
4.0594059405940595,0.4598825570116322
4.079207920792079,0.5365752252200708
4.099009900990099,0.6152512721080061
4.118811881188119,0.6949854764496205
4.138613861386139,0.7751902388255291
4.158415841584159,0.855465585487996
4.178217821782178,0.9355212558394778
4.198019801980198,1.0151342461183728
4.217821782178218,1.0941245943699764
4.237623762376238,1.172340990229446
4.257425742574258,1.2496519084114384
4.2772277227722775,1.3259399710000195
4.297029702970297,1.4010982640593632
4.316831683168317,1.4750278745280097
4.336633663366336,1.5476362104880528
4.356435643564357,1.6188358369261142
4.376237623762377,1.6885436582807307
4.3960396039603955,1.7566803389247694
4.415841584158416,1.8231698897880464
4.435643564356436,1.8879393728079759
4.455445544554455,1.9509186900964737
4.475247524752476,2.012040434743836
4.4950495049504955,2.0712397869212382
4.514851485148514,2.1284544435482826
4.534653465346535,2.183624572985342
4.554455445544555,2.236692788457006
4.574257425742574,2.287604135513798
4.594059405940594,2.33630608999456
4.613861386138614,2.382748563794964
4.633663366336633,2.426883916369785
4.653465346534653,2.4686669703600836
4.673267326732674,2.508055030085721
4.693069306930693,2.5450079019087823
4.712871287128713,2.5794879156768387
4.732673267326733,2.611459946612362
4.752475247524752,2.6408914371374785
4.772277227722772,2.6677524182197603
4.792079207920793,2.692015529901756
4.811881188118812,2.713656040738494
4.8316831683168315,2.732651865917024
4.851485148514852,2.748983583873084
4.871287128712871,2.762634451253644
4.891089108910891,2.77359041610265
4.910891089108912,2.7818401291714245
4.930693069306931,2.7873749532762573
4.9504950495049505,2.7901889706442398
4.97029702970297,2.790278988205246
4.99009900990099,2.787644540803574
5.00990099009901,2.7822878923174454
5.02970297029703,2.7742140346893445
5.0495049504950495,2.763430684884532
5.069306930693069,2.7499482798104973
5.089108910891089,2.733779969246244
5.108910891089109,2.7149416068479897
5.128712871287129,2.6934517393177906
5.148514851485149,2.669331593844185
5.1683168316831685,2.642605063950369
5.188118811881188,2.6132986939164895
5.207920792079208,2.581441661980007
5.227722772277227,2.547065762563089
5.247524752475248,2.510205387831582
5.267326732673268,2.470897508958549
5.2871287128712865,2.4291816575509593
5.306930693069307,2.38509990780631
5.326732673267327,2.338696860103071
5.346534653465346,2.2900196269053623
5.366336633663367,2.239117822089894
5.3861386138613865,2.1860435551011137
5.405940594059405,2.130851431732202
5.425742574257426,2.0735985638505356
5.445544554455446,2.0143445910856963
5.465346534653465,1.953151718446255
5.485148514851486,1.8900847751317364
5.504950495049505,1.8252113016089824
5.524752475247524,1.7586016745529862
5.544554455445545,1.6903292828519179
5.564356435643565,1.6204707730692023
5.584158415841584,1.5491063903608584
5.603960396039604,1.4763204521705209
5.623762376237624,1.4022020091876757
5.643564356435643,1.3268457745766196
5.663366336633663,1.250353444342358
5.683168316831684,1.1728355993071027
5.702970297029703,1.0944144911626914
5.7227722772277225,1.0152282057966602
5.742574257425743,0.9354370319588706
5.762376237623762,0.8552334711452914
5.782178217821782,0.7748584682993521
5.801980198019803,0.6946286792311431
5.821782178217822,0.6149841371552583
5.841584158415841,0.5365752553315004
5.861386138613861,0.46042866321421744
5.881188118811881,0.388274133837357
5.900990099009901,0.32318548030120925
5.920792079207921,0.27066815279420936
5.9405940594059405,0.23942680179781825
5.96039603960396,0.23814286978806992
5.98019801980198,0.26726936769547455
6.0,0.31849456595171355
6.01980198019802,0.38291057756130825
6.03960396039604,0.45476288717185487
6.0594059405940595,0.5308269887113327
6.079207920792079,0.6092935035729945
6.099009900990099,0.6890936958418109
6.118811881188119,0.7695539041679637
6.138613861386139,0.8502205271088831
6.158415841584159,0.9307685044919677
6.178217821782178,1.0109513549844873
6.198019801980198,1.090572692138464
6.217821782178218,1.16946932173166
6.237623762376237,1.2475008460828707
6.257425742574258,1.324543066024708
6.2772277227722775,1.4004836769634852
6.297029702970296,1.475219394295169
6.316831683168317,1.5486539944232867
6.336633663366337,1.6206969570168792
6.356435643564356,1.691262510947336
6.376237623762377,1.7602689567021268
6.396039603960396,1.8276381815505993
6.415841584158415,1.8932953112351054
6.435643564356436,1.9571684597263792
6.455445544554456,2.019188550285862
6.475247524752475,2.079289188927586
6.495049504950495,2.1374065767249775
6.514851485148515,2.1934794511140097
6.534653465346534,2.247449048947
6.554455445544554,2.2992590859034747
6.574257425742575,2.3488557481988477
6.594059405940594,2.3961876935041717
6.6138613861386135,2.4412060587067037
6.633663366336634,2.483864472674401
6.653465346534653,2.524119072588391
6.673267326732673,2.5619285227116446
6.693069306930694,2.597254034695107
6.712871287128713,2.6300593887024117
6.732673267326732,2.660310954774531
6.752475247524753,2.687977713965992
6.772277227722772,2.7130312788716022
6.792079207920792,2.7354459132326805
6.811881188118813,2.7551985503682723
6.8316831683168315,2.7722688102230633
6.851485148514851,2.786639014861804
6.871287128712871,2.798294202272053
6.891089108910891,2.807222138364187
6.910891089108911,2.813413327081088
6.930693069306931,2.816861018550487
6.9504950495049505,2.8175612152317684
6.97029702970297,2.815512676026012
6.99009900990099,2.8107169183344904
7.00990099009901,2.80317821806674
7.02970297029703,2.7929036076152958
7.0495049504950495,2.779902871830781
7.069306930693069,2.7641885420486867
7.089108910891089,2.7457758882383785
7.108910891089109,2.7246829093665488
7.128712871287128,2.7009303220916645
7.148514851485149,2.6745415479348256
7.1683168316831685,2.645542699105887
7.188118811881187,2.613962563204165
7.207920792079208,2.579832587061967
7.227722772277228,2.5431868600588388
7.247524752475247,2.5040620973085845
7.267326732673268,2.462497623213376
7.287128712871287,2.4185353559956355
7.306930693069306,2.372219793965913
7.326732673267327,2.3235980044743747
7.346534653465347,2.272719616737598
7.366336633663366,2.2196368200507397
7.3861386138613865,2.164404369313396
7.405940594059406,2.1070796003521863
7.425742574257425,2.047722458265895
7.445544554455446,1.986395543023527
7.465346534653466,1.9231641779188955
7.485148514851485,1.8580965083832484
7.504950495049505,1.7912636413127918
7.524752475247524,1.7227398388302457
7.544554455445544,1.6526027858042176
7.564356435643565,1.5809339583294122
7.584158415841584,1.5078191320421654
7.603960396039604,1.4333490867349705
7.623762376237624,1.357620590741174
7.643564356435643,1.2807377908807434
7.663366336633663,1.2028142015558474
7.683168316831684,1.1239755978513322
7.702970297029703,1.0443643049715163
7.7227722772277225,0.9641457014132028
7.742574257425743,0.8835183346930565
7.762376237623762,0.8027301235191695
7.782178217821782,0.7221051783053316
7.801980198019803,0.642089848280308
7.821782178217822,0.5633349112513322
7.841584158415841,0.4868479234783804
7.861386138613862,0.4142833383619011
7.881188118811881,0.3484886615705309
7.900990099009901,0.2943995164316523
7.92079207920792,0.2597298914513637
7.9405940594059405,0.25277987727335705
7.96039603960396,0.2757018185370516
7.980198019801979,0.32212699714376014
8.0,0.383489045456258
8.01980198019802,0.4535942881952672
8.03960396039604,0.5287714309796979
8.05940594059406,0.6069103199260686
8.07920792079208,0.686756017031199
8.099009900990099,0.7675195642864069
8.118811881188119,0.8486740647983138
8.138613861386139,0.9298462653336562
8.158415841584159,1.0107568807091862
8.178217821782178,1.0911864399152296
8.198019801980198,1.170954986463776
8.217821782178218,1.2499095883179852
8.237623762376238,1.3279164117010454
8.257425742574258,1.404855552305947
8.277227722772277,1.4806175836692708
8.297029702970297,1.5551012045407036
8.316831683168317,1.628211607149415
8.336633663366337,1.6998593289416857
8.356435643564357,1.7699594350815362
8.376237623762377,1.8384309313228304
8.396039603960396,1.9051963399207945
8.415841584158416,1.9701813925879434
8.435643564356436,2.0333148085400943
8.455445544554456,2.0945281350843525
8.475247524752476,2.1537556346072266
8.495049504950495,2.2109342062512387
8.514851485148515,2.266003333675955
8.534653465346535,2.3189050525079824
8.554455445544555,2.369583932673806
8.574257425742575,2.417987071966226
8.594059405940595,2.464064098046488
8.613861386138613,2.5077671767172456
8.633663366336634,2.5490510247766824
8.653465346534654,2.5878729261243
8.673267326732672,2.6241927500642865
8.693069306930694,2.6579729709648667
8.712871287128714,2.689178688597234
8.732673267326732,2.717777648607548
8.752475247524753,2.7437402626780463
8.772277227722773,2.7670396280154286
8.792079207920791,2.787651545870767
8.811881188118813,2.8055545388491834
8.831683168316832,2.820729866811848
8.85148514851485,2.833161541209967
8.871287128712872,2.842836337721748
8.891089108910892,2.8497438070904337
8.91089108910891,2.8538762840850636
8.930693069306932,2.855228894526948
8.950495049504951,2.8537995603444175
8.97029702970297,2.8495890026366903
8.990099009900991,2.8426007427459012
9.00990099009901,2.832841101354033
9.029702970297029,2.820319195640274
9.04950495049505,2.805046934553898
9.06930693069307,2.7870390122792847
9.089108910891088,2.766312899993688
9.10891089108911,2.742888836045689
9.12871287128713,2.716789814714078
9.148514851485148,2.6880415737442416
9.16831683168317,2.6566725809040728
9.188118811881187,2.622714019855512
9.207920792079207,2.5861997757041646
9.227722772277229,2.54716642067139
9.247524752475247,2.505653200435373
9.267326732673267,2.461702021816081
9.287128712871288,2.415357442641859
9.306930693069306,2.366666664843583
9.326732673267326,2.3156795320906967
9.346534653465348,2.2624485336321354
9.366336633663366,2.207028816462733
9.386138613861386,2.149478208540554
9.405940594059407,2.089857256588644
9.425742574257425,2.0282292831039648
9.445544554455445,1.9646604686803733
9.465346534653467,1.89921996779659
9.485148514851485,1.8319800690681751
9.504950495049505,1.763016414980954
9.524752475247526,1.6924083018680367
9.544554455445544,1.6202390892240186
9.564356435643564,1.546596759718814
9.584158415841586,1.471574689643176
9.603960396039604,1.395272717517499
9.623762376237623,1.3177986421085137
9.643564356435645,1.2392703501545574
9.663366336633663,1.159818886214661
9.683168316831683,1.07959296361669
9.702970297029704,0.9987657342680767
9.722772277227723,0.9175451955044769
9.742574257425742,0.8361906271015981
9.762376237623764,0.7550393459102012
9.782178217821782,0.6745517011998612
9.801980198019802,0.5953893499954889
9.821782178217823,0.5185557311467672
9.841584158415841,0.4456528640323756
9.861386138613861,0.37934114100276595
9.881188118811881,0.3240534518460776
9.900990099009901,0.2865453516901944
9.92079207920792,0.27440622414259624
9.94059405940594,0.2909044537483859
9.96039603960396,0.33176486560137236
9.98019801980198,0.3892850646823203
10.0,0.4570598489857277
10.01980198019802,0.5309816158476398
10.03960396039604,0.6085930437106796
10.05940594059406,0.6884071445480523
10.07920792079208,0.7694851613312502
10.099009900990099,0.8512025895080592
10.118811881188119,0.9331210045530596
10.138613861386139,1.0149163274385888
10.158415841584159,1.0963373748755727
10.178217821782178,1.1771810859084701
10.198019801980198,1.2572772293243346
10.217821782178218,1.3364786798398733
10.237623762376238,1.4146550688176758
10.257425742574258,1.4916885398809387
10.277227722772277,1.5674708527174148
10.297029702970297,1.641901371448041
10.316831683168317,1.7148856461780762
10.336633663366337,1.786334400264818
10.356435643564357,1.856162800074426
10.376237623762377,1.9242899246130318
10.396039603960396,1.9906383786312387
10.415841584158416,2.0551340100479525
10.435643564356436,2.1177057040888347
10.455445544554454,2.1782852343966246
10.475247524752476,2.2368071568037062
10.495049504950495,2.293208735265802
10.514851485148514,2.3474298921602648
10.534653465346535,2.399413177097128
10.554455445544555,2.4491037498053676
10.574257425742573,2.4964493736966658
10.594059405940595,2.541400417481482
10.613861386138614,2.5839098627914074
10.633663366336632,2.6239333162005853
10.653465346534654,2.661429024373773
10.673267326732674,2.6963578913268713
10.693069306930692,2.728683496986317
10.712871287128714,2.7583721163907375
