Time (s),Filtered Signal
0.0,-0.08545195722377985
0.033370165745856356,-0.012374347867754952
0.06674033149171271,0.05193574827254721
0.10011049723756907,0.0996786513530457
0.13348066298342542,0.12705882447843603
0.16685082872928178,0.1349553521853529
0.20022099447513814,0.12862056013527765
0.2335911602209945,0.11664595617646277
0.26696132596685085,0.10934163217261506
0.30033149171270723,0.1165287636787591
0.33370165745856356,0.14485137470172088
0.3670718232044199,0.19515284536591346
0.4004419889502763,0.2609463283453705
0.43381215469613266,0.3290586102781139
0.467182320441989,0.38286484629443696
0.5005524861878453,0.4073598915497719
0.5339226519337017,0.3942476497401537
0.5672928176795581,0.3449247534187218
0.6006629834254145,0.26996228397757216
0.6340331491712707,0.18516697027622653
0.6674033149171271,0.10583529895062704
0.7007734806629835,0.04164634921364535
0.7341436464088398,-0.005659001148679607
0.7675138121546962,-0.04097800644448654
0.8008839779005525,-0.07179663817978735
0.8342541436464089,-0.10352430454819163
0.8676243093922653,-0.13652743743879842
0.9009944751381216,-0.16618168936238217
0.934364640883978,-0.18561806930881108
0.9677348066298344,-0.18943742320419474
1.0011049723756906,-0.17628070753089214
1.0344751381215471,-0.1489670268353158
1.0678453038674034,-0.11244341432384859
1.1012154696132597,-0.07111552104566654
1.1345856353591162,-0.027460588358727472
1.1679558011049724,0.01703845568864582
1.201325966850829,0.05916496606658417
1.2346961325966852,0.09134022214332027
1.2680662983425415,0.10133297951526747
1.301436464088398,0.07556484007550232
1.3348066298342542,0.0053563033364774785
1.3681767955801105,-0.10645727331671322
1.401546961325967,-0.24198834467374142
1.4349171270718233,-0.3704970080956891
1.4682872928176796,-0.4566815826636693
1.501657458563536,-0.47254577363581163
1.5350276243093923,-0.40825868346100813
1.5683977900552488,-0.2772782242663271
1.601767955801105,-0.11307463192139634
1.6351381215469614,0.041729119153485913
1.6685082872928179,0.14967694224767172
1.7018784530386741,0.19061002658246545
1.7352486187845306,0.16697112441759918
1.768618784530387,0.10067215306896654
1.8019889502762432,0.02344258764650528
1.8353591160220997,-0.035045227738880476
1.868729281767956,-0.05667502433105583
1.9020994475138122,-0.039007450767712094
1.9354696132596687,0.006504499023940912
1.968839779005525,0.060579686582169674
2.0022099447513813,0.10374566589786224
2.0355801104972375,0.12289690572104901
2.0689502762430942,0.1149174104083265
2.1023204419889505,0.08659304866958571
2.135690607734807,0.051150398920323525
2.169060773480663,0.02276796901720195
2.2024309392265193,0.011110171161131657
2.235801104972376,0.018015346433285166
2.2691712707182323,0.037695845758964175
2.3025414364640886,0.06032484868054936
2.335911602209945,0.07729903704978022
2.369281767955801,0.08559769341979928
2.402651933701658,0.08906078829569761
2.436022099447514,0.09597534109541532
2.4693922651933704,0.11430386820721523
2.5027624309392267,0.14715036355505096
2.536132596685083,0.19091322470583086
2.5695027624309392,0.23707392025586324
2.602872928176796,0.27654069324754743
2.636243093922652,0.30404560394480656
2.6696132596685085,0.3200841959248682
2.7029834254143648,0.3293068350740113
2.736353591160221,0.33634048297533037
2.7697237569060777,0.3415892204894694
2.803093922651934,0.33972745006034943
2.8364640883977903,0.32219062878265164
2.8698342541436466,0.28265953944471783
2.903204419889503,0.22253142915931062
2.936574585635359,0.15282246803976104
2.969944751381216,0.09035416670094124
3.003314917127072,0.0489868903396927
3.0366850828729284,0.029770294829964798
3.0700552486187846,0.015536742323602451
3.103425414364641,-0.02556723089051508
3.1367955801104976,-0.12694712041664896
3.170165745856354,-0.3054331344174184
3.20353591160221,-0.5469622493422645
3.2369060773480665,-0.8053267934057848
3.2702762430939227,-1.018592070829615
3.3036464088397794,-1.139113844307576
3.3370165745856357,-1.1640992742933578
3.370386740331492,-1.1493670711728659
3.4037569060773483,-1.1932270590093852
3.4371270718232045,-1.3903079237445313
3.4704972375690613,-1.7718443655808591
3.5038674033149175,-2.260963204053442
3.537237569060774,-2.670872923282963
3.57060773480663,-2.757822993048442
3.6039779005524863,-2.314739805566622
3.6373480662983426,-1.2679586501005629
3.6707182320441993,0.26811389742754427
3.7040883977900556,2.0086432534372367
3.737458563535912,3.586490754790033
3.770828729281768,4.6755994332461155
3.8041988950276244,5.097393004807302
3.837569060773481,4.866374939938242
3.8709392265193374,4.160136178651797
3.9043093922651937,3.2330737630212685
3.93767955801105,2.3154712369104304
3.9710497237569062,1.540956787161706
4.0044198895027625,0.927577558068785
4.037790055248619,0.41117194182187067
4.071160220994475,-0.09273530885065294
4.104530386740332,-0.63128227236046
4.1379005524861885,-1.1868658911891932
4.171270718232044,-1.688373311480261
4.204640883977901,-2.0501841738228403
4.238011049723757,-2.216218307450878
4.271381215469614,-2.1865859688662743
4.30475138121547,-2.0154089564719704
4.338121546961326,-1.7836925526225629
4.371491712707183,-1.5628433226984648
4.404861878453039,-1.3872227677729965
4.438232044198895,-1.2476651579563556
4.471602209944752,-1.1064456969654521
4.504972375690608,-0.9239460701906426
4.538342541436465,-0.6829849365729433
4.5717127071823205,-0.39965331037220114
4.605082872928177,-0.11711618473151561
4.638453038674034,0.11304221854774217
4.67182320441989,0.2524958695664686
4.7051933701657465,0.29141516212249624
4.738563535911602,0.25170028765229624
4.771933701657459,0.17807925095694063
4.805303867403316,0.1215002685192565
4.8386740331491715,0.12149426377321004
4.872044198895028,0.19382707177601302
4.905414364640884,0.3273197838680641
4.938784530386741,0.49015731124615025
4.972154696132597,0.6425602443365718
5.005524861878453,0.750613942203998
5.03889502762431,0.7961350388823557
5.072265193370166,0.7795956776958533
5.105635359116023,0.7162450957760782
5.1390055248618784,0.6281746504289525
5.172375690607735,0.5360705090387874
5.205745856353592,0.45363396832093417
5.239116022099448,0.3858569293494344
5.272486187845304,0.3305866979690297
5.30585635359116,0.2818521038561962
5.339226519337017,0.23336548545360777
5.372596685082874,0.18108608015110242
5.4059668508287295,0.12428633787664528
5.439337016574586,0.06502304917846936
5.472707182320442,0.006357295047369695
5.506077348066299,-0.04984626756747217
5.5394475138121555,-0.10436441099016595
5.572817679558011,-0.16028110227628461
5.606187845303868,-0.22068217297023146
5.639558011049724,-0.2853966614850694
5.672928176795581,-0.3486773211806006
5.706298342541437,-0.39958108500996553
5.739668508287293,-0.4255502182123111
5.77303867403315,-0.41790518397638526
5.806408839779006,-0.37665160545557946
5.839779005524862,-0.31200084613131734
5.873149171270718,-0.24142914045301406
5.906519337016575,-0.1832620983496256
5.939889502762432,-0.1495397854517777
5.9732596685082875,-0.14136415865701504
6.006629834254144,-0.1488329326531497
6.04,-0.15558324799513104
6.073370165745857,-0.14591445675434042
6.1067403314917135,-0.11138218768005198
6.140110497237569,-0.054117693114584225
6.173480662983426,0.014296666319629848
6.206850828729282,0.0775733748304461
6.240220994475139,0.12082875379726399
6.273591160220995,0.13553536682714112
6.306961325966851,0.12166200577109433
6.340331491712708,0.08672326374248986
6.373701657458564,0.04262268858810139
6.40707182320442,0.00170312861437569
6.440441988950277,-0.026666156763019023
6.473812154696133,-0.03807481378585578
6.50718232044199,-0.033292717497288536
6.5405524861878455,-0.016932146787701736
6.573922651933702,0.004808256606218722
6.607292817679559,0.02646213556662086
6.640662983425415,0.0449133049519297
6.674033149171271,0.05990790559778467
6.707403314917127,0.07350300275449859
6.740773480662984,0.08881920289385817
6.774143646408841,0.10856215397755761
6.8075138121546965,0.13370453556994719
6.840883977900553,0.1626230157360734
6.874254143646409,0.1909466314150652
6.907624309392266,0.21232648541765536
6.9409944751381225,0.22013969222280177
6.974364640883978,0.20975258013669137
7.007734806629835,0.1805530145780027
7.041104972375691,0.13681124553943863
7.074475138121548,0.08675700264853524
7.107845303867403,0.04001444786171945
7.14121546961326,0.004361320705124412
7.174585635359117,-0.016804550330475794
7.207955801104973,-0.025194966242002955
7.241325966850829,-0.026336598317868262
7.274696132596685,-0.027011573203505022
7.308066298342542,-0.032725947114625266
7.341436464088399,-0.04631020926956079
7.3748066298342545,-0.0680074991523667
7.408176795580111,-0.09656653791156414
7.441546961325967,-0.1304030730757879
7.474917127071824,-0.1680317833156386
7.5082872928176805,-0.207552604205006
7.541657458563536,-0.24563375997694972
7.575027624309393,-0.27681415825230804
7.608397790055249,-0.29388175585601656
7.641767955801106,-0.2896175197536881
7.675138121546962,-0.2595136643236658
7.708508287292818,-0.20443578747832497
7.741878453038675,-0.1318881753523694
7.775248618784531,-0.054811704644163614
7.808618784530387,0.012237495725257211
7.841988950276244,0.058388769915175234
7.8753591160221,0.08104917854880389
7.908729281767957,0.08747617959822629
7.9420994475138125,0.09212096547696488
7.975469613259669,0.11046623077923706
8.008839779005525,0.1518785478014821
8.042209944751383,0.21465489588182246
8.075580110497238,0.285562530634476
8.108950276243094,0.3441971184683319
8.14232044198895,0.370410350315208
8.175690607734808,0.35183119313351374
8.209060773480664,0.28856201574090123
8.24243093922652,0.1933158477299596
8.275801104972377,0.08703059645766593
8.309171270718233,-0.008312144728860452
8.342541436464089,-0.07691193720913324
8.375911602209946,-0.11369161023128455
8.409281767955802,-0.12453813769288846
8.442651933701658,-0.12240359868920697
8.476022099447514,-0.12112213493159225
8.509392265193371,-0.1296417274403006
8.542762430939227,-0.14899169885985486
8.576132596685083,-0.17294019033799754
8.60950276243094,-0.19163655856505624
8.642872928176796,-0.19635747497603798
8.676243093922652,-0.183244183941464
8.709613259668508,-0.15459780201393775
8.742983425414366,-0.11746526967401526
8.776353591160222,-0.08036508722338177
8.809723756906077,-0.04966922317578866
8.843093922651935,-0.02720105527982366
8.87646408839779,-0.01005495080741217
8.909834254143647,0.007315450352184304
8.943204419889504,0.02971111373821165
8.97657458563536,0.058122941505649284
9.009944751381216,0.08854168674349688
9.043314917127072,0.11336009636023478
9.07668508287293,0.12481937036229394
9.110055248618785,0.11887732119774791
9.143425414364641,0.09757974692091696
9.176795580110499,0.06870258300791367
9.210165745856354,0.04276358018544836
9.24353591160221,0.0287778091591087
9.276906077348068,0.03069527057230108
9.310276243093924,0.04606734913663712
9.34364640883978,0.06740283918215159
9.377016574585635,0.08546057312498938
9.410386740331493,0.09293722640733935
9.443756906077349,0.08694459009760191
9.477127071823205,0.06930496607192796
9.510497237569062,0.04473715054784293
9.543867403314918,0.018015954071473085
9.577237569060774,-0.008301293975539534
9.610607734806631,-0.03429137158446828
9.643977900552487,-0.061005304566139666
9.677348066298343,-0.08783563954992638
9.710718232044199,-0.11079093910229143
9.744088397790057,-0.12318072320812018
9.777458563535912,-0.11876267617937376
9.810828729281768,-0.09572497946477455
9.844198895027626,-0.05908451987350835
9.877569060773482,-0.019784050242933084
9.910939226519337,0.009394142288144688
9.944309392265193,0.019132774368504496
9.97767955801105,0.007415405714829794
10.011049723756907,-0.019966087074665583
10.044419889502763,-0.05225925365029104
10.07779005524862,-0.07827223237175146
10.111160220994476,-0.09027937619527518
10.144530386740332,-0.085740429401325
10.17790055248619,-0.06670185717260071
10.211270718232045,-0.037943649153016366
10.244640883977901,-0.005206629749808323
10.278011049723757,0.025806701074730574
10.311381215469615,0.049902983787529935
10.34475138121547,0.06306455077035737
10.378121546961326,0.06370106921727982
10.411491712707184,0.05402057878496843
10.44486187845304,0.040401453410633587
10.478232044198895,0.03181480433429013
10.511602209944753,0.03637862416805051
10.544972375690609,0.05741484593991562
10.578342541436465,0.09105668987773306
10.61171270718232,0.12696315342822062
10.645082872928178,0.15220025739923548
10.678453038674034,0.15665206112153246
10.71182320441989,0.1373988657074336
10.745193370165747,0.09989860087192981
10.778563535911603,0.05535376873539198
10.811933701657459,0.01554576546826805
10.845303867403315,-0.012312550647301107
10.878674033149172,-0.028181900569173263
10.912044198895028,-0.038060195987957623
10.945414364640884,-0.04984961825425615
10.978784530386742,-0.068511055732776
11.012154696132598,-0.09310257220590673
11.045524861878453,-0.11722706454615239
11.078895027624311,-0.1325590291630329
11.112265193370167,-0.13349778189866343
11.145635359116023,-0.12045531910003683
11.179005524861878,-0.10005319383937318
11.212375690607736,-0.08210064684693148
11.245745856353592,-0.07481682793399852
11.279116022099448,-0.08060436419203273
11.312486187845305,-0.09445115569283424
11.345856353591161,-0.10587047029282652
11.379226519337017,-0.10367914937052852
11.412596685082875,-0.08152802716450283
11.44596685082873,-0.04156100526221825
11.479337016574586,0.005778499029742079
11.512707182320442,0.0461088017481662
11.5460773480663,0.06792874649417237
11.579447513812156,0.06874509393536836
11.612817679558011,0.057309045574214644
11.646187845303869,0.050322686460761955
11.679558011049725,0.06457836731171697
11.71292817679558,0.10794896394949056
11.746298342541436,0.17367141953807247
11.779668508287294,0.24124025516420305
11.81303867403315,0.2842548797042384
11.846408839779006,0.2820594345325211
11.879779005524863,0.2297515212375753
11.91314917127072,0.14145952969618927
11.946519337016575,0.04480517051642907
11.979889502762433,-0.031180845780580838
12.013259668508288,-0.06896974877859542
12.046629834254144,-0.06991680074415998
12.08,-0.0524198651082144
12.113370165745858,-0.041802365791098216
12.146740331491714,-0.057062434899933186
12.18011049723757,-0.1011645895301382
12.213480662983427,-0.15965121320721412
12.246850828729283,-0.20807309332113927
12.280220994475139,-0.22433620578494762
12.313591160220996,-0.19975183000387492
12.346961325966852,-0.14340799443007765
12.380331491712708,-0.07789359692462476
12.413701657458564,-0.02862652935935726
12.447071823204421,-0.012011585006100034
12.480441988950277,-0.028041693807576023
12.513812154696133,-0.06069781329771553
12.54718232044199,-0.08576277498287306
12.580552486187846,-0.08223519481693746
12.613922651933702,-0.0419956297933483
12.64729281767956,0.026608084679443655
12.680662983425416,0.10259987708386628
12.714033149171271,0.1615270310805995
12.747403314917127,0.18556322077679868
12.780773480662985,0.17013713434518418
12.81414364640884,0.12460613548790446
12.847513812154697,0.0673181049090091
12.880883977900554,0.01771262765816265
12.91425414364641,-0.011020038157857811
12.947624309392266,-0.015893952497220358
12.980994475138122,-0.0035710298101214164
13.01436464088398,0.013927179229162581
13.047734806629835,0.0250784588829048
13.081104972375691,0.02372042028426959
13.114475138121549,0.010991857948724098
13.147845303867404,-0.0061693987462535585
13.18121546961326,-0.018969052582752704
13.214585635359118,-0.021155010474823942
13.247955801104974,-0.011866261404984238
13.28132596685083,0.00419451668094175
13.314696132596685,0.019091081262397766
13.348066298342543,0.0252257897011011
13.381436464088399,0.018491220675911645
13.414806629834255,-0.0002674462875072497
13.448176795580112,-0.025831418684231403
13.481546961325968,-0.05064617244402471
13.514917127071824,-0.06725103114713785
13.548287292817681,-0.0701724716639282
13.581657458563537,-0.056911915056584265
13.615027624309393,-0.028212174146986055
13.648397790055249,0.012015264976987856
13.681767955801106,0.05693097011513796
13.715138121546962,0.0973795120960013
13.748508287292818,0.12326185921252458
13.781878453038676,0.12583951454557396
13.815248618784532,0.10058239079502324
13.848618784530387,0.04958589852940337
13.881988950276245,-0.017638978509983475
13.9153591160221,-0.08581704065444966
13.948729281767957,-0.13790789828104782
13.982099447513813,-0.1603087718921596
14.01546961325967,-0.1474301611799489
14.048839779005526,-0.10385562588011439
14.082209944751382,-0.04310926643968916
14.11558011049724,0.016670361014019912
14.148950276243095,0.0586357287481933
14.182320441988951,0.07255994495456426
14.215690607734807,0.057653055560335356
14.249060773480664,0.021930677233325604
14.28243093922652,-0.021419628672660524
14.315801104972376,-0.05905163377696958
14.349171270718234,-0.08176959350695276
14.38254143646409,-0.0865236111417496
14.415911602209945,-0.07567789788651078
14.449281767955803,-0.054455323180044264
14.482651933701659,-0.0281873269133236
14.516022099447515,-0.0007372494837483563
14.54939226519337,0.025559896263655922
14.582762430939228,0.04914848470882711
14.616132596685084,0.06874011258593288
14.64950276243094,0.08354194017462158
14.682872928176797,0.09383895352406052
14.716243093922653,0.10109538734120746
14.749613259668509,0.10711753747319362
14.782983425414367,0.1126804799859052
14.816353591160222,0.11660100030037043
14.849723756906078,0.1160140293716587
14.883093922651934,0.10774596435578548
14.916464088397792,0.08988657160695747
14.949834254143648,0.06258653742215887
14.983204419889503,0.027780337402569008
15.016574585635361,-0.011642916078466492
15.049944751381217,-0.05242212023162288
15.083314917127073,-0.09093082660573627
15.116685082872928,-0.12303234503964539
15.150055248618786,-0.1445351327954847
15.183425414364642,-0.15255360436920357
15.216795580110498,-0.14718439862169655
15.250165745856355,-0.13231180566431178
15.283535911602211,-0.114620726608391
15.316906077348067,-0.1009322764653204
15.350276243093925,-0.09509576001912048
15.38364640883978,-0.09609300142983111
15.417016574585636,-0.09842919395118223
15.450386740331492,-0.09465215980148299
15.48375690607735,-0.0787061735669886
15.517127071823205,-0.048439140003220374
15.550497237569061,-0.006123769519303288
15.583867403314919,0.04302920650632113
15.617237569060775,0.09334436391631067
15.65060773480663,0.1407165057798871
15.683977900552488,0.18319048240494748
15.717348066298344,0.2199939256231563
15.7507182320442,0.249811918683713
15.784088397790056,0.26945417895507096
15.817458563535913,0.2737828666266662
15.85082872928177,0.25708538232540806
15.884198895027625,0.21538707888083602
15.917569060773483,0.14879432821385857
15.950939226519338,0.06291455431671063
15.984309392265194,-0.03135055295010809
16.01767955801105,-0.11988320517831093
16.051049723756908,-0.1889376031051503
16.084419889502765,-0.22923560331613257
16.11779005524862,-0.23912133293389964
16.151160220994477,-0.22536643255991032
16.18453038674033,-0.2009124426922561
16.21790055248619,-0.1800405979558495
16.251270718232046,-0.17268587914331898
16.2846408839779,-0.1802358067028342
16.318011049723758,-0.19474728371734412
16.351381215469615,-0.2021309392728296
16.38475138121547,-0.18807920475701023
16.418121546961327,-0.14422082335846015
16.451491712707185,-0.0718614946111966
16.48486187845304,0.01819016727759407
16.518232044198896,0.10941278410982466
16.551602209944754,0.18517267678030586
16.584972375690608,0.23383175722707467
16.618342541436466,0.251644940655313
16.651712707182323,0.24287295745052612
16.685082872928177,0.2175578936108043
16.718453038674035,0.18792723830798952
16.751823204419892,0.1644701573856762
16.785193370165747,0.15265059313241036
16.818563535911604,0.15114568474584178
16.851933701657458,0.15230907631248689
16.885303867403316,0.14502807883844482
16.918674033149173,0.11924660075781275
16.952044198895027,0.07051446084514958
16.985414364640885,0.0025739352060728453
17.018784530386743,-0.07339214905608492
17.052154696132597,-0.14277578944491628
17.085524861878454,-0.19314147132817233
17.118895027624312,-0.2188436850623404
17.152265193370166,-0.22249762275969517
