Frequency (Hz),Amplitude
0.0,2.7445056423499254
0.020066889632107024,2.745171902405311
0.04013377926421405,2.747167240649228
0.060200668896321065,2.7504813653999327
0.0802675585284281,2.7550972366798674
0.10033444816053512,2.7609912327186423
0.12040133779264213,2.768133377709742
0.14046822742474915,2.776487625751005
0.1605351170568562,2.7860121948255143
0.1806020066889632,2.796659943852301
0.20066889632107024,2.808378785275852
0.22073578595317725,2.821112125373706
0.24080267558528426,2.8347993244329133
0.2608695652173913,2.849376169156154
0.2809364548494983,2.8647753500748747
0.3010033444816054,2.8809269373310067
0.3210702341137124,2.897758848898684
0.34113712374581934,2.915197306110705
0.3612040133779264,2.933167272190523
0.3812709030100334,2.951592870333765
0.4013377926421405,2.9703977787026483
0.42140468227424743,2.9895056004675395
0.4414715719063545,3.0088402077345724
0.4615384615384615,3.0283260588239975
0.4816053511705685,3.0478884889047144
0.5016722408026756,3.067453974443493
0.5217391304347826,3.0869503722956537
0.5418060200668896,3.10630713455095
0.5618729096989966,3.125455500461856
0.5819397993311036,3.1443286669289257
0.6020066889632107,3.1628619391081267
0.6220735785953176,3.180992862747001
0.6421404682274248,3.198661339858523
0.6622073578595318,3.215809729311566
0.6822742474916387,3.2323829338624086
0.7023411371237458,3.2483284750786763
0.7224080267558528,3.2635965575212715
0.7424749163879598,3.278140123455872
0.7625418060200668,3.2919148992669403
0.7826086956521738,3.304879434647291
0.802675585284281,3.316995135537184
0.8227424749163879,3.328226291690496
0.8428093645484949,3.3385400996533274
0.862876254180602,3.347906681852471
0.882943143812709,3.3562991024091637
0.903010033444816,3.363693380216333
0.923076923076923,3.3700684997463677
0.9431438127090299,3.375406419990005
0.963210702341137,3.3796920818656697
0.983277591973244,3.3829134143815414
1.0033444816053512,3.385061339779536
1.0234113712374582,3.3861297778405697
1.0434782608695652,3.3861156494831457
1.0635451505016722,3.3850188797420477
1.0836120401337792,3.3828424001699426
1.1036789297658862,3.3795921506610243
1.1237458193979932,3.3752770806523897
1.1438127090301002,3.3699091496140503
1.1638795986622072,3.363503326692484
1.1839464882943145,3.356077589324043
1.2040133779264215,3.3476529205831094
1.2240802675585283,3.338253304974669
1.2441471571906353,3.3279057223214563
1.2642140468227423,3.31664013933163
1.2842809364548495,3.304489498362846
1.3043478260869565,3.29148970282338
1.3244147157190636,3.277679598569216
1.3444816053511706,3.2631009505683353
1.3645484949832773,3.247798414010011
1.3846153846153846,3.2318194989376576
1.4046822742474916,3.2152145273805863
1.4247491638795986,3.198036581852767
1.4448160535117056,3.180341443978704
1.4648829431438126,3.1621875218993214
1.4849498327759196,3.1436357650078666
1.5050167224080266,3.1247495644713377
1.5250836120401337,3.1055946379119197
1.5451505016722407,3.086238896560876
1.5652173913043477,3.0667522931617053
1.5852842809364547,3.047206648897442
1.605351170568562,3.0276754576580664
1.625418060200669,3.0082336660564843
1.6454849498327757,2.988957427756204
1.6655518394648827,2.9699238308991056
1.6856187290969897,2.95121059772731
1.705685618729097,2.9328957558860234
1.725752508361204,2.9150572813797884
1.745819397993311,2.8977727137350593
1.765886287625418,2.8811187445948088
1.7859531772575248,2.8651707817292733
1.806020066889632,2.850002491276958
1.826086956521739,2.835685321912076
1.846153846153846,2.8222880155413357
1.866220735785953,2.809876110030612
1.8862876254180598,2.7985114403110316
1.9063545150501673,2.78825164496981
1.926421404682274,2.779149686047724
1.9464882943143813,2.771253390196628
1.966555183946488,2.7646050195548333
1.9866220735785953,2.759240880641898
2.0066889632107023,2.75519097923367
2.026755852842809,2.7524787285445464
2.0468227424749164,2.751120717123926
2.0668896321070234,2.751126541691621
2.0869565217391304,2.7524987087339507
2.1070234113712374,2.7552326071134927
2.1270903010033444,2.7593165522781167
2.1471571906354514,2.7647319009628624
2.1672240802675584,2.7714532336368625
2.1872909698996654,2.779448600428688
2.2073578595317724,2.7886798249307128
2.2274247491638794,2.799102859186649
2.2474916387959865,2.8106681823417485
2.267558528428094,2.82332123489993
2.2876254180602005,2.8370028802877933
2.3076923076923075,2.8516498854577135
2.3277591973244145,2.867195412543664
2.3478260869565215,2.8835695140768984
2.367892976588629,2.900699624931116
2.3879598662207355,2.918511044952004
2.408026755852843,2.936927407088213
2.4280936454849495,2.9558711267380096
2.4481605351170566,2.9752638289194926
2.468227424749164,2.9950267507322503
2.4882943143812706,3.0150811173789047
2.508361204013378,3.0353484907399486
2.5284280936454846,3.0557510901321647
2.548494983277592,3.0762120854254418
2.568561872909699,3.096655863143664
2.5886287625418056,3.1170082665361165
2.608695652173913,3.1371968108822164
2.6287625418060196,3.157150875492832
2.648829431438127,3.176801874004333
2.668896321070234,3.196083404636927
2.688963210702341,3.2149313821158993
2.709030100334448,3.2332841529422724
2.7290969899665547,3.2510825956560563
2.749163879598662,3.2682702076690417
2.769230769230769,3.284793180159894
2.789297658862876,3.300600462429541
2.809364548494983,3.3156438170125013
2.82943143812709,3.329877866734621
2.849498327759197,3.3432601348020206
2.869565217391304,3.3557510789025926
2.8896321070234112,3.3673141202014523
2.9096989966555182,3.377915668016584
2.9297658862876252,3.3875251408712823
2.9498327759197323,3.396114984536237
2.9698996655518393,3.4036606875962296
2.9899665551839463,3.4101407950043203
3.0100334448160533,3.415536920020091
3.0301003344481603,3.4198337548666364
3.0501672240802673,3.423019080384426
3.0702341137123748,3.425083774906743
3.0903010033444813,3.4260218225317804
3.1103678929765888,3.425830320918844
3.1304347826086953,3.4245094886907457
3.1505016722408024,3.4220626724795355
3.1705685618729094,3.4184963536084907
3.1906354515050164,3.4138201543579183
3.210702341137124,3.40804684371603
3.2307692307692304,3.4011923424672617
3.250836120401338,3.3932757274184073
3.270903010033445,3.384319234507415
3.2909698996655514,3.374348260479041
3.311036789297659,3.3633913627457583
3.3311036789297654,3.3514802569801194
3.351170568561873,3.3386498119058334
3.3712374581939795,3.3249380406686186
3.391304347826087,3.310386088073657
3.411371237458194,3.295038212874583
3.4314381270903005,3.278941764189063
3.451505016722408,3.2621471509986657
3.471571906354515,3.244707803567007
3.491638795986622,3.2266801254811677
3.511705685618729,3.2081234348893592
3.531772575250836,3.189099893375709
3.551839464882943,3.169674420784301
3.5719063545150496,3.149914594184579
3.591973244147157,3.1298905290640913
3.612040133779264,3.1096747407504846
3.632107023411371,3.0893419840101126
3.652173913043478,3.068969068756018
3.672240802675585,3.0486346498343115
3.692307692307692,3.0284189889558326
3.712374581939799,3.0084036870132875
3.732441471571906,2.9886713852839275
3.752508361204013,2.96930543437572
3.7725752508361197,2.950389530241891
3.7926421404682276,2.9320073171700822
3.8127090301003346,2.914241958352102
3.832775919732441,2.8971756754558684
3.852842809364548,2.8808892595425624
3.872909698996655,2.865461556683184
3.8929765886287626,2.8509689327026098
3.9130434782608696,2.8374847225818898
3.933110367892976,2.825078671136025
3.953177257525083,2.813816372604369
3.9732441471571907,2.8037587176866214
3.9933110367892977,2.7949613572704832
4.013377926421405,2.7874741925690913
4.033444816053511,2.781340901567037
4.053511705685618,2.7765985115215144
4.073578595317726,2.773277026755179
4.093645484949833,2.771399120104629
4.113712374581939,2.770979895166998
4.133779264214047,2.772026724956937
4.153846153846153,2.774539170804887
4.173913043478261,2.7785089833723515
4.193979933110368,2.7839201856202287
4.214046822742475,2.7907492355369827
4.234113712374581,2.798965264510083
4.254180602006689,2.8085303854921184
4.274247491638796,2.819400063646222
4.294314381270903,2.831523541006903
4.314381270903009,2.844844305895609
4.334448160535117,2.8593005973947023
4.354515050167224,2.8748259350994436
4.374581939799331,2.891349664605112
4.394648829431437,2.908797509703407
4.414715719063545,2.927092123004837
4.434782608695651,2.94615362761551
4.454849498327759,2.9659001435178456
4.474916387959866,2.9862482933813554
4.494983277591973,3.0071136836116787
4.5150501672240795,3.0284113574928444
4.535117056856188,3.0500562182561426
4.555183946488294,3.0719634207960294
4.575250836120401,3.0940487315336247
4.595317725752508,3.116228856594105
4.615384615384615,3.1384217390147837
4.635451505016722,3.1605468261391616
4.655518394648829,3.1825253086866967
4.6755852842809364,3.204280333228231
4.695652173913043,3.225737189954645
4.71571906354515,3.2468234777130833
4.735785953177258,3.26746924831326
4.7558528428093645,3.2876071320871674
4.775919732441471,3.3071724466291808
4.795986622073578,3.326103290559576
4.816053511705686,3.3443406240508344
4.8361204013377925,3.361828337739348
4.856187290969899,3.378513311521258
4.8762541806020065,3.3943454646042084
4.896321070234113,3.4092777980607183
4.916387959866221,3.4232664310058922
4.936454849498328,3.4362706314045357
4.956521739130435,3.4482528424014927
4.976588628762541,3.459178704965113
4.996655518394649,3.4690170775372904
5.016722408026756,3.477740053294773
5.036789297658863,3.485322975545167
5.056856187290969,3.4917444517066323
5.076923076923077,3.496986366252155
5.096989966555184,3.5010338929372358
5.117056856187291,3.5038755065722835
5.137123745819398,3.5055029945479235
5.157190635451505,3.505911468271377
5.177257525083611,3.505099374624612
5.197324414715719,3.503068507508641
5.217391304347826,3.4998240194927996
5.237458193979933,3.4953744335416257
5.257525083612039,3.489731654744323
5.277591973244148,3.482910981921819
5.297658862876254,3.474931118932663
5.317725752508361,3.46581418544102
5.337792642140468,3.4555857268461865
5.357859531772575,3.444274723002731
5.377926421404682,3.4319135952823223
5.397993311036789,3.4185382114414433
5.418060200668896,3.4041878876629745
5.438127090301003,3.3889053870329175
5.458193979933109,3.37273691359548
5.478260869565218,3.3557321010008905
5.498327759197324,3.337943994619355
5.518394648829431,3.3194290258428794
5.538461538461538,3.30024697713492
5.558528428093646,3.2804609362173567
5.578595317725752,3.2601372376084603
5.598662207357859,3.2393453895472577
5.618729096989966,3.21815798416457
5.638795986622073,3.1966505885950705
5.65886287625418,3.174901614576489
5.678929765886288,3.152992163961283
5.698996655518394,3.1310058474845146
5.719063545150501,3.109028574103356
5.739130434782608,3.087148308263772
5.759197324414716,3.065454792575294
5.7792642140468224,3.0440392336034003
5.799331103678929,3.02299394883782
5.8193979933110365,3.002411973381473
5.839464882943144,2.982386625541319
5.8595317725752505,2.9630110312999123
5.879598662207358,2.9443776086068807
5.8996655518394645,2.926577513548534
5.919732441471571,2.909700051714935
5.9397993311036785,2.8938320594598212
5.959866220735786,2.879057261198282
5.9799331103678925,2.865455610356044
5.999999999999999,2.8531026230048537
6.020066889632107,2.8420687145147654
6.040133779264214,2.832418550641739
6.060200668896321,2.8242104252641393
6.080267558528428,2.8174956774062556
6.100334448160535,2.8123181601744887
6.120401337792642,2.808713773737992
6.1404682274247495,2.806710073490133
6.160535117056856,2.8063259630434514
6.180602006688963,2.8075714797821636
6.200668896321069,2.8104476784012715
6.2207357859531776,2.814946615302471
6.240802675585284,2.821051434020273
6.260869565217391,2.828736549151587
6.280936454849498,2.8379679236943485
6.301003344481605,2.8487034323895544
6.321070234113712,2.8608933017120433
6.341137123745819,2.874480615644292
6.361204013377926,2.889401875340962
6.381270903010033,2.9055876002620193
6.40133779264214,2.9229629583013406
6.421404682274248,2.9414484128211114
6.441471571906354,2.9609603752562283
6.461538461538461,2.9814118529995435
6.481605351170568,3.002713083535818
6.501672240802676,3.024772147176746
6.521739130434782,3.047495552186205
6.54180602006689,3.070788787506253
6.561872909698996,3.0945568396480554
6.581939799331103,3.1187046715552382
6.60200668896321,3.1431376623538885
6.622073578595318,3.1677620078562154
6.642140468227424,3.1924850824792412
6.662207357859531,3.2172157638774226
6.682274247491639,3.2418647220784966
6.702341137123746,3.2663446752674026
6.722408026755852,3.29057061460072
6.742474916387959,3.31446000056969
6.762541806020066,3.337932933481367
6.782608695652174,3.3609123006109853
6.80267558528428,3.3833239025090642
6.822742474916388,3.4050965608379067
6.842809364548494,3.426162209975428
6.862876254180601,3.446455974469333
6.882943143812709,3.4659162342599616
6.903010033444816,3.484484679421619
6.9230769230769225,3.502106356005364
6.94314381270903,3.5187297044040426
6.963210702341137,3.534306591506558
6.983277591973244,3.5487923377631847
7.0033444816053505,3.5621457401500454
7.023411371237458,3.574329091897194
7.0434782608695645,3.585308199732835
7.063545150501672,3.595052399294264
7.083612040133779,3.6035345692648058
7.103678929765886,3.610731144713393
7.123745819397993,3.6166221300396435
7.143812709030099,3.621191111860491
7.1638795986622075,3.6244252721141237
7.183946488294314,3.6263154016017483
7.204013377926421,3.626855914136671
7.224080267558528,3.6260448614218257
7.2441471571906355,3.623883948730612
7.264214046822742,3.6203785514198805
7.2842809364548495,3.615537732257487
7.304347826086956,3.609374259498339
7.324414715719063,3.6019046255914
7.34448160535117,3.5931490663439707
7.364548494983278,3.583131580307782
7.384615384615384,3.5718799480821897
7.404682274247491,3.5594257511520344
7.424749163879598,3.54580438978956
7.444816053511706,3.5310550994502914
7.464882943143812,3.515220964979692
7.48494983277592,3.4983489318202614
7.505016722408026,3.4804898132656277
7.525083612040134,3.4616982926480935
7.545150501672239,3.4420329191688688
7.565217391304348,3.421556095885148
7.585284280936455,3.40033405815562
7.605351170568561,3.37843684061816
7.625418060200669,3.3559382305313137
7.645484949832775,3.332915705060204
7.665551839464882,3.3094503498320345
7.685618729096991,3.285626755834619
7.705685618729096,3.2615328914933635
7.725752508361204,3.2372599465505827
7.74581939799331,3.2129021442013945
7.765886287625418,3.188556517831954
7.785953177257525,3.1643226486799185
7.806020066889631,3.1403023608180396
7.826086956521739,3.116599370077237
7.846153846153847,3.09331888390135
7.866220735785952,3.0705671496902993
7.88628762541806,3.0484509499653054
7.906354515050166,3.0270770436975702
7.926421404682274,3.006551554391595
7.946488294314381,2.986979307003741
7.966555183946488,2.968463117489541
7.986622073578595,2.951103040673355
8.006688963210701,2.9349955841657858
8.02675585284281,2.9202328981391052
8.046822742474916,2.906901952810016
8.066889632107022,2.895083717356539
8.08695652173913,2.8848523555835524
8.107023411371236,2.876274454819234
8.127090301003344,2.8694083051508015
8.147157190635452,2.8643032460895554
8.167224080267557,2.8609990970235533
8.187290969899665,2.859525686344346
8.207357859531772,2.859902491945029
8.227424749163879,2.862138402957944
8.247491638795987,2.8662316092576328
8.267558528428093,2.8721696215682035
8.2876254180602,2.8799294211812567
8.307692307692307,2.8894777345220084
8.327759197324415,2.900771424301228
8.347826086956522,2.9137579859398532
8.367892976588628,2.928376135495511
8.387959866220736,2.9445564735495595
8.408026755852843,2.9622222084736385
8.42809364548495,2.9812899221766287
8.448160535117056,3.00167036178254
8.468227424749163,3.0232692416172413
8.488294314381271,3.045988041272526
8.508361204013378,3.0697247872434636
8.528428093645484,3.09437480757177
8.548494983277592,3.1198314509546363
8.568561872909697,3.1459867637914107
8.588628762541806,3.172732120555161
8.608695652173914,3.1999588046286376
8.628762541806019,3.2275585382928793
8.648829431438127,3.2554239618773
8.668896321070234,3.283449063166053
8.68896321070234,3.3115295590120457
8.709030100334449,3.339563231752618
8.729096989966555,3.3674502234710713
8.749163879598662,3.3950932914308676
8.769230769230768,3.4223980281515494
8.789297658862875,3.4492730496224318
8.809364548494983,3.4756301550872184
8.82943143812709,3.5013844617017336
8.849498327759196,3.526454517187132
8.869565217391303,3.5507623933889096
8.889632107023411,3.5742337634212182
8.909698996655518,3.596797964837072
8.929765886287624,3.618388051026525
8.949832775919733,3.6389408328130544
8.96989966555184,3.6583969119975843
8.989966555183946,3.676700708392762
9.010033444816054,3.69380048169944
9.030100334448159,3.7096483494029306
9.050167224080267,3.7242003017093896
9.070234113712376,3.737416214401661
9.09030100334448,3.7492598603685803
9.110367892976589,3.7596989204508393
9.130434782608695,3.7687049941488873
9.150501672240802,3.776253610652421
9.17056856187291,3.782324240575807
9.190635451505017,3.7869003087171063
9.210702341137123,3.7899692080994978
9.23076923076923,3.7915223155007207
9.250836120401337,3.791555008627897
9.270903010033445,3.790066685049245
9.290969899665551,3.7870607829507894
9.311036789297658,3.782544803742004
9.331103678929765,3.7765303364894556
9.351170568561873,3.7690330841090067
9.37123745819398,3.7600728911946915
9.391304347826086,3.7496737733027823
9.411371237458194,3.7378639474425577
9.4314381270903,3.724675863447558
9.451505016722408,3.7101462358116706
9.471571906354516,3.6943160754703355
9.49163879598662,3.6772307208871187
9.511705685618729,3.658939867666319
9.531772575250837,3.6394975957525912
9.551839464882942,3.618962393094915
9.57190635451505,3.597397174443823
9.591973244147155,3.5748692937153623
9.612040133779264,3.551450548092116
9.632107023411372,3.5272171717399003
9.652173913043477,3.5022498167001137
9.672240802675585,3.476633518173926
9.692307692307692,3.4504576410500873
9.712374581939798,3.423815804149949
9.732441471571907,3.3968057782816565
9.752508361204013,3.369529353823175
9.77257525083612,3.3420921732099345
9.792642140468226,3.314603523408946
9.812709030100335,3.2871760832465893
9.832775919732441,3.259925620353389
9.852842809364548,3.2329706325360554
9.872909698996656,3.2064319286251073
9.89297658862876,3.180432144321727
9.91304347826087,3.1550951893236885
9.933110367892976,3.130545623088469
9.953177257525082,3.106907958024914
9.97324414715719,3.0843058907126637
9.993311036789297,3.0628614639296896
10.013377926421404,3.0426941647979335
10.033444816053512,3.023919967176395
10.053511705685617,3.0066503294471305
10.073578595317725,2.9909911619225467
10.093645484949834,2.9770417810861582
10.113712374581938,2.964893870570199
10.133779264214047,2.9546304709636826
10.153846153846153,2.946325022021016
10.17391304347826,2.9400404814191
10.193979933110368,2.935828543738288
10.214046822742475,2.9337289817393395
10.234113712374581,2.9337691292675836
10.254180602006688,2.935963521322615
10.274247491638796,2.9403137021597026
10.294314381270903,2.946808206989023
10.31438127090301,2.9554227172202134
10.334448160535118,2.966120383600278
10.354515050167223,2.9788523063489087
10.37458193979933,2.9935581568082976
10.394648829431437,3.0101669214342204
10.414715719063544,3.0285977463223963
10.434782608695652,3.048760858960303
10.454849498327757,3.0705585435030467
10.474916387959865,3.0938861465010508
10.494983277591974,3.1186330915053944
10.515050167224079,3.144683883153014
10.535117056856187,3.1719190839826297
10.555183946488295,3.2002162501484706
10.5752508361204,3.2294508151958725
10.595317725752508,3.2594969139838144
10.615384615384615,3.2902281415604206
10.635451505016722,3.3215182442320925
10.65551839464883,3.353241742162842
10.675585284280936,3.3852744845739067
10.695652173913043,3.4174941399876535
10.71571906354515,3.4497806249933807
10.735785953177256,3.4820164757386425
10.755852842809364,3.5140871668078546
10.775919732441471,3.545881382383106
10.795986622073578,3.5772912446325607
10.816053511705684,3.6082125041807935
10.836120401337793,3.6385446973174256
10.856187290969899,3.668191274328655
