Time (s),Filtered Signal
0.0,0.035966416991765296
0.033370535714285714,0.11691788332461366
0.06674107142857143,0.17254400776745052
0.10011160714285713,0.1910236798459415
0.13348214285714285,0.1807081724093417
0.16685267857142858,0.16706485827780665
0.20022321428571427,0.18075230021099747
0.23359375,0.24205113193615455
0.2669642857142857,0.34881745930334285
0.30033482142857143,0.47386603137430355
0.33370535714285715,0.573644340554039
0.36707589285714287,0.604977359720318
0.40044642857142854,0.5429029313669259
0.43381696428571426,0.39197445778194756
0.4671875,0.1861732111909577
0.5005580357142857,-0.022574132016754844
0.5339285714285714,-0.18254438032473425
0.5672991071428571,-0.25973055071233525
0.6006696428571429,-0.24801904189270021
0.6340401785714286,-0.1687305111173579
0.6674107142857143,-0.06079712560153278
0.70078125,0.033545835591655845
0.7341517857142857,0.08164139498961405
0.7675223214285715,0.0676893142797873
0.8008928571428571,-0.006517309199070485
0.8342633928571428,-0.12550925888212583
0.8676339285714285,-0.26577397427512484
0.9010044642857142,-0.4009762837499166
0.934375,-0.5062589559505133
0.9677455357142857,-0.5621890831971937
1.0011160714285714,-0.5587090301081599
1.0344866071428571,-0.4982830721802361
1.0678571428571428,-0.39641536163190666
1.1012276785714286,-0.2779619544258396
1.1345982142857143,-0.1694341641618928
1.16796875,-0.08988121720640842
1.2013392857142857,-0.04435708021473377
1.2347098214285714,-0.0232334729118892
1.2680803571428572,-0.007858532010974898
1.3014508928571429,0.020212746517502943
1.3348214285714286,0.07102440055591074
1.3681919642857143,0.14293947880604838
1.4015625,0.22529061616785548
1.4349330357142858,0.30470522119139404
1.4683035714285715,0.37109106624132643
1.5016741071428572,0.41997567007657277
1.535044642857143,0.4505025230495258
1.5684151785714286,0.4612225109790773
1.6017857142857141,0.4471460436815869
1.6351562499999999,0.4005922014565035
1.6685267857142856,0.31583469288206817
1.7018973214285713,0.19500024808924818
1.735267857142857,0.051657729106072255
1.7686383928571427,-0.09041792325447433
1.8020089285714285,-0.20341815989228426
1.8353794642857142,-0.2643377184983226
1.86875,-0.2629963734713984
1.9021205357142856,-0.20608856020122818
1.9354910714285714,-0.11557590497736471
1.968861607142857,-0.021703095200945963
2.002232142857143,0.047192057237271656
2.0356026785714287,0.0745508633424226
2.0689732142857142,0.06129818853030778
2.10234375,0.024657997580619505
2.1357142857142857,-0.010073418092833271
2.169084821428571,-0.021766030311759516
2.202455357142857,-0.00436788655056686
2.2358258928571426,0.028869838551049156
2.2691964285714286,0.05055297517894417
2.302566964285714,0.032086902809511486
2.3359375,-0.041109918056844046
2.3693080357142855,-0.15919007719576575
2.4026785714285714,-0.2876641964007619
2.436049107142857,-0.37854818021517816
2.469419642857143,-0.3890111454242066
2.5027901785714284,-0.30004798419174755
2.5361607142857143,-0.1271011235791199
2.56953125,0.08260543035558864
2.6029017857142858,0.2659527856924908
2.6362723214285713,0.3672754342677518
2.669642857142857,0.3597789743883653
2.7030133928571427,0.2558711746710815
2.7363839285714286,0.10161123516094898
2.769754464285714,-0.04268431739066431
2.803125,-0.12736568415912541
2.8364955357142856,-0.13293955644478184
2.8698660714285715,-0.07563457027901191
2.903236607142857,0.002883400517324331
2.936607142857143,0.05613058881935989
2.9699776785714285,0.05366876832740744
3.0033482142857144,-0.007349966087490244
3.03671875,-0.10437418541510879
3.070089285714286,-0.20290010104389478
3.1034598214285714,-0.2736282243432319
3.1368303571428573,-0.30487585750623886
3.170200892857143,-0.30500574476446896
3.2035714285714283,-0.29487257461835326
3.2369419642857142,-0.2947994228782742
3.2703124999999997,-0.31247681178455555
3.3036830357142857,-0.3371312211624836
3.337053571428571,-0.3423418533824773
3.370424107142857,-0.296429132078622
3.4037946428571426,-0.1765496210994415
3.4371651785714286,0.018818414902310492
3.470535714285714,0.2641144834954336
3.50390625,0.5108850081315548
3.5372767857142855,0.7018774272508407
3.5706473214285714,0.7911425891797081
3.604017857142857,0.7630863854121587
3.637388392857143,0.6424052792357339
3.6707589285714284,0.48905154290569913
3.7041294642857143,0.3777117191234634
3.7375,0.36805686348078914
3.7708705357142858,0.4773003039840628
3.8042410714285713,0.6674498403971416
3.837611607142857,0.8547692260494596
3.8709821428571427,0.9397805808834726
3.9043526785714286,0.8465462928051996
3.937723214285714,0.5547080838546783
3.97109375,0.10998567557866436
4.004464285714286,-0.3918735729111018
4.0378348214285715,-0.8406157772641769
4.0712053571428575,-1.150629640586829
4.1045758928571425,-1.2869997044604191
4.1379464285714285,-1.2689733891236528
4.171316964285714,-1.1524533515024853
4.2046875,-1.0020784014589017
4.238058035714285,-0.86612289372211
4.271428571428571,-0.7636470531707393
4.304799107142857,-0.686201179765529
4.338169642857142,-0.6099487865938631
4.371540178571428,-0.5109629850652242
4.404910714285714,-0.377055532385943
4.43828125,-0.21250065632194046
4.471651785714285,-0.03552276667968086
4.505022321428571,0.12906305354849487
4.538392857142857,0.25873542176352454
4.571763392857143,0.34074169471483373
4.605133928571428,0.3762343123564999
4.638504464285714,0.3801636426097978
4.671875,0.3769042082622579
4.705245535714286,0.39250383420322094
4.738616071428571,0.44549970503313163
4.771986607142857,0.5391610963708631
4.805357142857143,0.6581854545039582
4.838727678571429,0.771795176782822
4.872098214285714,0.842954472724763
4.90546875,0.840866555294136
4.938839285714286,0.7522020416663867
4.972209821428572,0.5865858379863816
5.005580357142857,0.3739200704033935
5.038950892857143,0.1544156502516082
5.072321428571429,-0.03467332903896968
5.105691964285715,-0.17018095187849594
5.1390625,-0.2476614863573423
5.172433035714286,-0.2782905186532894
5.2058035714285715,-0.28041999731529665
5.2391741071428575,-0.27038673034244504
5.2725446428571425,-0.2569001653432376
5.3059151785714285,-0.2409029890916464
5.339285714285714,-0.21970032308532103
5.3726562499999995,-0.19212199014893808
5.406026785714285,-0.16149399141969292
5.439397321428571,-0.13498858350598625
5.472767857142857,-0.12026197014981407
5.506138392857142,-0.1217666828205504
5.539508928571428,-0.138991585450685
5.572879464285714,-0.1674114932151343
5.60625,-0.2011552134637477
5.639620535714285,-0.2354352779508255
5.672991071428571,-0.2671487099843935
5.706361607142857,-0.29343841908613605
5.739732142857143,-0.3094977160081431
5.773102678571428,-0.3075825765133545
5.806473214285714,-0.2786373710189397
5.83984375,-0.21641218747776117
5.873214285714286,-0.12227368260239435
5.906584821428571,-0.008034170627219629
5.939955357142857,0.10537025239673252
5.973325892857143,0.19373804277204892
6.006696428571429,0.23810905700479074
6.040066964285714,0.23239041694837217
6.0734375,0.18648490741441678
6.106808035714286,0.12301234445826943
6.140178571428572,0.06856244784570273
6.173549107142857,0.04307984180292632
6.206919642857143,0.0520766860481975
6.240290178571429,0.0852145148844617
6.273660714285715,0.12186358464656023
6.30703125,0.14097409693822466
6.340401785714286,0.1306271495711065
6.3737723214285715,0.09294144922546167
6.407142857142857,0.04238307570457994
6.4405133928571425,-0.0012867626651945673
6.4738839285714285,-0.021798763491310907
6.507254464285714,-0.012809699924180391
6.5406249999999995,0.020555149610421746
6.573995535714285,0.06501486553041075
6.607366071428571,0.10509549257469748
6.640736607142857,0.12880089576749693
6.674107142857142,0.1308303982191772
6.707477678571428,0.11273765033798973
6.740848214285714,0.08081095451094736
6.77421875,0.043110831536733805
6.807589285714285,0.007009221835106271
6.840959821428571,-0.021981420117608105
6.874330357142857,-0.0400325556011837
6.907700892857143,-0.04410588928627355
6.941071428571428,-0.03137242392575233
6.974441964285714,0.00015258700831379898
7.0078125,0.04959679181803577
7.041183035714286,0.11075907893093737
7.074553571428571,0.17091053729724348
7.107924107142857,0.21251054296490454
7.141294642857143,0.21826951702524963
7.174665178571429,0.17810895644388636
7.208035714285714,0.09500517860596816
7.24140625,-0.013534563191611547
7.274776785714286,-0.12010310306971404
7.308147321428572,-0.19711854918970834
7.341517857142857,-0.2279243141373871
7.374888392857143,-0.2143233350938833
7.408258928571429,-0.1766788451609659
7.441629464285715,-0.14577382170541497
7.475,-0.1493491437695434
7.508370535714286,-0.1989402524401184
7.5417410714285715,-0.28301598865263017
7.575111607142857,-0.3701553011367028
7.6084821428571425,-0.42182512087634005
7.6418526785714285,-0.40984863650517156
7.675223214285714,-0.33083590161805687
7.7085937499999995,-0.21027265690882685
7.741964285714285,-0.09301249092141796
7.775334821428571,-0.023232375086805028
7.808705357142857,-0.022631338698948622
7.842075892857142,-0.07764362465031634
7.875446428571428,-0.14304965117247265
7.908816964285714,-0.16169264630004046
7.9421875,-0.09170365316770193
7.975558035714285,0.0718537677381447
8.008928571428571,0.2919512946190241
8.042299107142856,0.5043093667079253
8.075669642857143,0.645209379121869
8.109040178571428,0.6791946887818433
8.142410714285715,0.6135140849551343
8.17578125,0.4927297656865271
8.209151785714285,0.37652805096492376
8.242522321428572,0.3116100809290064
8.275892857142857,0.31090710285106016
8.309263392857142,0.34940156729531907
8.342633928571429,0.37772588288835246
8.376004464285714,0.3464682251059488
8.409375,0.22959458217339732
8.442745535714286,0.036483621865100326
8.47611607142857,-0.19210147702269048
8.509486607142858,-0.401243210836157
8.542857142857143,-0.5437982212853316
8.576227678571428,-0.5972065027762585
8.609598214285715,-0.5685956888294174
8.64296875,-0.48745131930225366
8.676339285714285,-0.3906372540676368
8.709709821428572,-0.3072203874730333
8.743080357142857,-0.24951357852147218
8.776450892857143,-0.21300494698273809
8.809821428571428,-0.1835214550803714
8.843191964285714,-0.14711795911499412
8.8765625,-0.0977825125183564
8.909933035714285,-0.03982588243227382
8.94330357142857,0.01535327708181964
8.976674107142857,0.05589568905228397
9.010044642857142,0.0760045465967513
9.04341517857143,0.07924866623320263
9.076785714285714,0.07724909064159104
9.11015625,0.08457203411089746
9.143526785714286,0.11233491988543967
9.176897321428571,0.16340879354481863
9.210267857142856,0.23107233616888503
9.243638392857143,0.3012019945343712
9.277008928571428,0.3566015249933353
9.310379464285715,0.38161797664343133
9.34375,0.3657328191103409
9.377120535714285,0.3056839252814184
9.410491071428572,0.20616303053749838
9.443861607142857,0.0790957597780553
9.477232142857142,-0.05860786201273257
9.510602678571429,-0.1886394383363614
9.543973214285714,-0.2953070987153934
9.57734375,-0.3685375358714895
9.610714285714286,-0.40469645959803735
9.64408482142857,-0.4051724137036236
9.677455357142858,-0.3739343015163336
9.710825892857143,-0.31578053707318576
9.744196428571428,-0.23633252672223087
9.777566964285715,-0.14340972809114566
9.8109375,-0.0482279904261908
9.844308035714285,0.035270352823254025
9.877678571428572,0.09356312142674339
9.911049107142857,0.11811530126435958
9.944419642857143,0.1091105739591258
9.977790178571428,0.07618624923864388
10.011160714285714,0.03545659665041113
10.04453125,0.004073023215672673
10.077901785714285,-0.005180337217325085
10.11127232142857,0.013004174140938065
10.144642857142857,0.05642720020453503
10.178013392857142,0.11756879366862923
10.21138392857143,0.18636419562716738
10.244754464285714,0.25232976347619607
10.278125,0.30578264067682326
10.311495535714286,0.33865055879341865
10.344866071428571,0.3454310364471049
10.378236607142856,0.3243483817624427
10.411607142857143,0.27815390066009615
10.444977678571428,0.213811290352394
10.478348214285715,0.14072072741407
10.51171875,0.06796611781224474
10.545089285714285,0.0017940405570207123
10.578459821428572,-0.055396659517015036
10.611830357142857,-0.10403662103429581
10.645200892857142,-0.14502957220253704
10.678571428571429,-0.17764449448657318
10.711941964285714,-0.19917227208204796
10.745312499999999,-0.2067491304944953
10.778683035714286,-0.20023226521831095
10.81205357142857,-0.18410484848615655
10.845424107142858,-0.16680724141293113
10.878794642857143,-0.15749614298205275
10.912165178571428,-0.16199552003183368
10.945535714285715,-0.18036098667737313
10.97890625,-0.20747143069884746
11.012276785714285,-0.23603253927888485
11.045647321428572,-0.25978592186526694
11.079017857142857,-0.2747674824608504
11.112388392857143,-0.27814340958877753
11.145758928571428,-0.2661972222343082
11.179129464285714,-0.23384332735758864
11.2125,-0.17691147873616558
11.245870535714285,-0.09617107869548709
11.27924107142857,-0.00033179619666796266
11.312611607142857,0.09461312110300893
11.345982142857142,0.1703381528172784
11.37935267857143,0.21345859500906644
11.412723214285714,0.2215352958568758
11.44609375,0.20455440417018042
11.479464285714286,0.18075165405531618
11.512834821428571,0.16848717506025696
11.546205357142856,0.17800290413233402
11.579575892857143,0.2072046022533671
11.612946428571428,0.24381175947511396
11.646316964285715,0.27302765941156476
11.6796875,0.2868054821314419
11.713058035714285,0.28948443570610155
11.746428571428572,0.2960034825041757
11.779799107142857,0.32267491535539156
11.813169642857142,0.37483583991585395
11.846540178571429,0.4381973660638246
11.879910714285714,0.4796656289903111
11.913281249999999,0.45892545500869536
11.946651785714286,0.3463140494269252
11.98002232142857,0.138643283059254
12.013392857142858,-0.13498839166831028
12.046763392857143,-0.42071120471825996
12.080133928571428,-0.6576220543993934
12.113504464285715,-0.7979416803239805
12.146875,-0.8211963188208796
12.180245535714285,-0.7374760910220989
12.213616071428572,-0.5800849699435843
12.246986607142857,-0.39215383600427167
12.280357142857143,-0.21324215496428542
12.313727678571428,-0.07054563728487125
12.347098214285714,0.023646135982705693
12.38046875,0.06945339113982922
12.413839285714285,0.07463199623772455
12.44720982142857,0.05021985027437873
12.480580357142857,0.008083289643752833
12.513950892857142,-0.03970408053128093
12.54732142857143,-0.08080673813299385
12.580691964285714,-0.10324258531942011
12.6140625,-0.09733849308440255
12.647433035714286,-0.058604848286675865
12.680803571428571,0.00977817996387123
12.714174107142856,0.09637293938533319
12.747544642857143,0.18370984112367178
12.780915178571428,0.2531040104063316
12.814285714285713,0.2906373931676569
12.84765625,0.2921110675112404
12.881026785714285,0.26481445599939524
12.914397321428572,0.22494268676935986
12.947767857142857,0.1911909602223369
12.981138392857142,0.17684478899385125
13.014508928571429,0.18372437579689083
13.047879464285714,0.20094711423446918
13.081249999999999,0.20955117050215738
13.114620535714286,0.19128435295563478
13.14799107142857,0.1376145351544539
13.181361607142858,0.05455499735834487
13.214732142857143,-0.03927275595806243
13.248102678571428,-0.12055600612279257
13.281473214285715,-0.17130135370400254
13.31484375,-0.1860147668225241
13.348214285714285,-0.17279423587061826
13.381584821428572,-0.1484216562133687
13.414955357142857,-0.13052201084661702
13.448325892857143,-0.13079759265483829
13.481696428571428,-0.15198582470908653
13.515066964285714,-0.18870957889812537
13.5484375,-0.23045877856017008
13.581808035714285,-0.26459049486056746
13.61517857142857,-0.27830812848869146
13.648549107142857,-0.2600357855353167
13.681919642857142,-0.20130441155644924
13.71529017857143,-0.09972078223972307
13.748660714285714,0.03777275711487248
13.78203125,0.19328104226678772
13.815401785714286,0.33987527511844595
13.848772321428571,0.44751067707039227
13.882142857142856,0.4913173008810229
13.915513392857143,0.4591506056925569
13.948883928571428,0.35536090677909016
13.982254464285713,0.1993999607522802
14.015625,0.020188100531309146
14.048995535714285,-0.15119725314070917
14.082366071428572,-0.28783837131155326
14.115736607142857,-0.3708949950138469
14.149107142857142,-0.39133537817489544
14.182477678571429,-0.3504793883413452
14.215848214285714,-0.25988074350069085
14.249218749999999,-0.14000384151833375
14.282589285714286,-0.01667277384855195
14.31595982142857,0.08491309557279195
14.349330357142858,0.14712320220010536
14.382700892857143,0.1650437962096745
14.416071428571428,0.14728807016515663
14.449441964285715,0.11172690273117188
14.4828125,0.0778106494516338
14.516183035714285,0.0588167367222199
14.549553571428572,0.057377070015287766
14.582924107142857,0.06603781904300013
14.616294642857143,0.07223126911366663
14.649665178571428,0.06507856106281129
14.683035714285714,0.04080849774609989
14.71640625,0.004477699465671165
14.749776785714285,-0.032456884953637216
14.78314732142857,-0.05731523918038139
14.816517857142857,-0.06172617484779887
14.849888392857142,-0.04524418669689593
14.88325892857143,-0.015748824990743576
14.916629464285714,0.01339444382069013
14.95,0.02830525793794825
14.983370535714286,0.019899654757313166
15.016741071428571,-0.012360467363265112
15.050111607142856,-0.05970215506569453
15.083482142857143,-0.10670953273314077
15.116852678571428,-0.13664493549902754
15.150223214285713,-0.13755606199177822
15.18359375,-0.10683872239093306
15.216964285714285,-0.05241140103760246
15.250334821428572,0.010006125653325055
15.283705357142857,0.062416620439521835
15.317075892857142,0.09068438606471935
15.350446428571429,0.0890126742569287
15.383816964285714,0.06133608151315715
15.417187499999999,0.019479254167098822
15.450558035714286,-0.0209816646820831
15.48392857142857,-0.04567324543821676
15.517299107142858,-0.04570105304899472
15.550669642857143,-0.02007986663767414
15.584040178571428,0.024339820401803405
15.617410714285715,0.07544545508842739
15.65078125,0.12015699572604695
15.684151785714285,0.14896274063333403
15.717522321428572,0.15893066637548992
15.750892857142857,0.15385326019634765
15.784263392857143,0.14132180168201405
15.817633928571428,0.12797275960111867
15.851004464285714,0.1152078144813652
15.884375,0.09770998197472404
15.917745535714285,0.06586299860057887
15.95111607142857,0.011208596054370879
15.984486607142857,-0.06765795472292506
16.017857142857142,-0.16186418401335478
16.05122767857143,-0.2537192663120167
16.084598214285712,-0.3226344858634169
16.11796875,-0.3530279925601114
16.151339285714286,-0.3406050036828779
16.18470982142857,-0.29400131492176906
16.218080357142856,-0.2308696666966662
16.251450892857143,-0.17011750080877602
16.28482142857143,-0.12391440746678119
16.318191964285713,-0.0932854951374137
16.3515625,-0.06936598940557112
16.384933035714287,-0.039473411189348766
16.41830357142857,0.005444561874758198
16.451674107142857,0.0662030786422966
16.485044642857144,0.1361767997162981
16.518415178571427,0.20678556065311438
16.551785714285714,0.2739433426037522
16.58515625,0.3408939754066323
16.618526785714284,0.41486420263661594
16.65189732142857,0.4988155970039573
16.685267857142858,0.5830683321377591
16.71863839285714,0.6425551208587053
16.752008928571428,0.6430865176374742
16.785379464285715,0.5552638200350377
16.81875,0.3700045772676192
16.852120535714285,0.10772474239101455
16.88549107142857,-0.18451523156914718
16.91886160714286,-0.4479317126250794
16.95223214285714,-0.6328093249861177
16.98560267857143,-0.7156132402712757
17.018973214285715,-0.7044627242664364
17.05234375,-0.6308765922072639
17.085714285714285,-0.5327014282821956
17.119084821428572,-0.4373964710530442
17.152455357142856,-0.35404004371680986
17.185825892857142,-0.2770890222901082
17.21919642857143,-0.1981544113284085
17.252566964285712,-0.11769339213248081
17.2859375,-0.04897585743836858
17.319308035714286,-0.011612477190397152
17.35267857142857,-0.018444764641363666
17.386049107142856,-0.06391511902204458
17.419419642857143,-0.12162240241534518
17.45279017857143,-0.15377227620724981
17.486160714285713,-0.12840484814127803
17.51953125,-0.03546202786105399
17.552901785714287,0.1072571268459292
17.58627232142857,0.2622081539999349
