Frequency (Hz),Amplitude
0.0,0.8706865379026081
0.019867549668874173,0.8706894696101366
0.039735099337748346,0.8706982656562247
0.059602649006622516,0.8707129287542251
0.07947019867549669,0.8707334632362115
0.09933774834437085,0.87075987476941
0.11920529801324503,0.8707921699623384
0.13907284768211922,0.8708303558639923
0.15894039735099338,0.8708744393600618
0.17880794701986755,0.8709244264711887
0.1986754966887417,0.8709803215589744
0.2185430463576159,0.8710421264463593
0.23841059602649006,0.871109839459573
0.2582781456953642,0.8711834543998063
0.27814569536423844,0.8712629594530766
0.2980132450331126,0.8713483360477192
0.31788079470198677,0.8714395576691275
0.33774834437086093,0.8715365886421302
0.3576158940397351,0.8716393828915749
0.3774834437086093,0.8717478826921551
0.3973509933774834,0.871862017418766
0.4172185430463576,0.8719817023087718
0.4370860927152318,0.8721068372478284
0.45695364238410596,0.8722373055907897
0.4768211920529801,0.8723729730292975
0.49668874172185434,0.8725136865174558
0.5165562913907285,0.8726592732668245
0.5364238410596026,0.8728095398216873
0.5562913907284769,0.8729642712251597
0.5761589403973509,0.8731232302863242
0.5960264900662252,0.8732861569580311
0.6158940397350993,0.8734527678344194
0.6357615894039735,0.8736227557766673
0.6556291390728477,0.8737957896746221
0.6754966887417219,0.8739715143513613
0.695364238410596,0.8741495506168334
0.7152317880794702,0.8743294954758368
0.7350993377483444,0.8745109224948324
0.7549668874172186,0.8746933823310026
0.7748344370860927,0.874876403426037
0.7947019867549668,0.8750594928662149
0.8145695364238411,0.8752421374092066
0.8344370860927152,0.875423804677169
0.8543046357615894,0.8756039445144238
0.8741721854304636,0.8757819905073245
0.8940397350993378,0.875957361662552
0.9139072847682119,0.8761294642393306
0.9337748344370861,0.8762976937299037
0.9536423841059603,0.8764614369817793
0.9735099337748344,0.8766200744541802
0.9933774834437087,0.876772982600365
1.0132450331125828,0.8769195363665317
1.033112582781457,0.877059111797291
1.0529801324503312,0.8771910887367816
1.0728476821192052,0.8773148536139866
1.0927152317880795,0.8774298022999613
1.1125827814569538,0.8775353430241611
1.1324503311258278,0.8776308993364935
1.1523178807947019,0.8777159131012702
1.1721854304635762,0.8777898475086862
1.1920529801324504,0.8778521900892878
1.2119205298013245,0.877902455716303
1.2317880794701985,0.8779401895808336
1.2516556291390728,0.8779649701243902
1.271523178807947,0.8779764119133845
1.2913907284768211,0.8779741684400185
1.3112582781456954,0.8779579348340626
1.3311258278145695,0.8779274504702325
1.3509933774834437,0.8778825014557164
1.370860927152318,0.8778229229829796
1.390728476821192,0.87774860153301
1.410596026490066,0.8776594769145695
1.4304635761589404,0.8775555441254513
1.4503311258278146,0.8774368550222155
1.4701986754966887,0.8773035197853322
1.4900662251655628,0.8771557081673087
1.5099337748344372,0.8769936505120308
1.5298013245033113,0.8768176385342483
1.5496688741721854,0.8766280258489009
1.5695364238410596,0.8764252282408286
1.5894039735099337,0.8762097236663271
1.609271523178808,0.8759820519789356
1.6291390728476822,0.8757428143729027
1.6490066225165563,0.8754926725388382
1.6688741721854303,0.8752323475271879
1.6887417218543048,0.8749626183164256
1.7086092715231789,0.8746843200840735
1.728476821192053,0.8743983421799527
1.7483443708609272,0.8741056258025216
1.7682119205298013,0.8738071613804937
1.7880794701986755,0.8735039856634628
1.8079470198675496,0.8731971785267216
1.8278145695364238,0.8728878594970162
1.847682119205298,0.8725771840076193
1.8675496688741722,0.8722663393926413
1.8874172185430464,0.871956540632115
1.9072847682119205,0.8716490258611089
1.9271523178807946,0.8713450516576876
1.9470198675496688,0.8710458881260692
1.9668874172185429,0.87075281379323
1.9867549668874174,0.8704671103383328
2.0066225165562916,0.8701900571762672
2.0264900662251657,0.8699229259177881
2.0463576158940397,0.8696669747302571
2.066225165562914,0.8694234426241494
2.086092715231788,0.8691935436918281
2.1059602649006623,0.8689784613259794
2.1258278145695364,0.8687793424461717
2.1456953642384105,0.8685972917626997
2.165562913907285,0.868433366107465
2.185430463576159,0.8682885688622032
2.205298013245033,0.8681638445145163
2.2251655629139075,0.8680600733722069
2.2450331125827816,0.8679780664664027
2.2649006622516556,0.8679185606734765
2.2847682119205297,0.8678822140852158
2.3046357615894038,0.8678696016559702
2.324503311258278,0.8678812111544228
2.3443708609271523,0.8679174394464476
2.364238410596027,0.8679785891341237
2.384105960264901,0.8680648655742065
2.403973509933775,0.8681763742977329
2.423841059602649,0.8683131188502619
2.443708609271523,0.8684749990701985
2.463576158940397,0.8686618098202541
2.4834437086092715,0.8688732401847491
2.5033112582781456,0.8691088731428404
2.52317880794702,0.8693681857251959
2.543046357615894,0.8696505496588451
2.562913907284768,0.8699552325023926
2.5827814569536423,0.8702813992708385
2.6026490066225163,0.8706281145466458
2.622516556291391,0.8709943450710123
2.642384105960265,0.8713789628065478
2.662251655629139,0.8717807484602051
2.6821192052980134,0.8721983954526215
2.7019867549668874,0.8726305143178912
2.7218543046357615,0.8730756375154559
2.741721854304636,0.8735322246338287
2.76158940397351,0.873998667963922
2.781456953642384,0.8744732984180104
2.801324503311258,0.8749543917688977
2.821192052980132,0.8754401751824403
2.8410596026490067,0.8759288340153633
2.8609271523178808,0.8764185188493687
2.8807947019867552,0.8769073527317508
2.9006622516556293,0.8773934385920289
2.9205298013245033,0.8778748668036604
2.9403973509933774,0.8783497228597142
2.9602649006622515,0.8788160951310608
2.9801324503311255,0.8792720826758466
3.0,0.8797158030689703
3.0198675496688745,0.8801454002207578
3.0397350993377485,0.8805590521541903
3.0596026490066226,0.8809549787107211
3.0794701986754967,0.881331449155114
3.0993377483443707,0.8816867896505267
3.119205298013245,0.8820193905756578
3.1390728476821192,0.8823277136565474
3.1589403973509933,0.8826102988864892
3.1788079470198674,0.8828657712082778
3.198675496688742,0.8830928469338647
3.218543046357616,0.8832903398774384
3.23841059602649,0.883457167178738
3.2582781456953644,0.8835923547943904
3.2781456953642385,0.8836950426358975
3.2980132450331126,0.8837644893338111
3.3178807947019866,0.8838000766085476
3.3377483443708607,0.8838013132292009
3.3576158940397347,0.8837678385425628
3.3774834437086096,0.883699425555561
3.3973509933774837,0.8835959835551542
3.4172185430463577,0.8834575602507292
3.437086092715232,0.8832843434249815
3.456953642384106,0.8830766620802399
3.47682119205298,0.8828349870682793
3.4966887417218544,0.8825599311926281
3.5165562913907285,0.882252248773698
3.5364238410596025,0.8819128346680457
3.556291390728477,0.881542722734551
3.576158940397351,0.8811430837415247
3.596026490066225,0.8807152227102995
3.615894039735099,0.8802605756924036
3.6357615894039736,0.8797807059790774
3.6556291390728477,0.879277299743769
3.6754966887417218,0.8787521611201412
3.695364238410596,0.8782072067201827
3.7152317880794703,0.877644459599314
3.7350993377483444,0.8770660426776662
3.754966887417219,0.8764741716292934
3.774834437086093,0.8758711472536428
3.794701986754967,0.8752593473465204
3.814569536423841,0.8746412180905105
3.834437086092715,0.8740192649880615
3.854304635761589,0.8733960433634074
3.8741721854304636,0.8727741484627335
3.8940397350993377,0.8721562051852658
3.9139072847682117,0.8715448574813083
3.9337748344370858,0.8709427574563595
3.9536423841059607,0.8703525542238867
3.9735099337748347,0.8697768825523562
3.993377483443709,0.8692183513552072
4.013245033112583,0.8686795320753914
4.033112582781457,0.868162947018692
4.052980132450331,0.8676710576925605
4.072847682119205,0.8672062532092749
4.0927152317880795,0.8667708388140085
4.112582781456953,0.8663670245999155
4.132450331125828,0.8659969144730855
4.152317880794702,0.8656624954309547
4.172185430463576,0.8653656272176045
4.19205298013245,0.8651080324188758
4.211920529801325,0.864891287059234
4.231788079470199,0.8647168117604399
4.251655629139073,0.8645858635202024
4.271523178807947,0.8644995281658042
4.291390728476821,0.8644587135346731
4.311258278145695,0.8644641434297665
4.33112582781457,0.8645163523933584
4.3509933774834435,0.8646156813379215
4.370860927152318,0.8647622740675246
4.390728476821192,0.864956074717539
4.410596026490066,0.8651968261345081
4.43046357615894,0.865484069211884
4.450331125827815,0.8658171431909798
4.470198675496689,0.8661951869301222
4.490066225165563,0.866617141138556
4.509933774834438,0.8670817515652753
4.529801324503311,0.8675875731268611
4.549668874172186,0.868132974952222
4.569536423841059,0.8687161463167103
4.589403973509934,0.8693351034324064
4.6092715231788075,0.869987697056656
4.629139072847682,0.8706716208762612
4.649006622516556,0.8713844206206879
4.66887417218543,0.8721235038541858
4.688741721854305,0.8728861503935588
4.708609271523179,0.8736695232959678
4.728476821192054,0.874470680358995
4.748344370860927,0.8752865860740278
4.768211920529802,0.87611412397282
4.788079470198675,0.8769501093068137
4.80794701986755,0.8777913019988257
4.827814569536423,0.8786344198070473
4.847682119205298,0.8794761516422461
4.867549668874172,0.8803131709801989
4.887417218543046,0.8811421493129074
4.9072847682119205,0.8819597695838102
4.927152317880794,0.8827627395543458
4.947019867549669,0.8835478050510918
4.966887417218543,0.8843117630452709
4.986754966887418,0.8850514745185655
5.006622516556291,0.8857638770716904
5.026490066225166,0.8864459972343874
5.04635761589404,0.8870949624383475
5.066225165562914,0.8877080126163446
5.086092715231788,0.8882825113936179
5.105960264900662,0.8888159568394485
5.125827814569536,0.8893059917490996
5.14569536423841,0.8897504134281261
5.1655629139072845,0.8901471829529493
5.185430463576159,0.8904944338832522
5.205298013245033,0.8907904804032427
5.225165562913908,0.8910338248702615
5.245033112582782,0.8912231647504739
5.264900662251656,0.891357398922316
5.28476821192053,0.8914356333297239
5.304635761589404,0.8914571859675625
5.324503311258278,0.8914215911829422
5.344370860927152,0.8913286032762575
5.364238410596027,0.8911781993870498
5.3841059602649,0.8909705816496686
5.403973509933775,0.8907061786048965
5.4238410596026485,0.8903856458537598
5.443708609271523,0.8900098659406903
5.463576158940397,0.8895799474535941
5.483443708609272,0.8890972233292225
5.503311258278146,0.8885632483529905
5.52317880794702,0.8879797958433715
5.543046357615895,0.8873488535121623
5.562913907284768,0.8866726184930821
5.582781456953643,0.8859534915328757
5.602649006622516,0.8851940703408017
5.622516556291391,0.8843971420944043
5.642384105960264,0.8835656751020103
5.662251655629139,0.8827028096248559
5.682119205298013,0.8818118478650186
5.701986754966887,0.880896243128662
5.7218543046357615,0.8799595881777948
5.741721854304636,0.8790056027880608
5.7615894039735105,0.8780381205345512
5.781456953642384,0.8770610748324523
5.801324503311259,0.876078484264807
5.821192052980132,0.8750944372350095
5.841059602649007,0.8741130759877225
5.860927152317881,0.8731385800478776
5.880794701986755,0.8721751491338459
5.900662251655629,0.8712269856071403
5.920529801324503,0.8702982765276228
5.940397350993377,0.8693931753894493
5.960264900662251,0.8685157836194155
5.980132450331126,0.8676701319251947
6.0,0.8668601615868308
6.0198675496688745,0.86608970578982
6.039735099337749,0.8653624711028334
6.059602649006623,0.8646820192070023
6.079470198675497,0.8640517489866485
6.099337748344371,0.8634748790934624
6.119205298013245,0.8629544310973428
6.139072847682119,0.8624932133367909
6.158940397350993,0.8620938055807893
6.178807947019867,0.8617585446113529
6.198675496688741,0.8614895108324255
6.218543046357616,0.8612885160054282
6.23841059602649,0.8611570922058195
6.258278145695365,0.861096482087214
6.2781456953642385,0.8611076305310841
6.298013245033113,0.8611911777502849
6.317880794701987,0.8613474539040635
6.337748344370861,0.8615764752706573
6.357615894039735,0.86187794201172
6.377483443708609,0.8622512375500071
6.397350993377484,0.8626954295693158
6.417218543046357,0.8632092726325443
6.437086092715232,0.8637912124011213
6.456953642384105,0.8644393914265963
6.47682119205298,0.8651516564733089
6.496688741721854,0.8659255673196211
6.516556291390729,0.8667584069748998
6.5364238410596025,0.8676471932397313
6.556291390728477,0.868588691528531
6.5761589403973515,0.8695794288661609
6.596026490066225,0.870615708964243
6.6158940397351,0.8716936282776353
6.635761589403973,0.8728090929381377
6.655629139072848,0.8739578364597309
6.675496688741721,0.8751354381085508
6.695364238410596,0.8763373418305102
6.715231788079469,0.8775588756303565
6.735099337748344,0.8787952712978107
6.754966887417219,0.8800416843790517
6.774834437086093,0.8812932142953118
6.794701986754967,0.8825449245143074
6.814569536423841,0.8837918626849424
6.8344370860927155,0.8850290806505415
6.854304635761589,0.8862516542613799
6.874172185430464,0.8874547029124782
6.894039735099337,0.8886334087384499
6.913907284768212,0.8897830354026015
6.933774834437086,0.8908989464229622
6.95364238410596,0.8919766229833437
6.973509933774834,0.8930116811825584
6.993377483443709,0.8939998886797338
7.013245033112583,0.8949371806982583
7.033112582781457,0.8958196753550035
7.052980132450331,0.8966436882853118
7.072847682119205,0.8974057465375447
7.0927152317880795,0.8981026017141374
7.112582781456954,0.8987312423386481
7.132450331125828,0.899288905430434
7.152317880794702,0.8997730872705201
7.172185430463576,0.9001815533436782
7.19205298013245,0.9005123474427044
7.211920529801324,0.9007637999218193
7.231788079470198,0.9009345350864725
7.251655629139073,0.901023477707035
7.271523178807947,0.9010298586438412
7.291390728476822,0.9009532195707073
7.311258278145695,0.9007934167836316
7.33112582781457,0.9005506240807634
7.3509933774834435,0.9002253346990653
7.370860927152318,0.8998183622922333
7.390728476821192,0.8993308409338003
7.410596026490066,0.8987642241283779
7.430463576158941,0.8981202828136
7.450331125827814,0.8974011023344428
7.470198675496689,0.8966090783714791
7.490066225165562,0.895746911804328
7.509933774834438,0.8948176024917276
7.52980132450331,0.8938244419501389
7.549668874172186,0.89277100491372
7.569536423841059,0.8916611397597389
7.589403973509934,0.8904989577854971
7.6092715231788075,0.8892888213251736
7.629139072847682,0.8880353306982433
7.649006622516557,0.886743309984684
7.66887417218543,0.8854177916269945
7.6887417218543055,0.8840639998640669
7.708609271523178,0.8826873330083225
7.728476821192054,0.8812933445843321
7.748344370860927,0.8798877233549217
7.768211920529802,0.8784762722695024
7.788079470198675,0.8770648863786663
7.80794701986755,0.8756595297692815
7.827814569536423,0.8742662115851939
7.847682119205298,0.8728909612100522
7.8675496688741715,0.8715398027006062
7.887417218543046,0.8702187285710856
7.907284768211921,0.8689336730414751
7.927152317880795,0.8676904848748556
7.9470198675496695,0.86649489994084
7.966887417218543,0.8653525136534931
7.986754966887418,0.8642687534429092
8.006622516556291,0.8632488514289305
8.026490066225167,0.8622978174737739
8.046357615894038,0.8614204127969952
8.066225165562914,0.8606211243407651
8.086092715231787,0.8599041400761468
8.105960264900663,0.8592733254414084
8.125827814569536,0.8587322011011136
8.14569536423841,0.858283922210092
8.165562913907285,0.8579312593589841
8.185430463576159,0.8576765813679175
8.205298013245034,0.8575218400823335
8.225165562913906,0.8574685573097833
8.245033112582782,0.8575178140191646
8.264900662251655,0.8576702419044132
8.28476821192053,0.8579260173935641
8.304635761589404,0.8582848581615655
8.324503311258278,0.8587460221817763
8.344370860927151,0.8593083093271139
8.364238410596027,0.8599700655076756
8.3841059602649,0.8607291893079345
8.403973509933774,0.8615831410635945
8.42384105960265,0.8625289542964589
8.443708609271523,0.8635632494053348
8.463576158940398,0.8646822494926198
8.483443708609272,0.8658817981900447
8.503311258278146,0.8671573793330077
8.52317880794702,0.8685041383217526
8.543046357615895,0.869916904998529
8.562913907284768,0.8713902178639223
8.582781456953642,0.8729183494516415
8.602649006622515,0.8744953326800035
8.62251655629139,0.8761149879992212
8.642384105960264,0.8777709511570417
8.66225165562914,0.8794567014101023
8.682119205298013,0.8811655900154675
8.701986754966887,0.8828908688445594
8.721854304635762,0.8846257189713863
8.741721854304636,0.8863632790968659
8.76158940397351,0.8880966736819671
8.781456953642383,0.8898190406735046
8.801324503311259,0.8915235587177943
8.821192052980132,0.8932034737685823
8.841059602649008,0.8948521250066891
8.86092715231788,0.8964629699996224
8.880794701986755,0.8980296090392353
8.90066225165563,0.8995458086052814
8.920529801324504,0.9010055239114271
8.940397350993377,0.9024029204981336
8.960264900662251,0.9037323948444065
8.980132450331126,0.9049885939761974
9.0,0.9061664340555043
9.019867549668875,0.9072611179382213
9.039735099337747,0.9082681516931377
9.059602649006623,0.9091833600773487
9.079470198675496,0.9100029009657705
9.099337748344372,0.9107232787339744
9.119205298013245,0.9113413565947165
9.139072847682119,0.9118543678885497
9.158940397350994,0.912259926329075
9.178807947019868,0.912556035202142
9.198675496688743,0.9127410955175864
9.218543046357615,0.912813913109977
9.23841059602649,0.9127737046832204
9.258278145695364,0.9126201027911787
9.27814569536424,0.9123531597441177
9.298013245033111,0.9119733504278408
9.317880794701987,0.9114815740195277
9.33774834437086,0.9108791545808854
9.357615894039736,0.9101678405067121
9.37748344370861,0.9093498028030627
9.397350993377483,0.9084276321670816
9.417218543046358,0.9074043348368591
9.437086092715232,0.9062833271777958
9.456953642384107,0.9050684289690942
9.47682119205298,0.9037638553524237
9.496688741721854,0.9023742074033597
9.516556291390728,0.9009044612853898
9.536423841059603,0.899359955946216
9.556291390728477,0.8977463793169107
9.57615894039735,0.8960697529762177
9.596026490066224,0.8943364152451195
9.6158940397351,0.8925530026805871
9.635761589403973,0.8907264299432277
9.655629139072847,0.888863868019744
9.675496688741722,0.8869727207898229
9.695364238410596,0.8850605999367258
9.715231788079471,0.8831352982125973
9.735099337748345,0.8812047610826264
9.754966887417218,0.8792770567874519
9.774834437086092,0.8773603448796099
9.794701986754967,0.875462843308382
9.814569536423841,0.8735927941469763
9.834437086092716,0.8717584280771566
9.854304635761588,0.8699679277682693
9.874172185430464,0.868229390310623
9.894039735099337,0.8665507888859051
9.913907284768213,0.864939933880556
9.933774834437086,0.8634044336700375
9.95364238410596,0.8619516553231851
9.973509933774835,0.8605886854951603
9.993377483443709,0.8593222917944752
10.013245033112582,0.8581588849236147
10.033112582781456,0.857104481903366
10.052980132450331,0.856164670697186
10.072847682119205,0.8553445765540848
10.09271523178808,0.8546488303851596
10.112582781456952,0.8540815394808404
10.132450331125828,0.8536462608621971
10.152317880794701,0.8533459775406317
10.172185430463577,0.8531830779361265
10.192052980132452,0.853159338675175
10.211920529801324,0.8532759109558489
10.2317880794702,0.8535333106303407
10.251655629139073,0.8539314121146839
10.271523178807948,0.8544694461929457
10.29139072847682,0.8551460017390926
10.311258278145695,0.8559590313354417
10.331125827814569,0.8569058607231558
10.350993377483444,0.8579832019778941
10.370860927152318,0.859187170264442
10.390728476821192,0.8605133039876275
10.410596026490065,0.8619565881246556
10.43046357615894,0.8635114804961267
10.450331125827816,0.8651719407101407
10.470198675496688,0.866931461496247
10.490066225165563,0.8687831021335338
10.509933774834437,0.8707195236699596
10.529801324503312,0.8727330256279097
10.549668874172186,0.8748155838934204
10.56953642384106,0.8769588894933857
10.589403973509933,0.8791543879757858
10.609271523178808,0.8813933191217518
10.629139072847682,0.8836667567351225
10.649006622516556,0.8859656482736452
10.66887417218543,0.8882808541064577
