Frequency (Hz),Amplitude
0.0,2.757014658558573
0.04,2.75597281152978
0.08,2.7528490394764833
0.12,2.7476486532379796
0.16,2.740380516744056
0.19999999999999998,2.7310570660365814
0.24,2.719694336353382
0.27999999999999997,2.7063119977357193
0.32,2.690933399763423
0.36,2.673585626172745
0.39999999999999997,2.654299560272785
0.44,2.6331099622489567
0.48,2.6100555596272974
0.52,2.5851791523732977
0.5599999999999999,2.558527734313301
0.6,2.530152632795789
0.64,2.5001096687524846
0.6799999999999999,2.468459339572193
0.72,2.435267027458167
0.76,2.4006032361938927
0.7999999999999999,2.364543859478184
0.84,2.32717048418825
0.88,2.288570732058831
0.9199999999999999,2.248838643284221
0.96,2.208075105398764
1.0,2.1663883303890845
1.04,2.123894382227759
1.0799999999999998,2.0807177557471483
1.1199999999999999,2.036992005802812
1.1600000000000001,1.9928604227635003
1.2,1.9484767462049981
1.24,1.9040059029115366
1.28,1.8596247474812244
1.3199999999999998,1.8155227735442463
1.3599999999999999,1.7719027504175682
1.4,1.728981223653983
1.44,1.6869887984126812
1.48,1.6461701024497355
1.52,1.606783302252427
1.5599999999999998,1.5690990241661702
1.5999999999999999,1.533398516719362
1.64,1.499970887094682
1.68,1.469109261908214
1.72,1.4411057689886866
1.76,1.4162453202431737
1.7999999999999998,1.3947982989300174
1.8399999999999999,1.3770124121351701
1.88,1.3631041433425333
1.92,1.3532504002483596
1.9599999999999997,1.3475810601156604
2.0,1.346173130572973
2.0399999999999996,1.3490471436968106
2.08,1.3561661877852575
2.12,1.3674376877577121
2.1599999999999997,1.3827177289932302
2.2,1.4018174451130208
2.2399999999999998,1.424510809187987
2.28,1.4505431041337224
2.3200000000000003,1.4796393949296012
2.36,1.5115124528136596
2.4,1.5458697497820935
2.44,1.5824193132344473
2.48,1.6208743787706643
2.5199999999999996,1.6609568902738963
2.56,1.702399967943942
2.6,1.7449495016471999
2.6399999999999997,1.788365037040829
2.68,1.8324201141749383
2.7199999999999998,1.876902200280793
2.76,1.9216123359702963
2.8,1.9663645909799141
2.84,2.0109854041949355
2.88,2.0553128641297884
2.92,2.0991959706848977
2.96,2.1424939067548245
2.9999999999999996,2.18507533878862
3.04,2.226817758269179
3.08,2.267606870841994
3.1199999999999997,2.307336036080744
3.16,2.3459057582807556
3.1999999999999997,2.383223226936341
3.2399999999999998,2.4192019044574304
3.28,2.4537611580386285
3.32,2.48682593227569
3.36,2.5183264590299905
3.4,2.548198001097303
3.44,2.5763806263891422
3.4799999999999995,2.6028190095453736
3.52,2.6274622581384537
3.5599999999999996,2.6502637608847945
3.5999999999999996,2.671181055534809
3.64,2.6901757143624287
3.6799999999999997,2.707213245412947
3.7199999999999998,2.722263007892209
3.76,2.735298140289688
3.7999999999999994,2.7462955000230362
3.84,2.7552356135728857
3.88,2.7621026362455536
3.9199999999999995,2.766884320859166
3.96,2.769571994797301
4.0,2.770160545015483
4.04,2.76864841072141
4.079999999999999,2.7650375835816203
4.12,2.7593336154371055
4.16,2.751545633640456
4.199999999999999,2.741686364258699
4.24,2.729772163521614
4.28,2.715823058036665
4.319999999999999,2.6998627944402913
4.36,2.681918899314195
4.4,2.662022750364798
4.4399999999999995,2.640209660047642
4.4799999999999995,2.616518973016417
4.5200000000000005,2.5909941789910493
4.56,2.56368304287057
4.6,2.534637754165363
4.640000000000001,2.5039150980877287
4.68,2.471576650917233
4.72,2.437689002541599
4.76,2.402324009356297
4.8,2.365559080970467
4.84,2.3274775043925264
4.88,2.2881688095215136
4.92,2.247729179804511
4.96,2.206261911770224
5.0,2.163877926723608
5.039999999999999,2.120696337063641
5.08,2.0768450683016018
5.12,2.0324615356950972
5.159999999999999,1.9876933711970295
5.2,1.9426991918034144
5.24,1.8976493939524512
5.279999999999999,1.8527269499024361
5.319999999999999,1.8081281704908945
5.36,1.7640633838839181
5.3999999999999995,1.7207574615573562
5.4399999999999995,1.678450100866852
5.48,1.6373957488789985
5.52,1.5978630264288292
5.56,1.5601334879520294
5.6,1.5244995368089067
5.64,1.491261315072614
5.68,1.4607224104734589
5.72,1.4331842813270155
5.76,1.4089394007137714
5.8,1.3882632657427185
5.84,1.371405597516383
5.879999999999999,1.3585812492349743
5.92,1.3499615063884907
5.96,1.3456665588697019
5.999999999999999,1.3457599094145294
6.04,1.3502453357833304
6.08,1.3590667580345293
6.119999999999999,1.3721110240937044
6.16,1.389213286100586
6.2,1.410164367029543
6.239999999999999,1.434719360835999
6.279999999999999,1.4626066848104657
6.32,1.4935368916269358
6.359999999999999,1.527210711041019
6.3999999999999995,1.5633259819665037
6.44,1.601583316667657
6.4799999999999995,1.6416904858871064
6.52,1.6833656171001503
6.56,1.7263393589499294
6.6,1.770356190838862
6.64,1.8151750574888712
6.68,1.8605694934637085
6.72,1.9063273797875375
6.76,1.952250449320449
6.8,1.9981536328902187
6.84,2.0438643161975456
6.88,2.0892215589883962
6.92,2.134075313019235
6.959999999999999,2.1782856636461037
7.0,2.2217221109914194
7.04,2.2642629000805483
7.08,2.305794404617106
7.119999999999999,2.3462105657627754
7.16,2.3854123850565174
7.199999999999999,2.4233074691693166
7.239999999999999,2.459809623326275
7.28,2.494838489770854
7.32,2.5283192274717297
7.359999999999999,2.5601822292886274
7.3999999999999995,2.5903628729529276
7.4399999999999995,2.618801302434099
7.4799999999999995,2.645442236520302
7.52,2.6702348017184017
7.5600000000000005,2.6931323868590837
7.599999999999999,2.714092517067488
7.64,2.733076745022545
7.68,2.7500505576756393
7.719999999999999,2.7649832968303674
7.76,2.77784809219939
7.800000000000001,2.7886218057530745
7.839999999999999,2.7972849863583433
7.88,2.8038218338773753
7.92,2.808220172055455
7.959999999999999,2.810471429678214
8.0,2.810570629621858
8.040000000000001,2.808516385558474
8.08,2.8043109062137255
8.12,2.7979600072084234
8.159999999999998,2.789473130650637
8.2,2.77886337278321
8.24,2.7661475201350134
8.28,2.751346094775154
8.32,2.7344834094297643
8.36,2.715587633393453
8.399999999999999,2.694690870354252
8.44,2.6718292494539124
8.48,2.647043031127531
8.52,2.6203767295089673
8.56,2.5918792534533166
8.6,2.561604068515498
8.639999999999999,2.529609382534134
8.68,2.4959583578004203
8.72,2.460719353137231
8.76,2.4239661995654624
8.8,2.3857785135774914
8.84,2.3462420523487215
8.879999999999999,2.3054491154624848
8.92,2.2634989978508497
8.959999999999999,2.220498498591267
9.0,2.176562489845156
9.040000000000001,2.1318145494386087
9.079999999999998,2.086387659177199
9.12,2.040424968701896
9.16,1.9940806212004587
9.2,1.9475206321675003
9.24,1.9009238051403807
9.280000000000001,1.854482658323031
9.32,1.8084043225876405
9.36,1.7629113538830299
9.399999999999999,1.7182423811227976
9.44,1.6746524841516126
9.48,1.6324131661863788
9.52,1.5918117533423948
9.559999999999999,1.5531500246172911
9.6,1.5167418557659285
9.639999999999999,1.482909659546659
9.68,1.4519794350427981
9.72,1.4242743130546331
9.76,1.400106612826388
9.8,1.3797686089807977
9.84,1.36352243297038
9.879999999999999,1.3515897678002804
9.92,1.344142187331312
9.959999999999999,1.341293083164661
10.0,1.3430920644354722
10.04,1.3495224920471254
10.079999999999998,1.3605024478786067
10.12,1.3758890131387707
10.16,1.395485331863761
10.2,1.419049649547177
10.24,1.4463053907346244
10.280000000000001,1.4769513739586193
10.319999999999999,1.5106714197113733
10.36,1.5471428301514036
10.4,1.58604345222169
10.44,1.6270572382403568
10.48,1.6698783688397614
10.52,1.7142140984071257
10.559999999999999,1.759786530024834
10.6,1.8063335374491571
10.639999999999999,1.8536090385869983
10.68,1.9013827989722436
10.72,1.9494399127899584
10.76,1.9975800781537667
10.799999999999999,2.0456167554730844
10.84,2.093376274126761
10.879999999999999,2.1406969335514385
10.92,2.1874281299514333
10.96,2.233429528571121
11.0,2.2785702931908074
11.04,2.3227283785892023
11.08,2.365789887612455
11.12,2.407648491746496
11.16,2.44820491234333
11.2,2.4873664586215645
11.24,2.525046618033365
11.28,2.5611646944060857
11.319999999999999,2.5956454893110297
11.36,2.6284190223012676
11.4,2.659420285936563
11.44,2.6885890318355004
11.48,2.7158695843354943
11.52,2.7412106786825863
11.559999999999999,2.764565321003247
11.6,2.7858906676234203
11.64,2.805147921592172
11.68,2.8223022445376307
11.72,2.8373226822312643
11.759999999999998,2.850182102464629
11.799999999999999,2.8608571440518773
11.84,2.869328175963855
11.879999999999999,2.875579265777871
11.92,2.879598156793279
11.96,2.881376253319573
11.999999999999998,2.8809086137929802
12.04,2.8781939515217956
12.08,2.8732346430025353
12.12,2.866036743890569
12.16,2.856610012852725
12.200000000000001,2.8449679436777524
12.239999999999998,2.8311278061764056
12.28,2.815110696568348
12.32,2.7969415982313963
12.36,2.7766494538826776
12.4,2.7542672504737387
12.44,2.7298321183164624
12.479999999999999,2.703385446216429
12.52,2.674973014678891
12.559999999999999,2.6446451495724252
12.6,2.61245689898965
12.64,2.5784682364340994
12.68,2.5427442938881413
12.719999999999999,2.50535562877563
12.76,2.4663785293185754
12.799999999999999,2.425895363286903
12.84,2.3839949756332404
12.88,2.3407731409564305
12.92,2.29633307709632
12.959999999999999,2.250786026350455
12.999999999999998,2.20425191070787
13.04,2.1568600669549514
13.08,2.108750066297897
13.12,2.060072620955533
13.16,2.0109905765879823
13.2,1.9616799838934689
13.239999999999998,1.9123312345293342
13.28,1.8631502348425184
13.32,1.814359574747132
13.36,1.766199627436273
13.4,1.7189294875718653
13.44,1.6728276207421044
13.479999999999999,1.6281920559082927
13.52,1.5853399076945676
13.559999999999999,1.5446059719632776
13.6,1.506340105369853
13.64,1.4709030913984804
13.68,1.4386607299696816
13.719999999999999,1.4099759850992601
13.76,1.3851992013566286
13.799999999999999,1.364656658070125
13.84,1.3486380497704717
13.88,1.3373838106172016
13.919999999999998,1.3310734594660558
13.959999999999999,1.3298162404745308
14.0,1.3336452033722337
14.04,1.34251549604514
14.08,1.3563070929724754
14.120000000000001,1.3748315811040457
14.16,1.3978421138760797
14.2,1.4250453350260268
14.239999999999998,1.4561140087858442
14.28,1.4906992417700375
14.32,1.5284414666791815
14.36,1.568979689043742
14.399999999999999,1.6119588027470997
14.44,1.657035015441446
14.479999999999999,1.7038795781316842
14.52,1.7521810916913108
14.56,1.8016466846033579
14.6,1.8520023405111843
14.64,1.9029926182173347
14.68,1.954379963050126
14.719999999999999,2.0059437649909095
14.76,2.0574792799715373
14.799999999999999,2.108796498141928
14.84,2.159719016945217
14.879999999999999,2.210082956957329
14.919999999999998,2.259735943720899
14.959999999999999,2.3085361682241397
15.0,2.356351531308894
15.04,2.4030588723405746
15.079999999999998,2.4485432792896082
15.120000000000001,2.4926974754562177
15.159999999999998,2.535421277036108
15.199999999999998,2.5766211152919603
15.24,2.616209617060052
15.28,2.6541052375368266
15.319999999999999,2.6902319396553493
15.36,2.7245189148063087
15.399999999999999,2.756900340136223
15.439999999999998,2.7873151681362254
15.48,2.8157069446996337
15.52,2.842023652264638
15.559999999999999,2.8662175750642436
15.600000000000001,2.8882451838771073
15.639999999999999,2.9080670380106337
15.679999999999998,2.9256477025531433
15.72,2.9409556792079425
15.76,2.953963349271524
15.799999999999999,2.96464692754445
15.84,2.972986426169453
15.879999999999999,2.978965627580959
15.919999999999998,2.982572065925807
15.96,2.98379701648021
16.0,2.9826354927453815
16.04,2.9790862510569056
16.080000000000002,2.9731518026935193
16.12,2.9648384336224556
16.16,2.954156232173665
16.200000000000003,2.9411191250972037
16.24,2.9257449226300016
16.279999999999998,2.90805537338337
16.319999999999997,2.8880762300650167
16.36,2.865837327272525
16.4,2.8413726728441184
16.439999999999998,2.814720554531485
16.48,2.785923664074053
16.52,2.755029241109734
16.56,2.722089239759937
16.6,2.687160521182569
16.64,2.6503050759016564
16.68,2.611590280301011
16.72,2.5710891923158368
16.759999999999998,2.5288808920700308
16.799999999999997,2.4850508739838086
16.84,2.4396914977028237
16.88,2.39290250605031
16.919999999999998,2.3447916190325153
16.96,2.2954752136608585
17.0,2.245079099875601
17.04,2.1937394029893182
17.080000000000002,2.141603562553087
17.12,2.088831456006158
17.16,2.035596652365256
17.2,1.9820877958006669
17.24,1.9285101102318551
17.279999999999998,1.8750870027515207
17.32,1.822061724126888
17.36,1.7696990169361757
17.4,1.7182866440982592
17.44,1.6681366410110854
17.48,1.6195860727376248
17.52,1.572997005637425
17.56,1.5287553268872576
17.6,1.4872679785689447
17.64,1.4489581374852623
17.68,1.4142578992309762
17.72,1.3835981532229131
17.759999999999998,1.357395598705753
17.799999999999997,1.336037263046719
17.84,1.3198634114371073
17.88,1.3091502879762735
17.919999999999998,1.3040945504191626
17.96,1.3048013838847412
18.0,1.3112779832919605
18.04,1.3234333843282646
18.080000000000002,1.3410846530777283
18.12,1.363968473701474
18.159999999999997,1.3917564604888057
18.2,1.4240722201708682
18.24,1.460508307380213
18.279999999999998,1.500641632297089
18.32,1.5440464251779977
18.36,1.5903043867688347
18.4,1.6390120633520897
18.44,1.6897857486491197
18.48,1.7422643443200285
18.52,1.7961106401212896
18.560000000000002,1.8510114413445753
18.6,1.9066769062900302
18.64,1.9628393821263284
18.679999999999996,2.0192519566209564
18.72,2.0756868822671843
18.759999999999998,2.131933980322082
18.799999999999997,2.187799094779994
18.84,2.243102638768805
18.88,2.297678256344932
18.919999999999998,2.351371609322647
18.96,2.4040392900044365
19.0,2.455547855197412
19.04,2.505772973716622
19.080000000000002,2.5545986779557444
19.119999999999997,2.6019167095169284
19.159999999999997,2.6476259489590737
19.2,2.6916319201868926
19.24,2.733846360685848
19.279999999999998,2.7741868495937165
19.32,2.812576486412787
19.36,2.8489436139626605
19.4,2.8832215799239136
19.44,2.915348532015106
19.48,2.945267242473485
19.52,2.972924958073075
19.560000000000002,2.9982732724159398
19.6,3.0212680176772424
19.639999999999997,3.0418691733786813
19.68,3.0600407901127187
19.72,3.075750926448531
19.759999999999998,3.0889715975244223
19.8,3.099678734076201
19.84,3.107852150871354
19.88,3.113475523719026
19.919999999999998,3.1165363744101833
19.96,3.1170260631142783
20.0,3.1149397879223675
20.04,3.1102765913847485
20.08,3.1030393740477744
20.119999999999997,3.093234915152399
20.159999999999997,3.080873900819993
20.2,3.065970960222583
20.24,3.0485447104187
20.279999999999998,3.028617810736826
20.32,3.0062170278108136
20.36,2.9813733126207285
20.4,2.9541218911746925
20.44,2.9245023707890963
20.48,2.8925588642942617
20.52,2.8583401349190423
20.560000000000002,2.8218997651015716
20.599999999999998,2.7832963530457255
20.639999999999997,2.742593741507126
20.68,2.699861284062614
20.72,2.655174155007716
20.759999999999998,2.608613710052557
20.8,2.560267906160681
20.84,2.5102317902060425
20.88,2.458608067611495
20.92,2.4055077637625235
20.96,2.351050992723791
21.0,2.295367849543298
21.04,2.238599444066972
21.08,2.1808990954666894
21.119999999999997,2.1224337072227817
21.159999999999997,2.0633853415027867
21.2,2.003953008840271
21.24,1.9443546824156779
21.279999999999998,1.8848295341792876
21.32,1.8256403699094481
21.36,1.7670762085911331
21.4,1.7094549038977074
21.44,1.6531256371717722
21.48,1.5984710175656505
21.52,1.5459084035994186
21.56,1.495889914716404
21.599999999999998,1.4489004459611203
21.639999999999997,1.405452866236945
21.68,1.366079527742727
21.72,1.3313193232609493
21.759999999999998,1.3016998925473375
21.8,1.2777152672861158
21.84,1.259800237995939
21.88,1.2483038586395714
21.92,1.243465441561796
21.96,1.245396719618391
22.0,1.2540732552677658
22.04,1.2693366690791508
22.08,1.2909072498731218
22.119999999999997,1.3184046438824497
22.16,1.351373177397078
22.2,1.3893081864701124
22.24,1.4316803603936048
22.28,1.4779561704056572
22.32,1.5276135539156084
22.36,1.580152893421264
22.4,1.6351038720453794
22.44,1.692029031505556
22.48,1.7505248879390907
22.519999999999996,1.810221367221601
22.56,1.870780175616473
22.599999999999998,1.9318925693788622
22.639999999999997,1.9932768520949058
22.68,2.054675820010997
22.72,2.115854293859335
22.759999999999998,2.1765968171952945
22.8,2.2367055612410254
22.84,2.295998450026263
22.88,2.354307503300384
22.92,2.411477385192033
22.96,2.467364141642419
23.0,2.5218341076170465
23.04,2.5747629648889374
23.08,2.6260349320320016
23.119999999999997,2.6755420696723053
23.16,2.7231836857036713
23.2,2.768865826889226
23.24,2.8125008449292297
23.28,2.854007026616603
23.32,2.8933082790973828
23.36,2.9303338624952935
23.400000000000002,2.9650181632520898
23.44,2.9973005024881205
23.479999999999997,3.0271249745145807
23.519999999999996,3.0544403113439533
23.56,3.0791997696631728
23.599999999999998,3.1013610372675804
23.639999999999997,3.1208861564160615
23.68,3.137741461968839
23.72,3.1518975325198824
23.759999999999998,3.1633291530437013
23.8,3.1720152878497014
23.84,3.1779390628822664
23.88,3.1810877566281794
23.92,3.1814527990994805
23.96,3.179029778555145
23.999999999999996,3.1738184558131057
24.04,3.1658227861901906
24.08,3.1550509492956627
24.119999999999997,3.1415153870989037
24.16,3.1252328508983407
24.2,3.106224458041927
24.24,3.0845157594953223
24.28,3.0601368196287764
24.32,3.033122309904796
24.36,3.0035116185047666
24.400000000000002,2.971348978343345
24.439999999999998,2.9366836163963703
24.479999999999997,2.899569927824294
24.52,2.860067679024516
24.56,2.8182422445102024
24.599999999999998,2.7741648834104042
24.64,2.72791306243973
24.68,2.6795708334199873
24.72,2.6292292748771775
24.759999999999998,2.5769870089102587
24.8,2.5229508064538946
24.84,2.467236296246593
24.88,2.4099687952590725
24.92,2.3512842809902903
24.959999999999997,2.291330528794834
24.999999999999996,2.230268440062412
25.04,2.168273589268187
25.08,2.105538019051992
25.119999999999997,2.0422723116008323
25.16,1.978707960202206
25.2,1.915100054639115
25.24,1.8517302747949107
25.28,1.7889101537517411
25.32,1.7269845185320394
25.36,1.6663349356314359
25.4,1.607382871005585
25.439999999999998,1.5505921129276088
25.479999999999997,1.4964697997651053
25.52,1.4455651558926574
25.56,1.398464806373419
25.599999999999998,1.3557833932843153
25.64,1.3181482799833557
25.68,1.2861775649797922
25.72,1.2604515745415465
25.76,1.2414794762129826
25.8,1.2296644139792452
25.84,1.2252720612620056
25.880000000000003,1.2284079996087798
25.919999999999998,1.2390083248487922
25.959999999999997,1.256845414698752
25.999999999999996,1.281547631302809
26.04,1.3126290179347553
26.08,1.3495236786991804
26.119999999999997,1.3916197256284337
26.16,1.4382890084441613
26.2,1.4889105939497975
26.24,1.5428875277872862
26.28,1.5996574817066438
26.32,1.6586984309537351
26.36,1.7195306406597397
26.4,1.78171612925041
26.439999999999998,1.8448565568156658
26.479999999999997,1.9085902459375326
26.52,1.972588828125014
26.56,2.0365538381388886
26.599999999999998,2.1002134521318845
26.64,2.163319477315728
26.68,2.225644642296835
26.72,2.286980200253937
26.76,2.347133835163163
26.8,2.4059278493148213
26.84,2.463197604830415
26.88,2.5187901903101504
26.919999999999998,2.5725632844745294
26.959999999999997,2.624384190642489
27.0,2.6741290184440123
27.04,2.7216819918922237
27.08,2.7669348656053088
27.119999999999997,2.809786433448541
27.16,2.8501421161041804
27.2,2.887913616056314
27.24,2.9230186302051964
27.28,2.955380611820825
27.32,2.9849285748324386
27.36,3.0115969345557314
27.4,3.035325379908438
27.439999999999998,3.0560587729809576
27.479999999999997,3.073747072534204
27.52,3.0883452786105052
27.56,3.099813395982721
27.599999999999998,3.108116414647347
27.64,3.1132243060024583
27.68,3.115112033754086
27.72,3.1137595789765946
27.76,3.109151979125053
27.8,3.101279381172205
27.839999999999996,3.0901371094308265
27.88,3.075725749036892
27.919999999999998,3.058051246524186
27.959999999999997,3.0371250294328465
28.0,3.0129641474821134
28.04,2.985591438523987
28.08,2.9550357233078137
28.12,2.9213320340601054
28.16,2.884521883062217
28.2,2.844653578844385
28.240000000000002,2.801782599374741
28.28,2.7559720337911187
