Frequency (Hz),Amplitude
0.0,4.17842053721486
0.01993355481727575,4.1764456948443485
0.0398671096345515,4.170523357837061
0.059800664451827246,4.160660096878875
0.079734219269103,4.146866864407116
0.09966777408637874,4.129158996730148
0.11960132890365449,4.107556217357559
0.13953488372093023,4.082082641917308
0.159468438538206,4.052766785164856
0.17940199335548174,4.019641570733993
0.19933554817275748,3.9827443444467723
0.21926910299003324,3.9421168921958336
0.23920265780730898,3.8978054636452915
0.25913621262458475,3.8498608032762767
0.27906976744186046,3.798338190642234
0.29900332225913623,3.7432974921142157
0.318936877076412,3.684803226907758
0.3388704318936877,3.6229246508176822
0.3588039867109635,3.5577358618802126
0.37873754152823924,3.489315933178795
0.39867109634551495,3.41774907927155
0.4186046511627907,3.343124864323943
0.4385382059800665,3.265538462087381
0.4584717607973422,3.185090980515699
0.47840531561461797,3.101889867250679
0.49833887043189373,3.0160494166975225
0.5182724252491695,2.927691405310867
0.5382059800664452,2.8369458895142516
0.5581395348837209,2.7439522110629033
0.5780730897009968,2.6488602685743223
0.5980066445182725,2.5518321327086553
0.6179401993355482,2.4530441079087835
0.637873754152824,2.3526893782529834
0.6578073089700996,2.25098142234776
0.6777408637873754,2.148158447094691
0.6976744186046512,2.0444891789927873
0.717607973421927,1.9402804724890879
0.7375415282392027,1.8358873570526695
0.7574750830564785,1.7317263562670704
0.7774086378737541,1.6282931735814798
0.7973421926910299,1.526186125918067
0.8172757475083057,1.4261369299254958
0.8372093023255814,1.32905037145121
0.8571428571428572,1.236053474420978
0.877076411960133,1.1485519185574238
0.8970099667774087,1.0682846868132738
0.9169435215946844,0.9973547526720603
0.9368770764119602,0.9381934903748126
0.9568106312292359,0.8933980952643671
0.9767441860465116,0.8653926241384889
0.9966777408637875,0.8559433439809405
1.0166112956810631,0.8656981254810084
1.036544850498339,0.8939944271442919
1.0564784053156147,0.939056030617475
1.0764119601328903,0.998455468331968
1.0963455149501662,1.0695974553512262
1.1162790697674418,1.1500554182185518
1.1362126245847177,1.2377320088174197
1.1561461794019936,1.3308934971088748
1.176079734219269,1.4281385977211418
1.196013289036545,1.5283437430565001
1.2159468438538206,1.6306067643354325
1.2358803986710964,1.7341978738214279
1.255813953488372,1.8385201425522826
1.275747508305648,1.943078837936575
1.2956810631229239,2.047458087647924
1.3156146179401993,2.151303268160668
1.3355481727574752,2.2543077413898787
1.3554817275747508,2.3562028491989992
1.3754152823920267,2.456750336089964
1.3953488372093024,2.555736581178476
1.4152823920265782,2.6529681820108824
1.435215946843854,2.748268553079227
1.4551495016611296,2.841475290305335
1.4750830564784054,2.932438117369644
1.495016611295681,3.0210172769163792
1.514950166112957,3.1070822641515123
1.5348837209302328,3.190510825665074
1.5548172757475083,3.2711881649835397
1.5747508305647842,3.3490063102139405
1.5946843853820598,3.4238636094841137
1.6146179401993357,3.4956643276543464
1.6345514950166113,3.564318323651317
1.6544850498338872,3.629740792247905
1.6744186046511629,3.6918520575382154
1.6943521594684385,3.750577407998649
1.7142857142857144,3.8058469650755065
1.73421926910299,3.857595578839373
1.754152823920266,3.905762745503979
1.7740863787375416,3.950292542600364
1.7940199335548175,3.9911335783879736
1.8139534883720931,4.028238952716603
1.8338870431893688,4.0615662270629675
1.8538205980066447,4.091077401879238
1.8737541528239203,4.116738899728934
1.893687707641196,4.138521552964498
1.9136212624584719,4.156400594932594
1.9335548172757475,4.170355653889058
1.9534883720930232,4.180370748971396
1.9734219269102993,4.186434287721918
1.993355481727575,4.188539064781582
2.0132890365448506,4.186682261490414
2.0332225913621262,4.180865446236785
2.0531561461794023,4.171094575500162
2.073089700996678,4.157379995631844
2.0930232558139537,4.13973644552018
2.1129568106312293,4.118183060393229
2.132890365448505,4.092743377126683
2.1528239202657806,4.06344534155171
2.1727574750830567,4.030321318401198
2.1926910299003324,3.993408104698217
2.212624584717608,3.952746947584931
2.2325581395348837,3.9083835678203642
2.25249169435216,3.8603681904526033
2.2724252491694354,3.808755584506919
2.292358803986711,3.7536051139425086
2.312292358803987,3.694980802637336
2.332225913621263,3.6329514167903865
2.352159468438538,3.5675905689171303
2.3720930232558137,3.498976848604795
2.39202657807309,3.427193986446914
2.4119601328903655,3.3523310591742668
2.431893687707641,3.2744827460468473
2.4518272425249172,3.193749649213298
2.471760797342193,3.110238694175291
2.4916943521594686,3.024063630978505
2.511627906976744,2.935345662652034
2.5315614617940203,2.8442142352334225
2.551495016611296,2.7508080341374903
2.5714285714285716,2.6552762456152528
2.5913621262458477,2.557780160945401
2.611295681063123,2.458495226682011
2.6312292358803986,2.3576136793703117
2.6511627906976742,2.2553479512893375
2.6710963455149503,2.151935100010387
2.691029900332226,2.0476426056447563
2.7109634551495017,1.9427760043345053
2.7308970099667778,1.837688995169004
2.7508305647840534,1.732796880176136
2.770764119601329,1.6285944763469453
2.7906976744186047,1.525679954286914
2.810631229235881,1.42478632672791
2.8305647840531565,1.3268222998877348
2.850498338870432,1.2329233604585343
2.870431893687708,1.1445111417359197
2.8903654485049834,1.0633522026741864
2.910299003322259,0.9915935485060047
2.9302325581395348,0.9317305210226312
2.950166112956811,0.8864418134023817
2.9700996677740865,0.858236440656364
2.990033222591362,0.8489425132724483
3.0099667774086383,0.8592194348738019
3.029900332225914,0.8883581084354898
3.0498338870431896,0.9344969213661708
3.0697674418604657,0.9951156137842759
3.089700996677741,1.0675421108376462
3.1096345514950166,1.1492971813306172
3.129568106312292,1.2382524724621546
3.1495016611295683,1.3326586914710643
3.169435215946844,1.4311085517141218
3.1893687707641196,1.5324777930614433
3.2093023255813957,1.6358661796579441
3.2292358803986714,1.740546929754122
3.249169435215947,1.8459263559482857
3.2691029900332227,1.9515127847619012
3.289036544850499,2.056893036322497
3.3089700996677744,2.161714753218862
3.32890365448505,2.2656731402489596
3.3488372093023258,2.368500991010675
3.3687707641196014,2.469961153701378
3.388704318936877,2.569840808085124
3.4086378737541527,2.667947091832127
3.428571428571429,2.7641037372836776
3.4485049833887045,2.8581484694236448
3.46843853820598,2.949930981082413
3.4883720930232562,3.039311348836217
3.508305647840532,3.1261587876435555
3.5282392026578075,3.2103506675752285
3.548172757475083,3.291771734627163
3.5681063122923593,3.370313491401899
3.588039867109635,3.445873703726951
3.60797342192691,3.518356006991585
3.6279069767441863,3.5876695918086225
3.647840531561462,3.653728953036694
3.6677740863787376,3.716453689587455
3.6877076411960132,3.7757683450528745
3.7076411960132893,3.831602281211761
3.727574750830565,3.8838895780537066
3.7475083056478407,3.9325689551981746
3.7674418604651168,3.9775837105658622
3.787375415282392,4.018881672937969
3.807308970099668,4.056415165661795
3.8272425249169437,4.09014097926271
3.8471760797342194,4.120020351129356
3.867109634551495,4.146018950771328
3.887043189368771,4.168106869422452
3.9069767441860463,4.1862586129909545
3.9269102990033224,4.200453097549235
3.9468438538205985,4.210673646719796
3.9667774086378738,4.216907990455386
3.98671096345515,4.21914826483641
4.0066445182724255,4.2173910126217065
4.026578073089701,4.211637184393148
4.046511627906977,4.201892140234286
4.0664451827242525,4.1881656519809844
4.086378737541528,4.170471906181578
4.106312292358805,4.148829508007653
4.1262458471760795,4.123261486468846
4.146179401993356,4.093795301408379
4.166112956810632,4.060462852896471
4.186046511627907,4.02330049379975
4.205980066445183,3.982349046494344
4.225913621262459,3.93765382491494
4.245847176079734,3.889264663402606
4.26578073089701,3.83723595414208
4.2857142857142865,3.7816266953814783
4.305647840531561,3.7225005531229507
4.325581395348838,3.6599259395898214
4.345514950166113,3.5939761125470615
4.365448504983389,3.524729300524414
4.385382059800665,3.4522688602237417
4.40531561461794,3.3766834739652123
4.425249169435216,3.2980673970466516
4.445182724252492,3.2165207675014056
4.465116279069767,3.1321499941378876
4.485049833887043,3.045068243195123
4.50498338870432,2.9553960498206826
4.524916943521594,2.8632620883774806
4.544850498338871,2.768804146020659
4.5647840531561465,2.672170358043935
4.584717607973422,2.573520782564857
4.604651162790698,2.4730294181607757
4.624584717607974,2.3708868038484994
4.644518272425249,2.26730339021988
4.664451827242526,2.1625139390588752
4.6843853820598005,2.0567833038856036
4.704318936877076,1.9504140756203543
4.724252491694353,1.8437567584764376
4.7441860465116275,1.7372233848530043
4.764119601328904,1.6313057934580482
4.78405315614618,1.526600170965487
4.803986710963455,1.4238398235850351
4.823920265780731,1.323938281017296
4.8438538205980075,1.2280441834440716
4.863787375415282,1.1376067231895937
4.883720930232559,1.0544433324033926
4.9036544850498345,0.9807863170876292
4.92358803986711,0.9192601056782467
4.943521594684386,0.8727140750967727
4.963455149501661,0.8438419421586384
4.983388704318937,0.8346132260671301
5.003322259136213,0.8457231600349203
5.023255813953488,0.876371848798407
5.043189368770764,0.9245202403732777
5.063122923588041,0.9874525373412527
5.083056478405315,1.0623342607037818
5.102990033222592,1.1465745897917126
5.122923588039868,1.2379790882325281
5.142857142857143,1.3347647191359095
5.162790697674419,1.4355104565542731
5.182724252491695,1.5390894592230728
5.20265780730897,1.6446045157609315
5.222591362126246,1.7513342673416161
5.242524916943522,1.8586911122930145
5.262458471760797,1.9661892499324756
5.282392026578074,2.073420763496837
5.3023255813953485,2.180037808217747
5.322259136212625,2.2857393405595476
5.342192691029901,2.3902611956933892
5.362126245847176,2.4933686288672754
5.382059800664452,2.5948506737636228
5.4019933554817285,2.694515846903514
5.421926910299003,2.792188855199518
5.44186046511628,2.8877080561868134
5.4617940199335555,2.980923487045079
5.48172757475083,3.0716953265687104
5.501661129568107,3.1598926890449146
5.5215946843853825,3.2453926743438126
5.541528239202658,3.32807961709462
5.561461794019934,3.407844491519896
5.5813953488372094,3.484584438673822
5.601328903654485,3.55820239044006
5.621262458471762,3.6286067703771008
5.641196013289036,3.695711255846721
5.661129568106313,3.7594345891818874
5.681063122923589,3.8197004282036597
5.700996677740864,3.8764372283727058
5.72093023255814,3.929578150400685
5.740863787375416,3.9790609883534773
5.760797342192691,4.024828114230887
5.780730897009967,4.066826435763403
5.800664451827243,4.1050073647712715
5.820598006644518,4.139326793917104
5.840531561461795,4.169745080077557
5.8604651162790695,4.1962270328811675
5.880398671096346,4.218741907224391
5.900332225913622,4.237263398798054
5.920265780730897,4.251769641841766
5.940199335548173,4.262243208501275
5.960132890365449,4.268671109300638
5.980066445182724,4.271044794361117
6.0,4.269360155107719
6.0199335548172765,4.263617526304205
6.039867109634551,4.253821688353683
6.059800664451828,4.239981869895234
6.0797342192691035,4.222111750822552
6.099667774086379,4.200229465950052
6.119601328903655,4.1743576096588315
6.139534883720931,4.14452324197386
6.159468438538206,4.110757896656932
6.179401993355482,4.073097592055551
6.1993355481727574,4.031582845628218
6.219269102990033,3.986258693282999
6.23920265780731,3.9371747149251712
6.259136212624584,3.8843850679253333
6.279069767441861,3.8279485306058563
6.299003322259137,3.7679285583214326
6.318936877076412,3.704393355304264
6.338870431893688,3.637415966190305
6.3588039867109645,3.567074392084262
6.378737541528239,3.493451737216659
6.398671096345516,3.4166363937759794
6.418604651162791,3.3367222744675766
6.438538205980066,3.253809104903485
6.458471760797343,3.1680027912583437
6.4784053156146175,3.079415883005617
6.498338870431894,2.9881681563460267
6.51827242524917,2.8943873516746583
6.538205980066445,2.798210108827892
6.558139534883721,2.699783157930632
6.578073089700998,2.5992648428787986
6.598006644518272,2.496827080913941
6.617940199335549,2.3926578983420073
6.6378737541528245,2.2869647334687535
6.6578073089701,2.179978769349931
6.677740863787376,2.071960659600107
6.6976744186046515,1.9632081522364113
6.717607973421927,1.8540663153105492
6.737541528239203,1.7449413434268306
6.7574750830564785,1.6363192953236216
6.777408637873754,1.5287915848224125
6.797342192691031,1.4230895745408911
6.8172757475083055,1.320131012799934
6.837209302325582,1.2210807603625662
6.857142857142858,1.127425939606962
6.877076411960133,1.041058500238723
6.897009966777409,0.9643415208522277
6.9169435215946855,0.9001049639196805
6.93687707641196,0.8514789408853324
6.956810631229236,0.8214689834745835
6.9767441860465125,0.8122871554589753
6.996677740863787,0.824688955313315
7.016611295681064,0.8577147324052383
7.036544850498339,0.9090205150647901
7.056478405315615,0.9755636170518053
7.076411960132891,1.0542469895121431
7.096345514950166,1.1423062577336824
7.116279069767442,1.2374489070633021
7.136212624584719,1.3378450841553426
7.156146179401993,1.4420573161078345
7.17607973421927,1.5489584751863157
7.196013289036546,1.657658685382974
7.21594684385382,1.7674468109009231
7.235880398671097,1.877745910366271
7.2558139534883725,1.9880801149794236
7.275747508305648,2.098050235266029
7.295681063122924,2.207315826450599
7.3156146179402,2.3155819652639567
7.335548172757475,2.4225894482246013
7.355481727574752,2.5281074773241823
7.3754152823920265,2.6319281619422386
7.395348837209303,2.73386235522805
7.415282392026579,2.83373647815267
7.435215946843854,2.9313900802838115
7.45514950166113,3.0266739544899037
7.475083056478406,3.1194486714346126
7.495016611295681,3.2095834346548373
7.514950166112956,3.2969551822631242
7.5348837209302335,3.3814478796962275
7.554817275747508,3.462951961414541
7.574750830564784,3.5413638894233817
7.5946843853820605,3.616585803909991
7.614617940199336,3.6885252468606855
7.634551495016611,3.7570949437340606
7.6544850498338874,3.8222126314730325
7.674418604651163,3.883800923597822
7.694352159468439,3.941787205021072
7.714285714285715,3.9961035507023577
7.73421926910299,4.046686663414581
7.754152823920266,4.093477826804745
7.774086378737542,4.136422870652637
7.794019933554818,4.175472145806963
7.813953488372093,4.210580506740818
7.83388704318937,4.241707300042766
7.853820598006645,4.268816357465178
7.8737541528239205,4.291875992402402
7.893687707641197,4.31085899888001
7.913621262458472,4.325742652311479
7.9335548172757475,4.336508711427629
7.953488372093024,4.343143420913146
7.9734219269103,4.345637514397912
7.9933554817275745,4.3439862175531925
8.013289036544851,4.3381892511372655
8.033222591362128,4.328250833924908
8.053156146179402,4.314179685543221
8.073089700996679,4.295989029325764
8.093023255813954,4.273696595389986
8.11295681063123,4.247324624243551
8.132890365448505,4.216899871335876
8.152823920265782,4.182453613097016
8.172757475083056,4.144021655150559
8.192691029900331,4.101644343557623
8.21262458471761,4.0553665801511025
8.232558139534884,4.005237843263352
8.252491694352159,3.9513122154470643
8.272425249169435,3.893648420153713
8.292358803986712,3.8323098697847415
8.312292358803987,3.7673647280939586
8.332225913621263,3.6988859906261253
8.352159468438538,3.6269515877717122
8.372093023255815,3.551644516157197
8.392026578073091,3.473053005551564
8.411960132890366,3.391270730357839
8.43189368770764,3.306397077213431
8.451827242524917,3.218537483440707
8.471760797342194,3.127803865336616
8.491694352159469,3.0343151609409693
8.511627906976745,2.938198019501631
8.53156146179402,2.8395876801019333
8.551495016611296,2.738629095888715
8.571428571428573,2.63547837955696
8.591362126245848,2.530304672406118
8.611295681063122,2.4232925765850655
8.6312292358804,2.3146453427666556
8.651162790697676,2.20458908030463
8.67109634551495,2.0933783639682666
8.691029900332227,1.981303765194797
8.710963455149502,1.8687020571350306
8.730897009966778,1.755970159669477
8.750830564784053,1.6435843374531076
8.77076411960133,1.5321267726336683
8.790697674418604,1.4223224011482933
8.81063122923588,1.3150896974218886
8.830564784053157,1.211609423386591
8.850498338870432,1.1134138241884568
8.870431893687707,1.022492001695674
8.890365448504983,0.9413886297078731
8.91029900332226,0.8732341317575186
8.930232558139535,0.8215871935974856
8.950166112956811,0.7899450764443258
8.970099667774086,0.7809064366362943
8.990033222591363,0.7953108856100594
9.00996677740864,0.8319196618955865
9.029900332225914,0.887888278104303
9.049833887043189,0.9596657032727636
9.069767441860467,1.0437708496257747
9.089700996677742,1.137203039310304
9.109634551495017,1.2375480365506029
9.129568106312293,1.3429263432363312
9.14950166112957,1.4518903587147645
9.169435215946844,1.5633219711474529
9.189368770764121,1.676348077532124
9.209302325581396,1.7902762096682763
9.22923588039867,1.904547218185037
9.249169435215949,2.018701010791879
9.269102990033224,2.1323518352346116
9.289036544850498,2.2451704037712865
9.308970099667773,2.356870889298625
9.328903654485051,2.4672013928287746
9.348837209302326,2.575936896433531
9.368770764119601,2.6828740084848235
9.388704318936878,2.7878270121866175
9.408637873754152,2.8906248703193955
9.428571428571429,2.991108937962284
9.448504983388705,3.08913120413814
9.46843853820598,3.1845529320737023
9.488372093023255,3.27724360238404
9.508305647840533,3.367080088279072
9.528239202657808,3.453946009793714
9.548172757475083,3.537731227085989
9.56810631229236,3.6183314424303155
9.588039867109636,3.695647887633656
9.60797342192691,3.7695870789057175
9.627906976744187,3.840060625207468
9.647840531561462,3.9069850791321548
9.667774086378738,3.970281821688531
9.687707641196015,4.029876974138917
9.70764119601329,4.085701331427177
9.727574750830565,4.1376903128106015
9.747508305647841,4.185783926157976
9.767441860465118,4.229926743047044
9.787375415282392,4.270067882329319
9.807308970099669,4.306161000259039
9.827242524916944,4.338164285629462
9.84717607973422,4.3660404586421295
9.867109634551497,4.389756772466566
9.887043189368772,4.409285016639859
9.906976744186046,4.424601521617387
9.926910299003321,4.435687163922724
9.9468438538206,4.442527371463183
9.966777408637874,4.4451121286819735
9.986710963455149,4.443435981311284
10.006644518272426,4.437498040577383
10.026578073089702,4.427301986790918
10.046511627906977,4.412856072336079
10.066445182724253,4.394173124153777
10.086378737541528,4.371270545898839
10.106312292358805,4.344170320042916
10.126245847176081,4.31289901029553
10.146179401993356,4.277487764830267
10.16611295681063,4.237972320934856
10.186046511627907,4.19439301185914
10.205980066445184,4.1467947768194415
10.225913621262459,4.095227175340678
10.245847176079735,4.039744407389346
10.26578073089701,3.9804053410841704
10.285714285714286,3.9172735501861893
10.305647840531563,3.85041736408807
10.325581395348838,3.7799099336753295
10.345514950166113,3.705829317260468
10.36544850498339,3.6282585918495234
10.385382059800666,3.547285996362666
10.40531561461794,3.463005115196901
10.425249169435217,3.3755151128257292
10.445182724252492,3.284921033168063
10.465116279069768,3.191334181488538
10.485049833887045,3.094872611984084
10.50498338870432,2.995661751489965
10.524916943521594,2.893835199650468
10.544850498338871,2.7895357595246755
10.564784053156147,2.6829167715087165
10.584717607973422,2.5741438499646456
10.604651162790697,2.4633971594824384
10.624584717607974,2.3508744213972186
10.64451827242525,2.2367949187675458
10.664451827242525,2.1214048811894775
10.684385382059801,2.0049847972926416
10.704318936877076,1.8878594492085374
10.724252491694353,1.7704118291386635
10.74418604651163,1.653102639182233
10.764119601328904,1.5364978632221171
10.784053156146179,1.4213080019568627
10.803986710963457,1.3084439666430758
