Frequency (Hz),Amplitude
0.0,1.3218217705645334
0.019867549668874173,1.3223898886272443
0.039735099337748346,1.3240905284748903
0.059602649006622516,1.3269126035600638
0.07947019867549669,1.3308378224568973
0.09933774834437085,1.3358409609076685
0.11920529801324503,1.341890228823312
0.13907284768211922,1.348947719490374
0.15894039735099338,1.356969926058161
0.17880794701986755,1.3659083090906858
0.1986754966887417,1.3757098985707752
0.2185430463576159,1.3863179141709918
0.23841059602649006,1.3976723887326994
0.2582781456953642,1.4097107815604588
0.27814569536423844,1.4223685701674889
0.2980132450331126,1.4355798113260738
0.31788079470198677,1.4492776645291046
0.33774834437086093,1.4633948731273982
0.3576158940397351,1.4778642003765814
0.3774834437086093,1.4926188193439425
0.3973509933774834,1.5075926570566123
0.4172185430463576,1.5227206944100642
0.4370860927152318,1.5379392242111949
0.45695364238410596,1.5531860703282645
0.4768211920529801,1.5684007712938217
0.49668874172185434,1.5835247318924954
0.5165562913907285,1.5985013463016247
0.5364238410596026,1.6132760962722337
0.5562913907284769,1.6277966276739542
0.5761589403973509,1.6420128085058734
0.5960264900662252,1.655876771218716
0.6158940397350993,1.6693429419201917
0.6357615894039735,1.6823680587577856
0.6556291390728477,1.6949111815027595
0.6754966887417219,1.7069336941015532
0.695364238410596,1.7183993017219816
0.7152317880794702,1.7292740236030257
0.7350993377483444,1.7395261828206476
0.7549668874172186,1.7491263939077095
0.7748344370860927,1.7580475491127474
0.7947019867549668,1.7662648039492579
0.8145695364238411,1.773755562572634
0.8344370860927152,1.7804994634237468
0.8543046357615894,1.7864783654955692
0.8741721854304636,1.7916763355093306
0.8940397350993378,1.7960796362286535
0.9139072847682119,1.7996767160917122
0.9337748344370861,1.8024582003016894
0.9536423841059603,1.8044168834826595
0.9735099337748344,1.8055477239809072
0.9933774834437087,1.805847839868832
1.0132450331125828,1.8053165066890977
1.033112582781457,1.8039551569596242
1.0529801324503312,1.8017673814440804
1.0728476821192052,1.7987589321770532
1.0927152317880795,1.7949377272168536
1.1125827814569538,1.7903138570810235
1.1324503311258278,1.7848995927992266
1.1523178807947019,1.7787093954935878
1.1721854304635762,1.771759927367948
1.1920529801324504,1.7640700639516278
1.2119205298013245,1.755660907400966
1.2317880794701985,1.7465558006100905
1.2516556291390728,1.736780341820422
1.271523178807947,1.7263623993441488
1.2913907284768211,1.7153321259291539
1.3112582781456954,1.7037219721890489
1.3311258278145695,1.6915666984013809
1.3509933774834437,1.678903383836925
1.370860927152318,1.665771432622676
1.390728476821192,1.6522125749592325
1.410596026490066,1.6382708623093483
1.4304635761589404,1.6239926549489778
1.4503311258278146,1.6094266000267052
1.4701986754966887,1.5946235980154781
1.4900662251655628,1.57963675516715
1.5099337748344372,1.5645213193039929
1.5298013245033113,1.5493345960127087
1.5496688741721854,1.534135842061239
1.5695364238410596,1.5189861326555567
1.5894039735099337,1.5039481990169445
1.609271523178808,1.489086232718296
1.6291390728476822,1.4744656533029155
1.6490066225165563,1.4601528359580627
1.6688741721854303,1.4462147964636025
1.6887417218543048,1.4327188313207169
1.7086092715231789,1.4197321119161812
1.728476821192053,1.4073212328154228
1.7483443708609272,1.3955517158071393
1.7682119205298013,1.3844874731277488
1.7880794701986755,1.3741902353321016
1.8079470198675496,1.3647189514737357
1.8278145695364238,1.3561291715066495
1.847682119205298,1.3484724229833667
1.8675496688741722,1.3417955960384402
1.8874172185430464,1.3361403521376871
1.9072847682119205,1.3315425729688073
1.9271523178807946,1.328031865999038
1.9470198675496688,1.3256311425239315
1.9668874172185429,1.3243562824338815
1.9867549668874174,1.3242158974621991
2.0066225165562916,1.3252112014613855
2.0264900662251657,1.3273359924688979
2.0463576158940397,1.3305767472141508
2.066225165562914,1.334912824564921
2.086092715231788,1.3403167704973507
2.1059602649006623,1.346754713757773
2.1258278145695364,1.3541868386729394
2.1456953642384105,1.3625679196926797
2.165562913907285,1.3718479012710914
2.185430463576159,1.3819725065870667
2.205298013245033,1.3928838592825608
2.2251655629139075,1.4045211037201712
2.2450331125827816,1.4168210110621475
2.2649006622516556,1.4297185605751817
2.2847682119205297,1.4431474878015773
2.3046357615894038,1.457040793461266
2.324503311258278,1.4713312090443165
2.3443708609271523,1.485951616935655
2.364238410596027,1.5008354245303412
2.384105960264901,1.5159168931255416
2.403973509933775,1.531131423412524
2.423841059602649,1.5464158001559716
2.443708609271523,1.5617083991655887
2.463576158940397,1.576949359971855
2.4834437086092715,1.5920807277496885
2.5033112582781456,1.607046568028327
2.52317880794702,1.621793057615443
2.543046357615894,1.636268554978911
2.562913907284768,1.6504236530958476
2.5827814569536423,1.664211217515886
2.6026490066225163,1.6775864121109663
2.622516556291391,1.6905067147090453
2.642384105960265,1.7029319245433172
2.662251655629139,1.7148241631982444
2.6821192052980134,1.726147870501623
2.7019867549668874,1.7368697966021376
2.7218543046357615,1.7469589912828318
2.741721854304636,1.7563867913945181
2.76158940397351,1.7651268071469486
2.781456953642384,1.773154907869174
2.801324503311258,1.7804492077416951
2.821192052980132,1.7869900519106818
2.8410596026490067,1.7927600033160453
2.8609271523178808,1.7977438304997286
2.8807947019867552,1.8019284966056235
2.9006622516556293,1.8053031497373881
2.9205298013245033,1.8078591148026601
2.9403973509933774,1.809589886941231
2.9602649006622515,1.8104911266089774
2.9801324503311255,1.8105606563675394
3.0,1.809798459410957
3.0198675496688745,1.8082066798438896
3.0397350993377485,1.8057896247097327
3.0596026490066226,1.8025537677515433
3.0794701986754967,1.7985077548713104
3.0993377483443707,1.7936624112345112
3.119205298013245,1.788030749944614
3.1390728476821192,1.7816279821863519
3.1589403973509933,1.7744715287048425
3.1788079470198674,1.766581032449882
3.198675496688742,1.7579783721685789
3.218543046357616,1.7486876766742347
3.23841059602649,1.7387353394530292
3.2582781456953644,1.7281500331910633
3.2781456953642385,1.7169627237109912
3.2980132450331126,1.705206682697974
3.3178807947019866,1.6929174984674311
3.3377483443708607,1.6801330838802715
3.3576158940397347,1.6668936803439063
3.3774834437086096,1.6532418566485334
3.3973509933774837,1.6392225011773702
3.4172185430463577,1.624882805798449
3.437086092715232,1.610272239495486
3.456953642384106,1.5954425095309945
3.47682119205298,1.5804475076621736
3.4966887417218544,1.5653432386582988
3.5165562913907285,1.5501877281101644
3.5364238410596025,1.535040906293607
3.556291390728477,1.5199644646714818
3.576158940397351,1.5050216815166215
3.596026490066225,1.4902772131422095
3.615894039735099,1.4757968473691099
3.6357615894039736,1.4616472161777694
3.6556291390728477,1.4478954650222005
3.6754966887417218,1.4346088770582803
3.695364238410596,1.4218544515855056
3.7152317880794703,1.4096984373354333
3.7350993377483444,1.3982058228587173
3.754966887417219,1.3874397881410512
3.774834437086093,1.3774611236625425
3.794701986754967,1.3683276253203593
3.814569536423841,1.3600934758436984
3.834437086092715,1.3528086253982052
3.854304635761589,1.3465181858372834
3.8741721854304636,1.3412618543372863
3.8940397350993377,1.3370733827884067
3.9139072847682117,1.3339801091691155
3.9337748344370858,1.3320025661242894
3.9536423841059607,1.331154180077813
3.9735099337748347,1.3314410714970402
3.993377483443709,1.3328619635258108
4.013245033112583,1.3354082023197371
4.033112582781457,1.3390638883087203
4.052980132450331,1.3438061135558848
4.072847682119205,1.3496052966550998
4.0927152317880795,1.3564256034485842
4.112582781456953,1.3642254394339999
4.132450331125828,1.3729579981723925
4.152317880794702,1.3825718493338899
4.172185430463576,1.3930115501808504
4.19205298013245,1.404218265183202
4.211920529801325,1.4161303799397496
4.231788079470199,1.4286840974734532
4.251655629139073,1.441814007104902
4.271523178807947,1.4554536183280444
4.291390728476821,1.469535854280118
4.311258278145695,1.4839935014088272
4.33112582781457,1.4987596137216468
4.3509933774834435,1.5137678715126173
4.370860927152318,1.5289528956846852
4.390728476821192,1.5442505197260985
4.410596026490066,1.5595980220772685
4.43046357615894,1.5749343220701222
4.450331125827815,1.590200142869936
4.470198675496689,1.6053381449366453
4.490066225165563,1.6202930334838348
4.509933774834438,1.6350116432808313
4.529801324503311,1.6494430039449506
4.549668874172186,1.6635383886300723
4.569536423841059,1.6772513487539682
4.589403973509934,1.6905377371343846
4.6092715231788075,1.7033557216345052
4.629139072847682,1.7156657911597295
4.649006622516556,1.727430755605141
4.66887417218543,1.7386157411302787
4.688741721854305,1.7491881819356823
4.708609271523179,1.7591178095355335
4.728476821192054,1.7683766403616314
4.748344370860927,1.776938962395018
4.768211920529802,1.7847813214012567
4.788079470198675,1.7918825072424138
4.80794701986755,1.7982235406512919
4.827814569536423,1.8037876607789909
4.847682119205298,1.8085603137654964
4.867549668874172,1.8125291425305505
4.887417218543046,1.8156839779396978
4.9072847682119205,1.8180168314644156
4.927152317880794,1.8195218894259244
4.947019867549669,1.8201955088874058
4.966887417218543,1.8200362152383898
4.986754966887418,1.8190447014965898
5.006622516556291,1.8172238293356062
5.026490066225166,1.8145786318306008
5.04635761589404,1.8111163178974645
5.066225165562914,1.8068462783828712
5.086092715231788,1.8017800937423356
5.105960264900662,1.7959315432194018
5.125827814569536,1.7893166154107922
5.14569536423841,1.7819535200682513
5.1655629139072845,1.7738627009465229
5.185430463576159,1.7650668494574744
5.205298013245033,1.7555909188307834
5.225165562913908,1.7454621384106905
5.245033112582782,1.734710027634206
5.264900662251656,1.7233664091371987
5.28476821192053,1.711465420319214
5.304635761589404,1.699043522564216
5.324503311258278,1.686139507161242
5.344370860927152,1.672794496794812
5.364238410596027,1.6590519412801097
5.3841059602649,1.6449576060016902
5.403973509933775,1.6305595512792301
5.4238410596026485,1.6159081006316116
5.443708609271523,1.6010557956470022
5.463576158940397,1.5860573348984657
5.483443708609272,1.5709694940822445
5.503311258278146,1.555851024313593
5.52317880794702,1.5407625253099844
5.543046357615895,1.5257662900461528
5.562913907284768,1.5109261174066007
5.582781456953643,1.496307089418635
5.602649006622516,1.4819753098577073
5.622516556291391,1.4679976014109806
5.642384105960264,1.4544411592005408
5.662251655629139,1.4413731593341232
5.682119205298013,1.4288603222914702
5.701986754966887,1.416968432376158
5.7218543046357615,1.4057618161562127
5.741721854304636,1.3953027847462813
5.7615894039735105,1.3856510468858545
5.781456953642384,1.3768631019473134
5.801324503311259,1.3689916241387057
5.821192052980132,1.362084851099099
5.841059602649007,1.3561859916528651
5.860927152317881,1.35133266852587
5.880794701986755,1.3475564121804577
5.900662251655629,1.3448822214824696
5.920529801324503,1.3433282056114946
5.940397350993377,1.3429053194738163
5.960264900662251,1.34361720196009
5.980132450331126,1.345460122864603
6.0,1.3484230403696456
6.0198675496688745,1.3524877669573028
6.039735099337749,1.3576292377155823
6.059602649006623,1.3638158715144986
6.079470198675497,1.3710100126563003
6.099337748344371,1.3791684385057583
6.119205298013245,1.3882429173598123
6.139072847682119,1.3981808004247884
6.158940397350993,1.4089256321687995
6.178807947019867,1.420417764388988
6.198675496688741,1.4325949609259467
6.218543046357616,1.4453929819030138
6.23841059602649,1.4587461385011784
6.258278145695365,1.4725878114524775
6.2781456953642385,1.4868509285228995
6.298013245033113,1.5014683981670627
6.317880794701987,1.5163734982098496
6.337748344370861,1.531500219811222
6.357615894039735,1.5467835680905189
6.377483443708609,1.562159821635316
6.397350993377484,1.5775667537194622
6.417218543046357,1.5929438184371787
6.437086092715232,1.6082323051582645
6.456953642384105,1.6233754647603043
6.47682119205298,1.6383186110298547
6.496688741721854,1.6530092004762704
6.516556291390729,1.667396893595921
6.5364238410596025,1.681433600381855
6.556291390728477,1.6950735126127652
6.5761589403973515,1.708273125188502
6.596026490066225,1.720991248517505
6.6158940397351,1.733189013711911
6.635761589403973,1.7448298721125184
6.655629139072848,1.755879590452359
6.675496688741721,1.7663062427743152
6.695364238410596,1.7760802000465947
6.715231788079469,1.7851741182678464
6.735099337748344,1.7935629257221282
6.754966887417219,1.801223809929235
6.774834437086093,1.8081362047384355
6.794701986754967,1.814281777930186
6.814569536423841,1.8196444196203314
6.8344370860927155,1.8242102317023154
6.854304635761589,1.8279675185137028
6.874172185430464,1.8309067788723368
6.894039735099337,1.8330206995935068
6.913907284768212,1.8343041505707798
6.933774834437086,1.834754181479468
6.95364238410596,1.8343700201404054
6.973509933774834,1.8331530725637017
6.993377483443709,1.8311069246744491
7.013245033112583,1.8282373457054468
7.033112582781457,1.8245522932243399
7.052980132450331,1.8200619197426613
7.072847682119205,1.8147785808325647
7.0927152317880795,1.8087168446504314
7.112582781456954,1.801893502735849
7.132450331125828,1.7943275819171816
7.152317880794702,1.7860403571101044
7.172185430463576,1.7770553647423095
7.19205298013245,1.7673984164732428
7.211920529801324,1.7570976128022198
7.231788079470198,1.7461833560687998
7.251655629139073,1.7346883622443867
7.271523178807947,1.722647670792973
7.291390728476822,1.710098651738926
7.311258278145695,1.6970810089203208
7.33112582781457,1.6836367782273074
7.3509933774834435,1.6698103194243412
7.370860927152318,1.6556482999361366
7.390728476821192,1.641199668739759
7.410596026490066,1.6265156182541551
7.430463576158941,1.6116495318595667
7.450331125827814,1.5966569144200178
7.470198675496689,1.581595302935184
7.490066225165562,1.5665241542274884
7.509933774834438,1.5515047063960667
7.52980132450331,1.5365998106638397
7.549668874172186,1.5218737302353798
7.569536423841059,1.5073919029022047
7.589403973509934,1.4932206644117982
7.6092715231788075,1.479426930091836
7.629139072847682,1.466077832922827
7.649006622516557,1.4532403172080495
7.66887417218543,1.4409806882145997
7.6887417218543055,1.4293641196548514
7.708609271523178,1.4184541226243736
7.728476821192054,1.4083119815647678
7.748344370860927,1.398996164905107
7.768211920529802,1.3905617201498972
7.788079470198675,1.3830596651936276
7.80794701986755,1.3765363894009675
7.827814569536423,1.3710330793345054
7.847682119205298,1.366585184782631
7.8675496688741715,1.3632219408041608
7.887417218543046,1.3609659607711797
7.907284768211921,1.3598329138215717
7.927152317880795,1.3598312977635605
7.9470198675496695,1.36096231541121
7.966887417218543,1.3632198587489657
7.986754966887418,1.3665906014500704
8.006622516556291,1.3710541963672915
8.026490066225167,1.3765835709347105
8.046357615894038,1.3831453102044509
8.066225165562914,1.3907001146805915
8.086092715231787,1.3992033183303236
8.105960264900663,1.4086054512008586
8.125827814569536,1.418852830932678
8.14569536423841,1.429888168055393
8.165562913907285,1.4416511711569098
8.185430463576159,1.4540791396771557
8.205298013245034,1.4671075340329642
8.225165562913906,1.4806705148744996
8.245033112582782,1.4947014453707401
8.264900662251655,1.5091333524098942
8.28476821192053,1.523899344400468
8.304635761589404,1.5389329849174795
8.324503311258278,1.5541686227305298
8.344370860927151,1.5695416797725725
8.364238410596027,1.584988899372462
8.3841059602649,1.6004485576050271
8.403973509933774,1.6158606409403624
8.42384105960265,1.6311669935325053
8.443708609271523,1.646311437510893
8.463576158940398,1.6612398695569703
8.483443708609272,1.6759003368918288
8.503311258278146,1.6902430955925671
8.52317880794702,1.7042206539155815
8.543046357615895,1.7177878030499674
8.562913907284768,1.730901637466238
8.582781456953642,1.743521566773411
8.602649006622515,1.7556093207579826
8.62251655629139,1.7671289490552158
8.642384105960264,1.7780468166990742
8.66225165562914,1.7883315966132292
8.682119205298013,1.7979542599419698
8.701986754966887,1.806888064975359
8.721854304635762,1.8151085452976543
8.741721854304636,1.822593497679079
8.76158940397351,1.8293229701382006
8.781456953642383,1.8352792505227487
8.801324503311259,1.8404468558898301
8.821192052980132,1.844812522910225
8.841059602649008,1.8483651994742067
8.86092715231788,1.851096037636858
8.880794701986755,1.852998388008082
8.90066225165563,1.8540677956642992
8.920529801324504,1.8543019976352877
8.940397350993377,1.853700921998437
8.960264900662251,1.8522666885939683
8.980132450331126,1.850003611356124
9.0,1.8469182022374784
9.019867549668875,1.8430191766839497
9.039735099337747,1.8383174605968597
9.059602649006623,1.8328261986937067
9.079470198675496,1.8265607641509631
9.099337748344372,1.8195387693778213
9.119205298013245,1.8117800777294675
9.139072847682119,1.8033068159199477
9.158940397350994,1.7941433868368661
9.178807947019868,1.784316482391781
9.198675496688743,1.7738550959592823
9.218543046357615,1.762790533863129
9.23841059602649,1.7511564252577676
9.258278145695364,1.7389887296266031
9.27814569536424,1.7263257409733408
9.298013245033111,1.7132080876185853
9.317880794701987,1.6996787263303454
9.33774834437086,1.6857829293143096
9.357615894039736,1.6715682623693573
9.37748344370861,1.65708455227825
9.397350993377483,1.6423838412575407
9.417218543046358,1.6275203260411242
9.437086092715232,1.6125502789278927
9.456953642384107,1.5975319478984107
9.47682119205298,1.5825254327146694
9.496688741721854,1.5675925337805565
9.516556291390728,1.552796570483152
9.536423841059603,1.5382021657837277
9.556291390728477,1.5238749940132221
9.57615894039735,1.5098814891818457
9.596026490066224,1.4962885116687843
9.6158940397351,1.4831629719428931
9.635761589403973,1.4705714110006682
9.655629139072847,1.4585795385028575
9.675496688741722,1.447251731137933
9.695364238410596,1.436650495511599
9.715231788079471,1.4268359018018733
9.735099337748345,1.4178649964475503
9.754966887417218,1.4097912041444303
9.774834437086092,1.4026637312762833
9.794701986754967,1.3965269844558306
9.814569536423841,1.3914200189431225
9.834437086092716,1.387376032201353
9.854304635761588,1.384421917630315
9.874172185430464,1.382577892515991
9.894039735099337,1.3818572124415203
9.913907284768213,1.3822659818776097
9.933774834437086,1.3838030675338382
9.95364238410596,1.3864601174909392
9.973509933774835,1.3902216853758604
9.993377483443709,1.395065455132869
10.013245033112582,1.4009625585290253
10.033112582781456,1.4078779746219194
10.052980132450331,1.4157709981744198
10.072847682119205,1.4245957625219592
10.09271523178808,1.4343018017133236
10.112582781456952,1.4448346368194973
10.132450331125828,1.4561363720493128
10.152317880794701,1.4681462875971436
10.172185430463577,1.4808014178293487
10.192052980132452,1.494037105339105
10.211920529801324,1.5077875234211418
10.2317880794702,1.5219861615139803
10.251655629139073,1.5365662700307634
10.271523178807948,1.5514612626791595
10.29139072847682,1.566605075814158
10.311258278145695,1.5819324855543049
10.331125827814569,1.597379384322987
10.350993377483444,1.6128830191656371
10.370860927152318,1.6283821946654105
10.390728476821192,1.6438174435645532
10.410596026490065,1.6591311683273295
10.43046357615894,1.6742677568851296
10.450331125827816,1.689173675714912
10.470198675496688,1.7037975432436574
10.490066225165563,1.7180901863675508
10.509933774834437,1.7320046826422797
10.529801324503312,1.7454963904561227
10.549668874172186,1.7585229692503852
10.56953642384106,1.7710443916115401
10.589403973509933,1.7830229488312213
10.609271523178808,1.794423251318173
10.629139072847682,1.8052122250524008
10.649006622516556,1.8153591050969897
10.66887417218543,1.8248354270274239
10.688741721854305,1.833615017001233
