Frequency (Hz),Amplitude
0.0,0.42902976940194204
0.019867549668874173,0.4289112606013668
0.039735099337748346,0.4285560461911141
0.059602649006622516,0.4279650625565967
0.07947019867549669,0.4271398717097254
0.09933774834437085,0.4260826633420388
0.11920529801324503,0.4247962576960085
0.13907284768211922,0.42328410924997373
0.15894039735099338,0.4215503112086868
0.17880794701986755,0.41959960078608743
0.1986754966887417,0.41743736525952657
0.2185430463576159,0.41506964876432995
0.23841059602649006,0.4125031597836183
0.2582781456953642,0.40974527927033194
0.27814569536423844,0.406804069315117
0.2980132450331126,0.4036882822445492
0.31788079470198677,0.4004073699974901
0.33774834437086093,0.3969714935827814
0.3576158940397351,0.3933915323669082
0.3774834437086093,0.3896790928748999
0.3973509933774834,0.3858465167102653
0.4172185430463576,0.3819068871086582
0.4370860927152318,0.37787403353502064
0.45695364238410596,0.37376253361384654
0.4768211920529801,0.3695877115480822
0.49668874172185434,0.3653656320347025
0.5165562913907285,0.36111308852725116
0.5364238410596026,0.3568475845320843
0.5562913907284769,0.35258730646308134
0.5761589403973509,0.3483510864286725
0.5960264900662252,0.34415835319946486
0.6158940397350993,0.34002906952109846
0.6357615894039735,0.33598365391696766
0.6556291390728477,0.3320428851934235
0.6754966887417219,0.328227788043201
0.695364238410596,0.32455949846847504
0.7152317880794702,0.3210591082380119
0.7350993377483444,0.3177474882718604
0.7549668874172186,0.31464509171808974
0.7748344370860927,0.3117717385395799
0.7947019867549668,0.30914638463112065
0.8145695364238411,0.30678687978008
0.8344370860927152,0.30470972008074904
0.8543046357615894,0.30292980160321054
0.8741721854304636,0.3014601830759083
0.8940397350993378,0.3003118659369576
0.9139072847682119,0.29949360022911925
0.9337748344370861,0.2990117243756913
0.9536423841059603,0.29887004585097154
0.9735099337748344,0.2990697681836067
0.9933774834437087,0.29960946770440927
1.0132450331125828,0.30048512113135184
1.033112582781457,0.301690182670246
1.0529801324503312,0.3032157070110649
1.0728476821192052,0.3050505126119787
1.0927152317880795,0.3071813781387432
1.1125827814569538,0.30959326396091363
1.1324503311258278,0.3122695502253754
1.1523178807947019,0.31519228319811593
1.1721854304635762,0.318342422201071
1.1920529801324504,0.3217000804564907
1.2119205298013245,0.3252447543561569
1.2317880794701985,0.32895553697211716
1.2516556291390728,0.33281131291124355
1.271523178807947,0.33679093280432265
1.2913907284768211,0.34087336675546076
1.3112582781456954,0.345037836929115
1.3311258278145695,0.34926393011147666
1.3509933774834437,0.35353169155824055
1.370860927152318,0.35782170175121847
1.390728476821192,0.3621151378569941
1.410596026490066,0.36639382173932245
1.4304635761589404,0.37064025635004455
1.4503311258278146,0.374837652235378
1.4701986754966887,0.37896994576595133
1.4900662251655628,0.3830218105472289
1.5099337748344372,0.38697866330487135
1.5298013245033113,0.39082666537671523
1.5496688741721854,0.39455272078686626
1.5695364238410596,0.39814447173130607
1.5894039735099337,0.40159029217197595
1.609271523178808,0.40487928011829266
1.6291390728476822,0.40800124907127766
1.6490066225165563,0.410946719016493
1.6688741721854303,0.41370690727550574
1.6887417218543048,0.41627371946188674
1.7086092715231789,0.41863974073415283
1.728476821192053,0.4207982274945683
1.7483443708609272,0.42274309964680573
1.7682119205298013,0.424468933497357
1.7880794701986755,0.42597095536266927
1.8079470198675496,0.4272450359267327
1.8278145695364238,0.4282876853805245
1.847682119205298,0.42909604936471946
1.8675496688741722,0.4296679057301797
1.8874172185430464,0.43000166212575847
1.9072847682119205,0.43009635442000066
1.9271523178807946,0.4299516459612895
1.9470198675496688,0.4295678276803801
1.9668874172185429,0.42894581903851636
1.9867549668874174,0.4280871698243808
2.0066225165562916,0.4269940628026192
2.0264900662251657,0.4256693172157235
2.0463576158940397,0.42411639313931343
2.066225165562914,0.4223393966876307
2.086092715231788,0.42034308606121074
2.1059602649006623,0.41813287842129326
2.1258278145695364,0.415714857565611
2.1456953642384105,0.4130957823661607
2.165562913907285,0.4102830959115499
2.185430463576159,0.40728493527288623
2.205298013245033,0.40411014178230087
2.2251655629139075,0.40076827167559076
2.2450331125827816,0.39726960690430246
2.2649006622516556,0.39362516586563395
2.2847682119205297,0.38984671373045887
2.3046357615894038,0.3859467719679488
2.324503311258278,0.38193862656914696
2.3443708609271523,0.37783633436011915
2.364238410596027,0.3736547266667926
2.384105960264901,0.3694094094494523
2.403973509933775,0.3651167588649489
2.423841059602649,0.36079391104274366
2.443708609271523,0.35645874468117345
2.463576158940397,0.35212985489012644
2.4834437086092715,0.34782651653698005
2.5033112582781456,0.34356863520746606
2.52317880794702,0.33937668379265007
2.543046357615894,0.3352716226791958
2.562913907284768,0.33127480158051187
2.5827814569536423,0.3274078412320224
2.6026490066225163,0.32369249351443113
2.622516556291391,0.3201504790943962
2.642384105960265,0.31680330240304916
2.662251655629139,0.31367204471798593
2.6821192052980134,0.3107771372639616
2.7019867549668874,0.3081381175646742
2.7218543046357615,0.3057733736981275
2.741721854304636,0.30369988253461255
2.76158940397351,0.30193294934411985
2.781456953642384,0.3004859572082103
2.801324503311258,0.29937013531258316
2.821192052980132,0.2985943553045006
2.8410596026490067,0.29816496438401163
2.8609271523178808,0.298085662631606
2.8807947019867552,0.2983574303010796
2.9006622516556293,0.29897850854440494
2.9205298013245033,0.29994443446867064
2.9403973509933774,0.3012481287792617
2.9602649006622515,0.3028800317746826
2.9801324503311255,0.3048282813412598
3.0,0.3070789250140732
3.0198675496688745,0.30961615721833924
3.0397350993377485,0.31242257250158645
3.0596026490066226,0.31547942586072897
3.0794701986754967,0.3187668920556779
3.0993377483443707,0.32226431694622787
3.119205298013245,0.32595045524560706
3.1390728476821192,0.3298036905148932
3.1589403973509933,0.3338022346121305
3.1788079470198674,0.337924305072406
3.198675496688742,0.34214827997589403
3.218543046357616,0.34645283073203487
3.23841059602649,0.35081703386804297
3.2582781456953644,0.3552204633702933
3.2781456953642385,0.3596432654136797
3.2980132450331126,0.364066217455224
3.3178807947019866,0.36847077369594056
3.3377483443708607,0.3728390988575277
3.3576158940397347,0.3771540921047488
3.3774834437086096,0.381399402791293
3.3973509933774837,0.3855594395344264
3.4172185430463577,0.3896193739443832
3.437086092715232,0.39356514015824173
3.456953642384106,0.3973834311611354
3.47682119205298,0.40106169272402314
3.4966887417218544,0.40458811564909286
3.5165562913907285,0.4079516268922119
3.5364238410596025,0.4111418800258236
3.556291390728477,0.41414924541545595
3.576158940397351,0.41696480040614325
3.596026490066225,0.41958031975162013
3.615894039735099,0.42198826646632087
3.6357615894039736,0.4241817832373481
3.6556291390728477,0.4261546844992958
3.6754966887417218,0.4279014492474125
3.695364238410596,0.42941721464338334
3.7152317880794703,0.43069777045194424
3.7350993377483444,0.4317395543344374
3.754966887417219,0.43253964801691963
3.774834437086093,0.4330957743447272
3.794701986754967,0.43340629523169505
3.814569536423841,0.43347021051045687
3.834437086092715,0.43328715768975185
3.854304635761589,0.4328574126248291
3.8741721854304636,0.43218189110801036
3.8940397350993377,0.4312621513874628
3.9139072847682117,0.43010039762309454
3.9337748344370858,0.42869948428890686
3.9536423841059607,0.42706292153048314
3.9735099337748347,0.42519488148457
3.993377483443709,0.42310020556392625
4.013245033112583,0.4207844127046316
4.033112582781457,0.418253708563989
4.052980132450331,0.4155149956442922
4.072847682119205,0.4125758843002632
4.0927152317880795,0.4094447045646434
4.112582781456953,0.4061305186963477
4.132450331125828,0.40264313431702375
4.152317880794702,0.3989931179535541
4.172185430463576,0.3951918087441756
4.19205298013245,0.3912513319923329
4.211920529801325,0.3871846121639106
4.231788079470199,0.38300538481723073
4.251655629139073,0.37872820683062075
4.271523178807947,0.37436846414674047
4.291390728476821,0.3699423760872688
4.311258278145695,0.3654669951049148
4.33112582781457,0.3609602006357115
4.3509933774834435,0.35644068549651675
4.370860927152318,0.35192793304928294
4.390728476821192,0.3474421831359771
4.410596026490066,0.3430043845924045
4.43046357615894,0.33863613199821685
4.450331125827815,0.33435958424102447
4.470198675496689,0.330197362498971
4.490066225165563,0.3261724254162116
4.509933774834438,0.32230791959981697
4.529801324503311,0.31862700414329104
4.549668874172186,0.3151526487123867
4.569536423841059,0.3119074058285206
4.589403973509934,0.30891315934774266
4.6092715231788075,0.3061908527179723
4.629139072847682,0.30376020232743767
4.649006622516556,0.30163940301219444
4.66887417218543,0.2998448344141904
4.688741721854305,0.29839077819007187
4.708609271523179,0.29728915687609003
4.728476821192054,0.2965493053505471
4.748344370860927,0.29617778518680016
4.768211920529802,0.29617825072279236
4.788079470198675,0.2965513734495902
4.80794701986755,0.29729482850288286
4.827814569536423,0.29840334387190043
4.847682119205298,0.2998688097160251
4.867549668874172,0.30168044220297097
4.887417218543046,0.3038249938208552
4.9072847682119205,0.30628700036308987
4.927152317880794,0.3090490538377635
4.947019867549669,0.31209209040995856
4.966887417218543,0.3153956830583027
4.986754966887418,0.31893832976488723
5.006622516556291,0.3226977295772583
5.026490066225166,0.326651040595981
5.04635761589404,0.33077511568399853
5.066225165562914,0.33504671333139446
5.086092715231788,0.33944268254951704
5.105960264900662,0.3439401218587649
5.125827814569536,0.34851651335690226
5.14569536423841,0.35314983351834295
5.1655629139072845,0.3578186428051378
5.185430463576159,0.3625021564041041
5.205298013245033,0.36718029848099115
5.225165562913908,0.3718337423010906
5.245033112582782,0.37644393844094587
5.264900662251656,0.3809931331376638
5.28476821192053,0.3854643786145263
5.304635761589404,0.38984153700241847
5.324503311258278,0.3941092792589473
5.344370860927152,0.39825308028051776
5.364238410596027,0.40225921121179425
5.3841059602649,0.4061147297861242
5.403973509933775,0.4098074693792643
5.4238410596026485,0.41332602732860924
5.443708609271523,0.41665975295844637
5.463576158940397,0.4197987356583586
5.483443708609272,0.4227337932839997
5.503311258278146,0.42545646108587876
5.52317880794702,0.42795898131993854
5.543046357615895,0.43023429365285076
5.562913907284768,0.43227602644242574
5.582781456953643,0.43407848894867557
5.602649006622516,0.4356366645124706
5.622516556291391,0.43694620472500373
5.642384105960264,0.43800342460188724
5.662251655629139,0.43880529876992713
5.682119205298013,0.4393494586709857
5.701986754966887,0.43963419078669
5.7218543046357615,0.43965843588798
5.741721854304636,0.43942178931573395
5.7615894039735105,0.43892450230107516
5.781456953642384,0.4381674843377269
5.801324503311259,0.4371523066220256
5.821192052980132,0.43588120657986607
5.841059602649007,0.4343570935027635
5.860927152317881,0.4325835553175662
5.880794701986755,0.43056486651525006
5.900662251655629,0.4283059972635881
5.920529801324503,0.4258126237253278
5.940397350993377,0.4230911395975022
5.960264900662251,0.4201486688775167
5.980132450331126,0.41699307984671946
6.0,0.4136330002413379
6.0198675496688745,0.4100778335517292
6.039735099337749,0.4063377763534679
6.059602649006623,0.40242383652416885
6.079470198675497,0.39834785213740637
6.099337748344371,0.39412251074614785
6.119205298013245,0.38976136867005773
6.139072847682119,0.3852788697814146
6.158940397350993,0.38069036313944593
6.178807947019867,0.3760121186505204
6.198675496688741,0.37126133972940795
6.218543046357616,0.3664561717035069
6.23841059602649,0.3616157044386288
6.258278145695365,0.3567599673744011
6.2781456953642385,0.35190991484739576
6.298013245033113,0.3470873992623101
6.317880794701987,0.34231512936507025
6.337748344370861,0.3376166106031662
6.357615894039735,0.3330160643636013
6.377483443708609,0.32853832280296746
6.397350993377484,0.32420869608157943
6.417218543046357,0.3200528091450566
6.437086092715232,0.3160964058239404
6.456953642384105,0.3123651190012274
6.47682119205298,0.30888420696617774
6.496688741721854,0.3056782578382723
6.516556291390729,0.3027708660681535
6.5364238410596025,0.30018428740564806
6.556291390728477,0.2979390812045101
6.5761589403973515,0.29605375128207867
6.596026490066225,0.29454439849514324
6.6158940397351,0.2934243994391673
6.635761589403973,0.29270412596439976
6.655629139072848,0.292390719344653
6.675496688741721,0.29248793087398106
6.695364238410596,0.292996037499978
6.715231788079469,0.2939118370855511
6.735099337748344,0.29522872340922524
6.754966887417219,0.2969368365269851
6.774834437086093,0.29902328008611767
6.794701986754967,0.30147239398986386
6.814569536423841,0.30426606871898065
6.8344370860927155,0.30738408672072404
6.854304635761589,0.3108044765222738
6.874172185430464,0.3145038664317277
6.894039735099337,0.31845782659592275
6.913907284768212,0.32264119050109163
6.933774834437086,0.3270283494563714
6.95364238410596,0.33159351596503683
6.973509933774834,0.33631095400018013
6.993377483443709,0.3411551759621402
7.013245033112583,0.34610110746453615
7.033112582781457,0.35112422208014926
7.052980132450331,0.3562006488132495
7.072847682119205,0.3613072554069015
7.0927152317880795,0.3664217107018891
7.112582781456954,0.37152252919947165
7.132450331125828,0.3765891007957365
7.152317880794702,0.38160170839664814
7.172185430463576,0.3865415358248774
7.19205298013245,0.3913906681193674
7.211920529801324,0.39613208602476696
7.231788079470198,0.40074965618248903
7.251655629139073,0.4052281182760006
7.271523178807947,0.4095530701529206
7.291390728476822,0.4137109517468047
7.311258278145695,0.41768902845095257
7.33112582781457,0.42147537445340105
7.3509933774834435,0.4250588564234754
7.370860927152318,0.42842911784318
7.390728476821192,0.43157656419858564
7.410596026490066,0.43449234918412116
7.430463576158941,0.4371683620239246
7.450331125827814,0.43959721597727197
7.470198675496689,0.4417722380669585
7.490066225165562,0.44368746004935644
7.509933774834438,0.44533761063078803
7.52980132450331,0.446718108925957
7.549668874172186,0.44782505914939624
7.569536423841059,0.4486552465293764
7.589403973509934,0.4492061344347299
7.6092715231788075,0.44947586270827744
7.629139072847682,0.4494632472053771
7.649006622516557,0.4491677805419757
7.66887417218543,0.4485896340636991
7.6887417218543055,0.4477296610549238
7.708609271523178,0.44658940121486723
7.728476821192054,0.4451710864356962
7.748344370860927,0.44347764792553995
7.768211920529802,0.4415127247268474
7.788079470198675,0.4392806736867184
7.80794701986755,0.4367865809413937
7.827814569536423,0.43403627498002556
7.847682119205298,0.43103634135373553
7.8675496688741715,0.4277941390928876
7.887417218543046,0.4243178188881404
7.907284768211921,0.42061634307703893
7.927152317880795,0.41669950745661927
7.9470198675496695,0.41257796491111454
7.966887417218543,0.4082632507998495
7.986754966887418,0.40376780999086026
8.006622516556291,0.3991050253468613
8.026490066225167,0.39428924736721166
8.046357615894038,0.3893358245587078
8.066225165562914,0.38426113394193734
8.086092715231787,0.37908261089553846
8.105960264900663,0.37381877728897805
8.125827814569536,0.36848926655346437
8.14569536423841,0.36311484398331373
8.165562913907285,0.3577174201479582
8.185430463576159,0.35232005482833406
8.205298013245034,0.3469469483818926
8.225165562913906,0.34162341690468956
8.245033112582782,0.33637584702868645
8.264900662251655,0.3312316257127072
8.28476821192053,0.32621904002050045
8.304635761589404,0.32136714171329617
8.324503311258278,0.31670557161904467
8.344370860927151,0.31226433929269476
8.364238410596027,0.3080735545709691
8.3841059602649,0.3041631093556699
8.403973509933774,0.3005623103970992
8.42384105960265,0.29729946698887155
8.443708609271523,0.294401441220554
8.463576158940398,0.2918931725305768
8.483443708609272,0.289797192388923
8.503311258278146,0.28813314852844696
8.52317880794702,0.2869173606823683
8.543046357615895,0.2861624307421326
8.562913907284768,0.2858769292227718
8.582781456953642,0.28606517674811793
8.602649006622515,0.28672713409103867
8.62251655629139,0.2878584075984106
8.642384105960264,0.28945036933408314
8.66225165562914,0.2914903838703712
8.682119205298013,0.2939621272114089
8.701986754966887,0.296845978531358
8.721854304635762,0.30011946265963685
8.741721854304636,0.30375772062129963
8.76158940397351,0.3077339868215469
8.781456953642383,0.31202005421470785
8.801324503311259,0.31658671247931397
8.821192052980132,0.32140414829183167
8.841059602649008,0.3264423007903593
8.86092715231788,0.3316711689066799
8.880794701986755,0.33706107021680415
8.90066225165563,0.34258285323312626
8.920529801324504,0.3482080666475123
8.940397350993377,0.3539090900074849
8.960264900662251,0.35965923077499373
8.980132450331126,0.36543279279626845
9.0,0.37120512101406655
9.019867549668875,0.3769526268777378
9.039735099337747,0.3826527984293793
9.059602649006623,0.38828419852658447
9.079470198675496,0.39382645414415385
9.099337748344372,0.3992602392082641
9.119205298013245,0.4045672529707837
9.139072847682119,0.40973019553917017
9.158940397350994,0.414732741838476
9.178807947019868,0.41955951499643457
9.198675496688743,0.424196059905295
9.218543046357615,0.42862881752037696
9.23841059602649,0.43284510029944967
9.258278145695364,0.4368330690634343
9.27814569536424,0.44058171146258224
9.298013245033111,0.444080822158188
9.317880794701987,0.44732098477451854
9.33774834437086,0.4502935556348463
9.357615894039736,0.45299064926703214
9.37748344370861,0.455405125644902
9.397350993377483,0.45753057912023914
9.417218543046358,0.45936132899472626
9.437086092715232,0.4608924116803179
9.456953642384107,0.46211957439935003
9.47682119205298,0.46303927038136905
9.496688741721854,0.4636486555217005
9.516556291390728,0.4639455864762895
9.536423841059603,0.46392862017868575
9.556291390728477,0.4635970147770939
9.57615894039735,0.46295073200264375
9.596026490066224,0.46199044099410963
9.6158940397351,0.4607175236185741
9.635761589403973,0.45913408134295924
9.655629139072847,0.4572429437266134
9.675496688741722,0.4550476786208788
9.695364238410596,0.45255260417728876
9.715231788079471,0.4497628027814621
9.735099337748345,0.446684137044565
9.754966887417218,0.44332326799759575
9.774834437086092,0.43968767564548733
9.794701986754967,0.4357856820463628
9.814569536423841,0.4316264770856033
9.834437086092716,0.4272201471123238
9.854304635761588,0.42257770659541344
9.874172185430464,0.4177111329341849
9.894039735099337,0.4126334045213726
9.913907284768213,0.4073585420981599
9.933774834437086,0.4019016533567546
9.95364238410596,0.39627898062762457
9.973509933774835,0.39050795132649196
9.993377483443709,0.3846072306207193
10.013245033112582,0.3785967754915347
10.033112582781456,0.37249788900536984
10.052980132450331,0.36633327314789826
10.072847682119205,0.3601270780049482
10.09271523178808,0.3539049443819649
10.112582781456952,0.3476940361320077
10.132450331125828,0.34152305751383916
10.152317880794701,0.3354222498457527
10.172185430463577,0.32942336059986727
10.192052980132452,0.3235595769722252
10.211920529801324,0.3178654149847067
10.2317880794702,0.3123765544962467
10.251655629139073,0.307129610348613
10.271523178807948,0.3021618305195736
10.29139072847682,0.2975107139053213
10.311258278145695,0.2932135434890964
10.331125827814569,0.28930683537573715
10.350993377483444,0.28582571051088745
10.370860927152318,0.28280320361784667
10.390728476821192,0.2802695323838875
10.410596026490065,0.27825135824755604
10.43046357615894,0.27677107700890025
10.450331125827816,0.27584618151436935
10.470198675496688,0.27548873863336526
10.490066225165563,0.2757050179199207
10.509933774834437,0.2764952997997522
