Time (s),Filtered Signal
0.0,0.09207455585058764
0.03337004405286344,0.05935792849116063
0.06674008810572687,0.041163027116768905
0.10011013215859031,0.04714224533099295
0.13348017621145375,0.07772084464877088
0.16685022026431717,0.1251703151682372
0.20022026431718062,0.1775386348824428
0.23359030837004408,0.22257005207193292
0.2669603524229075,0.2494509261157472
0.3003303964757709,0.24868222663514503
0.33370044052863435,0.2126518398924902
0.3670704845814978,0.1394406606167091
0.40044052863436125,0.039499437488780466
0.43381057268722467,-0.05908994235375318
0.46718061674008815,-0.11278766591532145
0.5005506607929515,-0.07551711301154505
0.533920704845815,0.08071809394409521
0.5672907488986785,0.3467894430312267
0.6006607929515418,0.6698571563061658
0.6340308370044053,0.9652448544537174
0.6674008810572687,1.1436403728989353
0.7007709251101322,1.142250950908215
0.7341409691629956,0.9460553175123998
0.767511013215859,0.5901054829405356
0.8008810572687225,0.14325455678656654
0.834251101321586,-0.31757624080279695
0.8676211453744493,-0.7301966417958182
0.9009911894273128,-1.058182790371308
0.9343612334801763,-1.2889757013359
0.9677312775330397,-1.4246240237929995
1.001101321585903,-1.472739399316942
1.0344713656387665,-1.4421639683886787
1.06784140969163,-1.3428285185707376
1.1012114537444935,-1.186248686439852
1.134581497797357,-0.9839302574079853
1.1679515418502202,-0.7442879183849931
1.2013215859030837,-0.4713219722555704
1.2346916299559472,-0.1678240841158263
1.2680616740088106,0.157499661660871
1.3014317180616741,0.48332809855873504
1.3348017621145374,0.7749121874069642
1.3681718061674009,0.9919374738820018
1.4015418502202643,1.1027625183175231
1.4349118942731278,1.0983573265652407
1.4682819383259913,0.9984502708233898
1.5016519823788548,0.845878881970009
1.535022026431718,0.6910613940653133
1.5683920704845815,0.5735465326041753
1.601762114537445,0.5090103851079446
1.6351321585903085,0.4872237706007084
1.668502202643172,0.48110027328438476
1.7018722466960352,0.46182381127064837
1.7352422907488987,0.41265521904281666
1.7686123348017622,0.3351614725765118
1.8019823788546256,0.2454669113931388
1.8353524229074891,0.1628671029775548
1.8687224669603526,0.09676487433279693
1.9020925110132159,0.03883869947998716
1.9354625550660793,-0.03492694803450333
1.9688325991189428,-0.15244602451589728
2.002202643171806,-0.329183940288199
2.0355726872246698,-0.5554206261609043
2.068942731277533,-0.7942702546201453
2.1023127753303967,-0.9927373761364098
2.13568281938326,-1.1016111703268623
2.1690528634361232,-1.0952530644508767
2.202422907488987,-0.9819438836442375
2.23579295154185,-0.7997970774981058
2.269162995594714,-0.6001543767438721
2.302533039647577,-0.4263441605739147
2.3359030837004404,-0.29773152204463843
2.369273127753304,-0.20619051210193937
2.4026431718061674,-0.12593397972793482
2.436013215859031,-0.03109454244910699
2.4693832599118943,0.08822768181844183
2.5027533039647576,0.21970262907522692
2.5361233480176213,0.33530983500065986
2.5694933920704845,0.40697420719898936
2.6028634361233483,0.422911601160533
2.6362334801762115,0.39606183956233315
2.6696035242290748,0.3601637150179124
2.7029735682819385,0.355265192614975
2.7363436123348017,0.40949845739949736
2.7697136563876654,0.5254071257918962
2.8030837004405287,0.6766560142803908
2.8364537444933924,0.816208628081923
2.8698237885462556,0.8924706661412632
2.903193832599119,0.8673225581443951
2.9365638766519826,0.7298762993431873
2.969933920704846,0.5015284765758392
3.0033039647577096,0.23049954517361249
3.036674008810573,-0.023022561398898706
3.070044052863436,-0.2070467688738469
3.1034140969162998,-0.2966738416338298
3.136784140969163,-0.3042521119369334
3.1701541850220267,-0.2753008929398806
3.20352422907489,-0.2698492663393961
3.2368942731277532,-0.3355055275064273
3.270264317180617,-0.4835084242689325
3.30363436123348,-0.679120050926414
3.337004405286344,-0.8521803732159526
3.370374449339207,-0.9247265730639337
3.4037444933920704,-0.8445248801559699
3.437114537444934,-0.610088784205217
3.4704845814977974,-0.27587831537665364
3.503854625550661,0.06546101074517553
3.5372246696035243,0.31726971230818973
3.5705947136563876,0.41574917848995624
3.6039647577092513,0.3542286352091081
3.6373348017621145,0.18437529654547083
3.6707048458149782,-0.0064327815527249485
3.7040748898678415,-0.1318407735654425
3.737444933920705,-0.1411654704192423
3.7708149779735685,-0.036792641977053606
3.8041850220264317,0.13249958870611755
3.8375550660792954,0.2975588239569117
3.8709251101321587,0.4006493109355758
3.9042951541850224,0.41777809616577966
3.9376651982378856,0.36230880085903205
3.971035242290749,0.270655554179311
4.004405286343612,0.17944158703220084
4.037775330396476,0.10644920910774268
4.0711453744493395,0.044258463907858904
4.104515418502203,-0.03168049756434581
4.137885462555066,-0.14570327796364843
4.171255506607929,-0.30418012532993705
4.2046255506607935,-0.48583880559856063
4.237995594713657,-0.6449701588227489
4.27136563876652,-0.7269443618363965
4.304735682819383,-0.6902130319377296
4.3381057268722465,-0.5257282590749797
4.371475770925111,-0.26495438827889634
4.404845814977974,0.028274617314874347
4.438215859030837,0.28014425485786837
4.4715859030837,0.43495252509200544
4.504955947136564,0.47680567633217696
4.538325991189428,0.43458199903954614
4.571696035242291,0.36700238484190206
4.605066079295154,0.33433740610344975
4.638436123348018,0.3704375996226751
4.671806167400881,0.46893387365868994
4.705176211453745,0.5899403504432228
4.738546255506608,0.682528495082801
4.7719162995594715,0.7101276288405195
4.805286343612335,0.6654583896785459
4.838656387665198,0.5684710528277247
4.872026431718062,0.45055749641124937
4.905396475770925,0.3353105574026158
4.938766519823789,0.22678883129002084
4.972136563876652,0.11096732465918777
5.005506607929515,-0.03166562064228924
5.038876651982379,-0.2102291291406473
5.072246696035243,-0.4133268311838687
5.105616740088106,-0.6102120307785553
5.138986784140969,-0.7628015259455848
5.172356828193832,-0.8426860436877344
5.2057268722466965,-0.8448346221328957
5.23909691629956,-0.7911452548790594
5.272466960352423,-0.7216358500166014
5.305837004405286,-0.6768354254014434
5.3392070484581495,-0.6792134569567154
5.372577092511014,-0.7222325101564288
5.405947136563877,-0.7723462537443456
5.43931718061674,-0.7833985329068711
5.4726872246696034,-0.7171180817741347
5.506057268722468,-0.5605047997421602
5.539427312775331,-0.33231059119024
5.572797356828194,-0.07585788104457945
5.606167400881057,0.15839321845266394
5.639537444933921,0.33280521473271746
5.672907488986785,0.43668676236044035
5.706277533039648,0.48907889805234644
5.739647577092511,0.5294021338319361
5.7730176211453745,0.5997193257878286
5.806387665198238,0.7253726834759864
5.839757709251102,0.9014855431717532
5.873127753303965,1.0910486379164943
5.9064977973568284,1.236310013043002
5.939867841409692,1.2800183560114657
5.973237885462555,1.188628437897473
6.006607929515419,0.9679622345394613
6.039977973568282,0.6641865915614135
6.073348017621146,0.3486802120316281
6.106718061674009,0.09212774398352451
6.140088105726872,-0.06188613599040698
6.173458149779736,-0.11261998058014967
6.2068281938325995,-0.09995846693632664
6.240198237885463,-0.08443066468577881
6.273568281938326,-0.11792720226537405
6.306938325991189,-0.21879386538376383
6.3403083700440535,-0.36395040951564933
6.373678414096917,-0.5028681822488329
6.40704845814978,-0.5868637366635018
6.440418502202643,-0.5982008647626204
6.4737885462555065,-0.5624722278069161
6.507158590308371,-0.5361326190498855
6.540528634361234,-0.5747990879792956
6.573898678414097,-0.6993465989198598
6.60726872246696,-0.8790817290626917
6.640638766519824,-1.0425628757015968
6.674008810572688,-1.1114844324552349
6.707378854625551,-1.0399039329509958
6.740748898678414,-0.837528671546673
6.774118942731278,-0.56407326221073
6.807488986784141,-0.2974438404464263
6.840859030837005,-0.09300959879493771
6.874229074889868,0.04363636555039473
6.9075991189427315,0.15526622786811908
6.940969162995595,0.3036020480965322
6.974339207048458,0.5282599389077817
7.007709251101322,0.8172477077034943
7.041079295154185,1.1061187871161953
7.074449339207049,1.3070637737690272
7.107819383259912,1.3525020725517118
7.141189427312775,1.2296284087869762
7.174559471365639,0.9874794680278864
7.207929515418503,0.7133291377078111
7.241299559471366,0.4916767739893994
7.274669603524229,0.3674547023238905
7.308039647577092,0.331216357548368
7.3414096916299565,0.33114169999532767
7.37477973568282,0.3027132996104418
7.408149779735683,0.1995600928040035
7.441519823788546,0.011201829584928045
7.47488986784141,-0.2375577973867518
7.508259911894274,-0.5011344668545957
7.541629955947137,-0.7319991180844186
7.575,-0.8953235481370883
7.608370044052863,-0.975748429172689
7.641740088105728,-0.9772469385063742
7.675110132158591,-0.9188687315074067
7.708480176211454,-0.8282358462744384
7.741850220264317,-0.7332185035970794
7.775220264317181,-0.6523710047718119
7.808590308370045,-0.5866717346214607
7.841960352422908,-0.5169702325360429
7.875330396475771,-0.41079106138202076
7.9087004405286345,-0.23791259575385704
7.942070484581498,0.011558974550374376
7.975440528634362,0.316133665334616
8.008810572687224,0.626121509556243
8.042180616740088,0.8809082130702595
8.075550660792953,1.031982002509349
8.108920704845815,1.059787087283045
8.142290748898679,0.9762256371560668
8.175660792951541,0.8134675382465936
8.209030837004406,0.607764882057478
8.24240088105727,0.38879298238164317
8.275770925110132,0.17960947332299765
8.309140969162996,0.0036787944125464224
8.342511013215859,-0.11024735472940618
8.375881057268723,-0.1332312573400842
8.409251101321587,-0.05148201513626245
8.44262114537445,0.1165720212658735
8.475991189427313,0.31386530672068136
8.509361233480176,0.4572839719376309
8.54273127753304,0.46741403911142954
8.576101321585904,0.3029862996025763
8.609471365638766,-0.017077925688469952
8.64284140969163,-0.4165149958234488
8.676211453744493,-0.7900855918475673
8.709581497797357,-1.0451624533489257
8.742951541850221,-1.137261898646494
8.776321585903084,-1.0830413822617255
8.809691629955948,-0.94544262400094
8.84306167400881,-0.7993339684465884
8.876431718061674,-0.6951423937241498
8.909801762114538,-0.6380535785243581
8.9431718061674,-0.5917149947934198
8.976541850220265,-0.5027871026835702
9.009911894273127,-0.3326845523186609
9.043281938325991,-0.0802336168554021
9.076651982378856,0.21548912244237642
9.110022026431718,0.4924716818013558
9.143392070484582,0.6936959582181468
9.176762114537445,0.7915438617187691
9.210132158590309,0.7971491942897868
9.243502202643173,0.7513051164224455
9.276872246696035,0.7028418642458724
9.3102422907489,0.6860255428192852
9.343612334801762,0.7077786489841527
9.376982378854626,0.7492838733579702
9.41035242290749,0.7787152312136857
9.443722466960352,0.7669170558870777
9.477092511013216,0.6981345244395818
9.510462555066079,0.572363120501222
9.543832599118943,0.40120195748920284
9.577202643171807,0.20198326779116163
9.61057268722467,-0.005859298274385916
9.643942731277534,-0.2015250934250994
9.677312775330396,-0.3632036516811044
9.71068281938326,-0.47129652902575103
9.744052863436124,-0.5153784474599047
9.777422907488987,-0.5018450498010071
9.81079295154185,-0.45661727236271327
9.844162995594713,-0.418499051759044
9.877533039647577,-0.4238657103423081
9.910903083700441,-0.48936582980603716
9.944273127753304,-0.602030472505436
9.977643171806168,-0.7231528535951651
10.01101321585903,-0.8049247597580831
10.044383259911895,-0.8115907751158824
10.077753303964759,-0.7343383156552317
10.111123348017621,-0.5928006374213263
10.144493392070485,-0.42354081369150914
10.177863436123348,-0.26262353061117144
10.211233480176212,-0.13153098050949566
10.244603524229076,-0.03246847385038389
10.277973568281938,0.04691297463231368
10.311343612334802,0.12419841262863152
10.344713656387665,0.21409373872455625
10.378083700440529,0.32460968329535667
10.411453744493393,0.45683238949543276
10.444823788546255,0.6055198755951773
10.47819383259912,0.7586008250707387
10.511563876651982,0.8961982326556835
10.544933920704846,0.9917176732583928
10.57830396475771,1.017168920388285
10.611674008810573,0.9523959545341889
10.645044052863437,0.7949663592047869
10.678414096916299,0.5660058245735188
10.711784140969163,0.30813721601568655
10.745154185022027,0.0745192410111523
10.77852422907489,-0.08832960896097171
10.811894273127754,-0.1580060943998471
10.845264317180618,-0.14667576099830648
10.87863436123348,-0.09876765984031857
10.912004405286345,-0.07492001167708363
10.945374449339207,-0.1274837341437757
10.978744493392071,-0.27762805020747944
11.012114537444935,-0.5043749742421394
11.045484581497798,-0.7510333569739136
11.078854625550662,-0.9467166303833667
11.112224669603524,-1.0338045109301874
11.145594713656388,-0.9896935955772107
11.178964757709252,-0.8339944543095527
11.212334801762115,-0.6188422354662059
11.245704845814979,-0.4070270605494132
11.279074889867841,-0.24722077627743363
11.312444933920705,-0.15613142924085946
11.34581497797357,-0.11420969160900775
11.379185022026432,-0.07614427670241979
11.412555066079296,0.008120305498441057
11.445925110132158,0.1699553130297906
11.479295154185023,0.4054164245040909
11.512665198237887,0.6725754621458463
11.546035242290749,0.9050749957394137
11.579405286343613,1.0375651357054463
11.612775330396476,1.0327444448338612
11.64614537444934,0.8975608039646367
11.679515418502204,0.6799532663785923
11.712885462555066,0.4466226688940353
11.74625550660793,0.252433157277268
11.779625550660793,0.11729479157739534
11.812995594713657,0.022977614677321456
11.846365638766521,-0.06855477235924123
11.879735682819383,-0.18605931311984553
11.913105726872248,-0.32643822344545903
11.94647577092511,-0.45240675584476037
11.979845814977974,-0.5124013873160088
12.013215859030838,-0.47168086649537166
12.0465859030837,-0.33694912780556213
12.079955947136565,-0.1603568076960645
12.113325991189427,-0.01997025353352582
12.146696035242291,0.013993776410635126
12.180066079295155,-0.08874668560393446
12.213436123348018,-0.30243598099635965
12.246806167400882,-0.5516742853613706
12.280176211453744,-0.7374077301567076
12.313546255506608,-0.7725924110318361
12.346916299559473,-0.614798583675968
12.380286343612335,-0.2843714534813292
12.413656387665199,0.13854397611613578
12.447026431718061,0.5379329567433297
12.480396475770926,0.7993838547347218
12.51376651982379,0.8485792923628648
12.547136563876652,0.6774267343204363
12.580506607929516,0.34841385155718296
12.613876651982379,-0.024841916953391042
12.647246696035243,-0.3147224542795431
12.680616740088107,-0.42212869504295386
12.71398678414097,-0.30996547483205544
12.747356828193833,-0.015855668704311827
12.780726872246696,0.3607813456826574
12.81409691629956,0.6931836339347174
12.847466960352424,0.8711610963969001
12.880837004405286,0.8385619758969128
12.91420704845815,0.6105156397098741
12.947577092511013,0.26427371487961454
12.980947136563877,-0.09234175115897755
13.014317180616741,-0.3621900631785952
13.047687224669604,-0.4934212902676971
13.081057268722468,-0.4939935593236878
13.11442731277533,-0.4210075646669343
13.147797356828194,-0.3503281997827183
13.181167400881058,-0.34036431845786486
13.21453744493392,-0.40628737825819583
13.247907488986785,-0.5159363130590268
13.281277533039647,-0.6082815115410506
13.314647577092511,-0.6246217375035438
13.348017621145376,-0.5370303680290692
13.381387665198238,-0.36067530906492523
13.414757709251102,-0.1451561321208425
13.448127753303964,0.049581476480663515
13.481497797356829,0.18007991375276822
13.514867841409693,0.23579240639405927
13.548237885462555,0.23803876026023507
13.58160792951542,0.22384677958744606
13.614977973568282,0.22481875488313308
13.648348017621146,0.2531905848686387
13.68171806167401,0.30234231208117895
13.715088105726872,0.3597920355788931
13.748458149779736,0.42247244125921163
13.781828193832599,0.5020842841563437
13.815198237885463,0.6145169958612514
13.848568281938327,0.7586486563998115
13.88193832599119,0.8992503197621876
13.915308370044054,0.9692542431311919
13.948678414096916,0.896316820420454
13.98204845814978,0.6427549942951027
14.015418502202644,0.23659653557908028
14.048788546255507,-0.22706817083581468
14.08215859030837,-0.6204096010796858
14.115528634361233,-0.8386702412200495
14.148898678414097,-0.849696847227677
14.182268722466961,-0.7107963434059625
14.215638766519824,-0.5425232561629945
14.249008810572688,-0.4709840799636234
14.28237885462555,-0.5664139336807082
14.315748898678414,-0.8078582370645777
14.349118942731279,-1.0910684198771712
14.382488986784141,-1.2758342509183551
14.415859030837005,-1.250212827771677
14.449229074889868,-0.9814318020864129
14.482599118942732,-0.5301529085772934
14.515969162995596,-0.022702546353258198
14.549339207048458,0.40416755743382077
14.582709251101322,0.6592891994754569
14.616079295154185,0.7284533258758837
14.649449339207049,0.6690619924597456
14.682819383259913,0.5739692106694779
14.716189427312775,0.5240972692705317
14.74955947136564,0.5527025296280172
14.782929515418502,0.6365533990855144
14.816299559471366,0.715366422378752
14.84966960352423,0.7276098040789072
14.883039647577093,0.6442009898793991
14.916409691629957,0.484083428790473
14.94977973568282,0.30523065578833564
14.983149779735683,0.17634965633576924
15.016519823788547,0.14308331618467393
15.04988986784141,0.20449748881070054
15.083259911894274,0.3108178566444513
15.116629955947138,0.38412065925152217
15.15,0.35369423262672167
15.183370044052865,0.19085408747054197
15.216740088105727,-0.0730135109668804
15.250110132158591,-0.35537697705113613
15.283480176211455,-0.5571085754860462
15.316850220264318,-0.6086881680824793
15.350220264317182,-0.5064911170303603
15.383590308370044,-0.3198743933450645
15.416960352422908,-0.1623873239980403
15.450330396475772,-0.13814327256713674
15.483700440528635,-0.2883164909699605
15.517070484581499,-0.5649429835166637
15.550440528634361,-0.8473692890654393
15.583810572687225,-0.995941004898972
15.61718061674009,-0.91821277627236
15.650550660792952,-0.6153505865682707
15.683920704845816,-0.18507105325934292
15.717290748898678,0.22141716492042635
15.750660792951543,0.46802425833107775
15.784030837004407,0.4945832165512371
15.817400881057269,0.340511248437888
15.850770925110133,0.12088712103594257
15.884140969162996,-0.03173883113401201
15.91751101321586,-0.030293339117821505
15.950881057268724,0.12926524294998343
15.984251101321586,0.3716489462811601
16.01762114537445,0.5821421574297075
16.050991189427315,0.6610599148560592
16.084361233480177,0.5665641164115235
16.11773127753304,0.328012212984433
16.151101321585905,0.027710968080454236
16.184471365638768,-0.23657802327127306
16.21784140969163,-0.38957004520249683
16.251211453744492,-0.4013080587926869
16.284581497797358,-0.289048988049832
16.31795154185022,-0.10241531132304893
16.351321585903083,0.09818677407418602
16.38469162995595,0.26009251766240116
16.41806167400881,0.3486536870150995
16.451431718061674,0.3496486599157843
16.48480176211454,0.2675363530736397
16.518171806167402,0.12296192132478968
16.551541850220264,-0.04986591431787613
16.584911894273127,-0.20785959477107532
16.618281938325993,-0.30776618571644615
16.651651982378855,-0.318217532029884
16.685022026431717,-0.2310720259656735
16.718392070484583,-0.06656699612966892
16.751762114537446,0.13138945333134636
16.785132158590308,0.30920626431192333
16.818502202643174,0.42189336624313983
16.851872246696036,0.44840577671545967
16.8852422907489,0.39778386554739786
16.91861233480176,0.30352703223986005
16.951982378854627,0.2084506433785352
16.98535242290749,0.14620987463063423
17.01872246696035,0.12710450910232055
17.052092511013218,0.1340752464008259
17.08546255506608,0.1306470850065481
17.118832599118942,0.07768843645880191
17.152202643171808,-0.047811575275519026
17.18557268722467,-0.2398206901008364
17.218942731277533,-0.4621405917937383
17.2523127753304,-0.6606131367693931
17.28568281938326,-0.7846178600978272
17.319052863436124,-0.8091222620484834
17.352422907488986,-0.7469816072559524
17.385792951541852,-0.6442939277446599
