Frequency (Hz),Amplitude
0.0,0.5010302608535846
0.019867549668874173,0.5012070197999992
0.039735099337748346,0.5017362250272348
0.059602649006622516,0.5026146757256141
0.07947019867549669,0.5038370835242144
0.09933774834437085,0.5053961404355586
0.11920529801324503,0.50728261102335
0.13907284768211922,0.5094854460429166
0.15894039735099338,0.5119919142905096
0.17880794701986755,0.5147877490531534
0.1986754966887417,0.517857305383202
0.2185430463576159,0.5211837244236658
0.23841059602649006,0.5247491011622212
0.2582781456953642,0.5285346522716264
0.27814569536423844,0.5325208810673998
0.2980132450331126,0.5366877370512286
0.31788079470198677,0.5410147679778735
0.33774834437086093,0.545481262857819
0.3576158940397351,0.5500663847638496
0.3774834437086093,0.5547492927300016
0.3973509933774834,0.5595092524043944
0.4172185430463576,0.5643257354350855
0.4370860927152318,0.5691785078295665
0.45695364238410596,0.5740477077330595
0.4768211920529801,0.5789139132234538
0.49668874172185434,0.5837582008258047
0.5165562913907285,0.5885621955141893
0.5364238410596026,0.5933081129985377
0.5562913907284769,0.59797879509756
0.5761589403973509,0.6025577389799104
0.5960264900662252,0.6070291210217766
0.6158940397350993,0.6113778159834864
0.6357615894039735,0.6155894121555298
0.6556291390728477,0.6196502230680538
0.6754966887417219,0.6235472963005958
0.695364238410596,0.6272684198720965
0.7152317880794702,0.6308021266368398
0.7350993377483444,0.6341376970599599
0.7549668874172186,0.6372651606995473
0.7748344370860927,0.6401752966775456
0.7947019867549668,0.6428596333828267
0.8145695364238411,0.6453104476145111
0.8344370860927152,0.6475207633419546
0.8543046357615894,0.6494843502300612
0.8741721854304636,0.6511957220549052
0.8940397350993378,0.6526501351126959
0.9139072847682119,0.6538435867071358
0.9337748344370861,0.6547728137841456
0.9536423841059603,0.6554352917686221
0.9735099337748344,0.6558292336458267
0.9933774834437087,0.6559535893187528
1.0132450331125828,0.6558080452631313
1.033112582781457,0.6553930244922784
1.0529801324503312,0.6547096868353269
1.0728476821192052,0.6537599295236056
1.0927152317880795,0.6525463880711556
1.1125827814569538,0.6510724374258132
1.1324503311258278,0.6493421933575776
1.1523178807947019,0.6473605140389449
1.1721854304635762,0.6451330017602703
1.1920529801324504,0.6426660047075718
1.2119205298013245,0.6399666187147136
1.2317880794701985,0.6370426888821153
1.2516556291390728,0.6339028109326227
1.271523178807947,0.6305563321501819
1.2913907284768211,0.6270133517183948
1.3112582781456954,0.6232847202437818
1.3311258278145695,0.6193820382123316
1.3509933774834437,0.6153176530874447
1.370860927152318,0.6111046547128403
1.390728476821192,0.6067568686350977
1.410596026490066,0.6022888469085897
1.4304635761589404,0.5977158558898235
1.4503311258278146,0.5930538604714766
1.4701986754966887,0.5883195041485245
1.4900662251655628,0.5835300842530184
1.5099337748344372,0.5787035216427773
1.5298013245033113,0.5738583240850417
1.5496688741721854,0.5690135425449773
1.5695364238410596,0.5641887195734215
1.5894039735099337,0.5594038289963569
1.609271523178808,0.5546792061450132
1.6291390728476822,0.5500354679376658
1.6490066225165563,0.5454934222383951
1.6688741721854303,0.5410739660809388
1.6887417218543048,0.5367979725619911
1.7086092715231789,0.5326861664811737
1.728476821192053,0.5287589891350827
1.7483443708609272,0.5250364530564762
1.7682119205298013,0.5215379879195368
1.7880794701986755,0.5182822792944389
1.8079470198675496,0.5152871024113689
1.8278145695364238,0.512569153560552
1.847682119205298,0.5101438821840096
1.8675496688741722,0.5080253270730288
1.8874172185430464,0.5062259603429494
1.9072847682119205,0.504756542982148
1.9271523178807946,0.503625995741829
1.9470198675496688,0.5028412889308816
1.9668874172185429,0.5024073543013639
1.9867549668874174,0.5023270216638165
2.0066225165562916,0.5026009821791503
2.0264900662251657,0.5032277794708458
2.0463576158940397,0.5042038288308796
2.066225165562914,0.5055234639071409
2.086092715231788,0.5071790094103531
2.1059602649006623,0.5091608776136723
2.1258278145695364,0.5114576857793763
2.1456953642384105,0.5140563911641265
2.165562913907285,0.516942439943933
2.185430463576159,0.5200999262657378
2.205298013245033,0.5235117576647125
2.2251655629139075,0.5271598232660992
2.2450331125827816,0.5310251614901033
2.2649006622516556,0.5350881243672613
2.2847682119205297,0.5393285360181361
2.3046357615894038,0.5437258433236806
2.324503311258278,0.5482592572855995
2.3443708609271523,0.5529078840267347
2.364238410596027,0.5576508447937317
2.384105960264901,0.5624673846872293
2.403973509933775,0.5673369701521562
2.423841059602649,0.5722393755112051
2.443708609271523,0.5771547590190524
2.463576158940397,0.582063729058123
2.4834437086092715,0.5869474011937962
2.5033112582781456,0.5917874468646038
2.52317880794702,0.5965661345074647
2.543046357615894,0.6012663639168763
2.562913907284768,0.6058716946146555
2.5827814569536423,0.6103663689705302
2.6026490066225163,0.6147353307667808
2.622516556291391,0.6189642398468405
2.642384105960265,0.6230394834312908
2.662251655629139,0.6269481846272746
2.6821192052980134,0.6306782086010141
2.7019867549668874,0.6342181668290846
2.7218543046357615,0.6375574197935069
2.741721854304636,0.640686078438505
2.76158940397351,0.643595004664194
2.781456953642384,0.6462758110936021
2.801324503311258,0.6487208603149481
2.821192052980132,0.650923263770345
2.8410596026490067,0.6528768804351728
2.8609271523178808,0.6545763154086245
2.8807947019867552,0.6560169185153155
2.9006622516556293,0.6571947829998182
2.9205298013245033,0.6581067443803517
2.9403973509933774,0.6587503795140777
2.9602649006622515,0.6591240059143628
2.9801324503311255,0.6592266813496481
3.0,0.6590582037436158
3.0198675496688745,0.6586191113872368
3.0397350993377485,0.6579106834644997
3.0596026490066226,0.6569349408847505
3.0794701986754967,0.6556946474057131
3.0993377483443707,0.6541933110215581
3.119205298013245,0.6524351855799766
3.1390728476821192,0.6504252725807032
3.1589403973509933,0.6481693230946036
3.1788079470198674,0.6456738397276809
3.198675496688742,0.6429460785369584
3.218543046357616,0.6399940507855877
3.23841059602649,0.6368265244019066
3.2582781456953644,0.6334530249810951
3.2781456953642385,0.6298838361388676
3.2980132450331126,0.626129998992969
3.3178807947019866,0.6222033105112091
3.3377483443708607,0.618116320422673
3.3576158940397347,0.6138823263433236
3.3774834437086096,0.6095153667170836
3.3973509933774837,0.6050302111201794
3.4172185430463577,0.6004423474203455
3.437086092715232,0.5957679652245987
3.456953642384106,0.5910239349913384
3.47682119205298,0.5862277821270845
3.4966887417218544,0.5813976553372913
3.5165562913907285,0.5765522884588495
3.5364238410596025,0.5717109549729014
3.556291390728477,0.5668934143858175
3.576158940397351,0.5621198496792552
3.596026490066225,0.5574107950740654
3.615894039735099,0.5527870534334417
3.6357615894039736,0.5482696027555096
3.6556291390728477,0.5438794913801707
3.6754966887417218,0.5396377217642947
3.695364238410596,0.5355651229661329
3.7152317880794703,0.531682212323769
3.7350993377483444,0.5280090472090156
3.754966887417219,0.5245650681789987
3.774834437086093,0.521368935317644
3.794701986754967,0.5184383600394533
3.814569536423841,0.5157899350921881
3.834437086092715,0.5134389659146845
3.854304635761589,0.5113993068489223
3.8741721854304636,0.50968320593924
3.8940397350993377,0.5083011621478136
3.9139072847682117,0.5072617987501556
3.9337748344370858,0.5065717564349832
3.9536423841059607,0.5062356092160422
3.9735099337748347,0.5062558056816794
3.993377483443709,0.5066326373859703
4.013245033112583,0.5073642353593558
4.033112582781457,0.5084465948350275
4.052980132450331,0.5098736273989825
4.072847682119205,0.511637238931346
4.0927152317880795,0.5137274309601167
4.112582781456953,0.5161324224357597
4.132450331125828,0.5188387884838878
4.152317880794702,0.5218316124168738
4.172185430463576,0.5250946471851287
4.19205298013245,0.5286104825127534
4.211920529801325,0.5323607141689097
4.231788079470199,0.5363261121483676
4.251655629139073,0.540486784939058
4.271523178807947,0.5448223375105671
4.291390728476821,0.5493120211344212
4.311258278145695,0.5539348736190098
4.33112582781457,0.5586698489883425
4.3509933774834435,0.5634959360387803
4.370860927152318,0.5683922655618259
4.390728476821192,0.573338206318445
4.410596026490066,0.5783134500908197
4.43046357615894,0.5832980863223469
4.450331125827815,0.5882726669909588
4.470198675496689,0.593218262450404
4.490066225165563,0.5981165090245597
4.509933774834438,0.6029496491598042
4.529801324503311,0.6077005649340117
4.549668874172186,0.6123528056958492
4.569536423841059,0.6168906105691156
4.589403973509934,0.6212989265078734
4.6092715231788075,0.6255634225344054
4.629139072847682,0.6296705007344162
4.649006622516556,0.6336073045269833
4.66887417218543,0.6373617246700074
4.688741721854305,0.640922403408896
4.708609271523179,0.6442787371255921
4.728476821192054,0.6474208777988291
4.748344370860927,0.6503397335443507
4.768211920529802,0.6530269684657947
4.788079470198675,0.6554750020128792
4.80794701986755,0.6576770080135601
4.827814569536423,0.65962691352047
4.847682119205298,0.6613193975884559
4.867549668874172,0.6627498900801961
4.887417218543046,0.6639145705789531
4.9072847682119205,0.6648103674723785
4.927152317880794,0.6654349572576539
4.947019867549669,0.6657867641063563
4.966887417218543,0.6658649597168776
4.986754966887418,0.6656694634723506
5.006622516556291,0.6652009429127628
5.026490066225166,0.6644608145213646
5.04635761589404,0.6634512448160386
5.066225165562914,0.6621751517277698
5.086092715231788,0.6606362062376239
5.105960264900662,0.6588388342337528
5.125827814569536,0.6567882185369008
5.14569536423841,0.6544903010300344
5.1655629139072845,0.6519517848114011
5.185430463576159,0.6491801362727524
5.205298013245033,0.6461835869836438
5.225165562913908,0.6429711352391364
5.245033112582782,0.6395525471011232
5.264900662251656,0.6359383567329454
5.28476821192053,0.6321398657920406
5.304635761589404,0.6281691416067384
5.324503311258278,0.6240390138199847
5.344370860927152,0.6197630691356255
5.364238410596027,0.615355643751365
5.3841059602649,0.610831813007918
5.403973509933775,0.6062073777263037
5.4238410596026485,0.6014988466467737
5.443708609271523,0.5967234143243326
5.463576158940397,0.5918989337806169
5.483443708609272,0.5870438831621728
5.503311258278146,0.5821773256154877
5.52317880794702,0.5773188615633208
5.543046357615895,0.5724885725611538
5.562913907284768,0.5677069559323445
5.582781456953643,0.5629948494324383
5.602649006622516,0.5583733452847466
5.622516556291391,0.5538636930659543
5.642384105960264,0.549487191109547
5.662251655629139,0.5452650663396699
5.682119205298013,0.5412183427510872
5.701986754966887,0.5373676991112778
5.7218543046357615,0.5337333168725825
5.741721854304636,0.5303347197359973
5.7615894039735105,0.5271906067874078
5.781456953642384,0.5243186816110111
5.801324503311259,0.5217354802462347
5.821192052980132,0.5194562012639924
5.841059602649007,0.517494541562142
5.860927152317881,0.5158625416877317
5.880794701986755,0.5145704445557611
5.900662251655629,0.5136265713297714
5.920529801324503,0.5130372179474927
5.940397350993377,0.5128065753151249
5.960264900662251,0.512936675572689
5.980132450331126,0.5134273660764677
6.0,0.5142763118945721
6.0198675496688745,0.5154790267149995
6.039735099337749,0.5170289311757167
6.059602649006623,0.5189174367946637
6.079470198675497,0.5211340529509986
6.099337748344371,0.5236665137845514
6.119205298013245,0.5265009214626675
6.139072847682119,0.5296219020240828
6.158940397350993,0.5330127699458652
6.178807947019867,0.5366556976769065
6.198675496688741,0.540531886618329
6.218543046357616,0.5446217363758106
6.23841059602649,0.5489050095312114
6.258278145695365,0.5533609896473791
6.2781456953642385,0.5579686307021064
6.298013245033113,0.5627066966189824
6.317880794701987,0.567553890005294
6.337748344370861,0.5724889696051053
6.357615894039735,0.5774908563206465
6.377483443708609,0.5825387279429411
6.397350993377484,0.5876121029628543
6.417218543046357,0.5926909140090608
6.437086092715232,0.5977555715850793
6.456953642384105,0.6027870188585407
6.47682119205298,0.6077667783007262
6.496688741721854,0.6126769909874656
6.516556291390729,0.6175004493626832
6.5364238410596025,0.6222206242369831
6.556291390728477,0.6268216867522499
6.5761589403973515,0.6312885259927874
6.596026490066225,0.6356067628680765
6.6158940397351,0.6397627608348009
6.635761589403973,0.643743633967635
6.655629139072848,0.6475372528325886
6.675496688741721,0.6511322485631319
6.695364238410596,0.6545180154895892
6.715231788079469,0.6576847126264204
6.735099337748344,0.6606232642803016
6.754966887417219,0.6633253600046276
6.774834437086093,0.6657834540923964
6.794701986754967,0.6679907647700629
6.814569536423841,0.6699412732289832
6.8344370860927155,0.6716297226081048
6.854304635761589,0.6730516170221361
6.874172185430464,0.6742032207115244
6.894039735099337,0.6750815573761403
6.913907284768212,0.6756844097406698
6.933774834437086,0.676010319388279
6.95364238410596,0.6760585868885316
6.973509933774834,0.6758292722353624
6.993377483443709,0.6753231956021991
7.013245033112583,0.6745419384116664
7.033112582781457,0.6734878447087979
7.052980132450331,0.6721640228164703
7.072847682119205,0.6705743472419999
7.0927152317880795,0.6687234607921915
7.112582781456954,0.6666167768415014
7.132450331125828,0.664260481683558
7.152317880794702,0.6616615368797393
7.172185430463576,0.6588276814993846
7.19205298013245,0.6557674341247848
7.211920529801324,0.6524900944687843
7.231788079470198,0.6490057444246331
7.251655629139073,0.6453252483354042
7.271523178807947,0.6414602522337739
7.291390728476822,0.6374231817626521
7.311258278145695,0.6332272384417086
7.33112582781457,0.6288863938961082
7.3509933774834435,0.624415381610278
7.370860927152318,0.6198296857132578
7.390728476821192,0.6151455262432763
7.410596026490066,0.6103798402796629
7.430463576158941,0.6055502582712835
7.450331125827814,0.6006750748357856
7.470198675496689,0.5957732132558087
7.490066225165562,0.5908641828608953
7.509933774834438,0.58596802846295
7.52980132450331,0.5811052710127945
7.549668874172186,0.5762968386737446
7.569536423841059,0.5715639875704446
7.589403973509934,0.5669282115755393
7.6092715231788075,0.5624111406487449
7.629139072847682,0.5580344274492204
7.649006622516557,0.553819622205639
7.66887417218543,0.5497880361515287
7.6887417218543055,0.5459605942131214
7.708609271523178,0.5423576780672895
7.728476821192054,0.5389989611557378
7.748344370860927,0.5359032377315717
7.768211920529802,0.5330882485020627
7.788079470198675,0.5305705058895873
7.80794701986755,0.5283651223285796
7.827814569536423,0.5264856453188627
7.847682119205298,0.5249439031303393
7.8675496688741715,0.5237498650767797
7.887417218543046,0.5229115201251007
7.907284768211921,0.5224347772746046
7.927152317880795,0.5223233906314637
7.9470198675496695,0.5225789114362265
7.966887417218543,0.5232006685075573
7.986754966887418,0.5241857776869913
8.006622516556291,0.5255291799574702
8.026490066225167,0.5272237070164694
8.046357615894038,0.5292601722638813
8.066225165562914,0.5316274844616219
8.086092715231787,0.53431278076884
8.105960264900663,0.5373015754780697
8.125827814569536,0.5405779205786817
8.14569536423841,0.5441245742513343
8.165562913907285,0.5479231735327188
8.185430463576159,0.5519544076588679
8.205298013245034,0.5561981889666046
8.225165562913906,0.5606338186738693
8.245033112582782,0.5652401453383051
8.264900662251655,0.5699957142813031
8.28476821192053,0.5748789067367068
8.304635761589404,0.5798680679215753
8.324503311258278,0.584941623617291
8.344370860927151,0.5900781851849263
8.364238410596027,0.5952566432163249
8.3841059602649,0.600456250242072
8.403973509933774,0.6056566930826613
8.42384105960265,0.6108381555453427
8.443708609271523,0.6159813722421346
8.463576158940398,0.6210676743416896
8.483443708609272,0.6260790280754439
8.503311258278146,0.6309980668033391
8.52317880794702,0.6358081174121986
8.543046357615895,0.6404932217753662
8.562913907284768,0.6450381539500202
8.582781456953642,0.6494284337316154
8.602649006622515,0.6536503371266625
8.62251655629139,0.6576909042468262
8.642384105960264,0.6615379450711032
8.66225165562914,0.6651800434698466
8.682119205298013,0.6686065598346865
8.701986754966887,0.6718076326131524
8.721854304635762,0.6747741790055342
8.741721854304636,0.677497895044513
8.76158940397351,0.6799712552453102
8.781456953642383,0.6821875119849843
8.801324503311259,0.6841406947437145
8.821192052980132,0.6858256093191323
8.841059602649008,0.687237837104481
8.86092715231788,0.6883737345051054
8.880794701986755,0.6892304325522582
8.90066225165563,0.6898058367604797
8.920529801324504,0.6900986272629073
8.940397350993377,0.6901082592481773
8.960264900662251,0.6898349637128844
8.980132450331126,0.6892797485340936
9.0,0.688444399856922
9.019867549668875,0.6873314837829221
9.039735099337747,0.6859443483348544
9.059602649006623,0.6842871256626443
9.079470198675496,0.6823647344431725
9.099337748344372,0.6801828824131904
9.119205298013245,0.6777480689590801
9.139072847682119,0.6750675876695102
9.158940397350994,0.6721495287370669
9.178807947019868,0.669002781071284
9.198675496688743,0.6656370339593589
9.218543046357615,0.6620627780803686
9.23841059602649,0.6582913056445221
9.258278145695364,0.6543347093907976
9.27814569536424,0.6502058801330265
9.298013245033111,0.6459185024976142
9.317880794701987,0.6414870484442764
9.33774834437086,0.6369267681060067
9.357615894039736,0.6322536774256984
9.37748344370861,0.6274845420069979
9.397350993377483,0.6226368565352083
9.417218543046358,0.6177288190659902
9.437086092715232,0.6127792994243456
9.456953642384107,0.6078078009107766
9.47682119205298,0.6028344144777508
9.496688741721854,0.5978797645238231
9.516556291390728,0.5929649454611688
9.536423841059603,0.5881114482506345
9.556291390728477,0.583341076174358
9.57615894039735,0.5786758492366344
9.596026490066224,0.5741378967547061
9.6158940397351,0.5697493379291934
9.635761589403973,0.5655321504704695
9.655629139072847,0.5615080277050748
9.675496688741722,0.5576982249892439
9.695364238410596,0.5541233967089881
9.715231788079471,0.5508034256321375
9.735099337748345,0.5477572468792496
9.754966887417218,0.5450026692713915
9.774834437086092,0.5425561972644865
9.794701986754967,0.5404328570583372
9.814569536423841,0.5386460307412473
9.834437086092716,0.5372073024661597
9.854304635761588,0.5361263206265792
9.874172185430464,0.5354106797925214
9.894039735099337,0.5350658257750338
9.913907284768213,0.5350949866190831
9.933774834437086,0.5354991316036743
9.95364238410596,0.5362769594889356
9.973509933774835,0.5374249163404602
9.993377483443709,0.5389372423327624
10.013245033112582,0.5408060460416283
10.033112582781456,0.5430214039301114
10.052980132450331,0.5455714820574522
10.072847682119205,0.5484426765271905
10.09271523178808,0.5516197688565715
10.112582781456952,0.5550860922994851
10.132450331125828,0.5588237051795434
10.152317880794701,0.5628135674688404
10.172185430463577,0.5670357171543637
10.192052980132452,0.5714694433345501
10.211920529801324,0.5760934534510629
10.2317880794702,0.5808860325529148
10.251655629139073,0.5858251929837189
10.271523178807948,0.5908888133550135
10.29139072847682,0.5960547661018811
10.311258278145695,0.6013010332996993
10.331125827814569,0.6066058107459563
10.350993377483444,0.6119476005772407
10.370860927152318,0.6173052928991892
10.390728476821192,0.6226582370611228
10.410596026490065,0.6279863033129984
10.43046357615894,0.6332699356455725
10.450331125827816,0.6384901966447004
10.470198675496688,0.6436288051909757
10.490066225165563,0.6486681678162612
10.509933774834437,0.6535914044917485
10.529801324503312,0.6583823695748954
10.549668874172186,0.6630256685877771
10.56953642384106,0.6675066714416044
10.589403973509933,0.6718115226619449
10.609271523178808,0.6759271491114498
10.629139072847682,0.6798412656499445
10.649006622516556,0.6835423791188934
10.66887417218543,0.6870197909881092
