Frequency (Hz),Amplitude
0.0,0.8099874767966426
0.04,0.8152934353060165
0.08,0.8309876974166277
0.12,0.8564401865632764
0.16,0.8907202199684144
0.19999999999999998,0.9327291126911116
0.24,0.9813217405940103
0.27999999999999997,1.0353954246304344
0.32,1.0939421791139818
0.36,1.156071100316095
0.39999999999999997,1.221010896688466
0.44,1.288101376254346
0.48,1.3567800759860371
0.52,1.4265677530544767
0.5599999999999999,1.4970546802982505
0.6,1.5678885825469648
0.64,1.6387644353018664
0.6799999999999999,1.709416041939939
0.72,1.7796091777787757
0.76,1.8491360550400449
0.7999999999999999,1.9178108731541172
0.84,1.9854662474375238
0.88,2.0519503424835404
0.9199999999999999,2.1171245683814472
0.96,2.1808617256518974
1.0,2.243044507955444
1.04,2.3035642904488003
1.0799999999999998,2.362320146703626
1.1199999999999999,2.4192180490109885
1.1600000000000001,2.4741702162745214
1.2,2.527094581066123
1.24,2.5779143532076527
1.28,2.6265576617940622
1.3199999999999998,2.67295726115919
1.3599999999999999,2.7170502891175596
1.4,2.7587780680594816
1.44,2.79808594126091
1.48,2.834923138193628
1.52,2.869242663762768
1.5599999999999998,2.9010012073173965
1.5999999999999999,2.9301590680229452
1.64,2.956680093788133
1.68,2.980531631432318
1.72,3.001684486184708
1.76,3.020112888942194
1.7999999999999998,3.0357944699920996
1.8399999999999999,3.048710238141034
1.88,3.058844564390672
1.92,3.066185169472834
1.9599999999999997,3.0707231147060243
2.0,3.0724527957686254
2.0399999999999996,3.071371939104625
2.08,3.0674816007898733
2.12,3.060786167793929
2.1599999999999997,3.0512933616776343
2.2,3.0390142448729773
2.2399999999999998,3.0239632298026478
2.28,3.006158091215291
2.3200000000000003,2.9856199822427727
2.36,2.9623734548317184
2.4,2.9364464853684864
2.44,2.9078705065101462
2.48,2.8766804464614864
2.5199999999999996,2.842914777208043
2.56,2.8066155735388225
2.6,2.7678285850832256
2.6399999999999997,2.7266033240619763
2.68,2.682993172033248
2.7199999999999998,2.637055509630239
2.76,2.5888518741704485
2.8,2.5384481511148245
2.84,2.4859148067248187
2.88,2.431327170981602
2.92,2.3747657819906514
2.96,2.31631680582077
2.9999999999999996,2.2560725491797484
3.04,2.194132086716078
3.08,2.1306020303225464
3.1199999999999997,2.0655974749405646
3.16,1.9992431644478177
3.1999999999999997,1.9316749327771103
3.2399999999999998,1.8630414900785115
3.28,1.7935066421839738
3.32,1.7232520545256071
3.36,1.6524806994208465
3.4,1.5814211580074669
3.44,1.5103329832366488
3.4799999999999995,1.4395133630566017
3.52,1.369305341653344
3.5599999999999996,1.300107837891461
3.5999999999999996,1.2323875997043452
3.64,1.1666929732350961
3.6799999999999997,1.1036688195454258
3.7199999999999998,1.044070898276703
3.76,0.988776353410827
3.7999999999999994,0.9387844945355267
3.84,0.8951992387640747
3.88,0.8591827619158972
3.9199999999999995,0.8318719698901385
3.96,0.8142588550642877
4.0,0.8070533083023581
4.04,0.8105653697655315
4.079999999999999,0.8246486654669815
4.12,0.8487278400356071
4.16,0.8818986816203852
4.199999999999999,0.9230632144471659
4.24,0.9710587304944962
4.28,1.0247550669365175
4.319999999999999,1.0831135736842552
4.36,1.14521376989478
4.4,1.2102580264961997
4.4399999999999995,1.277563780367097
4.4799999999999995,1.3465500898219545
4.5200000000000005,1.4167226827376416
4.56,1.4876596922927314
4.6,1.5589990453782803
4.640000000000001,1.6304277796739994
4.68,1.7016732208198058
4.72,1.7724958048041404
4.76,1.8426832891508897
4.8,1.912046105220782
4.84,1.9804136333277125
4.88,2.0476312173601743
4.92,2.113557769195547
4.96,2.1780638426187835
5.0,2.241030081008707
5.039999999999999,2.302345962979564
5.08,2.361908786070724
5.12,2.4196228411518
5.159999999999999,2.475398740098892
5.2,2.5291528670549375
5.24,2.580806929670123
5.279999999999999,2.630287591492794
5.319999999999999,2.6775261704362547
5.36,2.722458391207707
5.3999999999999995,2.7650241819278882
5.4399999999999995,2.8051675070294695
5.48,2.8428362300043184
5.52,2.8779820007557464
5.56,2.91056016326525
5.6,2.940529680053024
5.64,2.9678530705362722
5.68,2.9924963608989334
5.72,3.0144290435045056
5.76,3.033624044228963
5.8,3.0500576963778188
5.84,3.063709720092313
5.879999999999999,3.0745632063536457
5.92,3.0826046048691675
5.96,3.0878237152764445
5.999999999999999,3.0902136812357255
6.04,3.0897709871027126
6.08,3.086495456985816
6.119999999999999,3.080390256098467
6.16,3.0714618944211005
6.2,3.059720232791925
6.239999999999999,3.0451784916538327
6.279999999999999,3.0278532628003054
6.32,3.007764524589046
6.359999999999999,2.9849356612330693
6.3999999999999995,2.9593934869393372
6.44,2.931168275850828
6.4799999999999995,2.9002937989658624
6.52,2.866807369467137
6.56,2.8307498982027166
6.6,2.7921659614353604
6.64,2.751103883431563
6.68,2.7076158370184955
6.72,2.661757965922326
6.76,2.6135905335494014
6.8,2.5631781039261043
6.84,2.510589761830481
6.88,2.4558993808019287
6.92,2.3991859497988206
6.959999999999999,2.3405339719107605
7.0,2.2800339518818133
7.04,2.2177829934705473
7.08,2.1538855331304863
7.119999999999999,2.0884542434865896
7.16,2.0216111490510134
7.199999999999999,1.953489008120378
7.239999999999999,1.8842330295069476
7.28,1.8140030114745809
7.32,1.742976013834581
7.359999999999999,1.671349703368027
7.3999999999999995,1.5993465478825983
7.4399999999999995,1.5272190743645395
7.4799999999999995,1.4552564481963037
7.52,1.3837926640152745
7.5600000000000005,1.3132166444076503
7.599999999999999,1.2439844804364049
7.64,1.176633844394743
7.68,1.1118001340596222
7.719999999999999,1.0502329744861532
7.76,0.9928100582308523
7.800000000000001,0.94054275173176
7.839999999999999,0.894564614597061
7.88,0.8560911621380031
7.92,0.8263397751463242
7.959999999999999,0.8064069581240306
8.0,0.7971185644544861
8.040000000000001,0.7988913027268592
8.08,0.8116544620202414
8.12,0.8348641887669425
8.159999999999998,0.8676041277536141
8.2,0.9087321197090695
8.24,0.9570248110631531
8.28,1.011288260621851
8.32,1.070425332336922
8.36,1.133466162101425
8.399999999999999,1.1995735373229395
8.44,1.2680341812534814
8.48,1.338243772151435
8.52,1.4096904075188832
8.56,1.4819389531101315
8.6,1.554617312145747
8.639999999999999,1.6274048797287008
8.68,1.7000230730063635
8.72,1.7722276761700793
8.76,1.8438027027769146
8.8,1.9145554944718415
8.84,1.984312812285852
8.879999999999999,2.05291771816549
8.92,2.120227083065757
8.959999999999999,2.1861095911834045
9.0,2.2504441372693504
9.040000000000001,2.31311853592369
9.079999999999998,2.3740284791525674
9.12,2.4330766920971554
9.16,2.490172247491986
9.2,2.545230007712311
9.24,2.5981701697456154
9.280000000000001,2.6489178934804527
9.32,2.6974029976660083
9.36,2.743559711006012
9.399999999999999,2.787326468301848
9.44,2.82864574349897
9.48,2.867463913031328
9.52,2.9037311440876965
9.559999999999999,2.9374013034089668
9.6,2.9684318830188023
9.639999999999999,2.996783939932128
9.68,3.0224220474083188
9.72,3.045314255743417
9.76,3.0654320609476935
9.8,3.082750379946878
9.84,3.0972475311894097
9.879999999999999,3.1089052197482525
9.92,3.1177085261817474
9.959999999999999,3.1236458985703743
10.0,3.1267091472804696
10.04,3.1268934421262826
10.079999999999998,3.124197311712313
10.12,3.118622644842212
10.16,3.110174693981366
10.2,3.098862080861519
10.24,3.0846968044195164
10.280000000000001,3.0676942513725134
10.319999999999999,3.047873209851738
10.36,3.0252558866503456
10.4,2.9998679287925
10.44,2.9717384503059923
10.48,2.9409000652862014
10.52,2.90738892858286
10.559999999999999,2.871244785733132
10.6,2.8325110341174637
10.639999999999999,2.7912347977445
10.68,2.7474670185980368
10.72,2.7012625681287106
10.76,2.6526803832787085
10.799999999999999,2.6017836324322343
10.84,2.548639917943191
10.879999999999999,2.4933215234767103
10.92,2.435905716407149
10.96,2.376475118065241
11.0,2.315118157883579
11.04,2.251929631665466
11.08,2.1870113895778576
11.12,2.1204731864123114
11.16,2.0524337356500744
11.2,1.9830220205315352
11.24,1.9123789304637855
11.28,1.8406593106951261
11.319999999999999,1.7680345384273124
11.36,1.6946957707261112
11.4,1.6208580499123013
11.44,1.5467655010641483
11.48,1.472697912402938
11.52,1.3989790467473
11.559999999999999,1.325987075543712
11.6,1.2541675221900475
11.64,1.1840489798304727
11.68,1.1162615023494944
11.72,1.0515567369375414
11.759999999999998,0.9908272449167138
11.799999999999999,0.9351196706270043
11.84,0.8856323385988666
11.879999999999999,0.8436833511928788
11.92,0.810633375679987
11.96,0.787753859054839
11.999999999999998,0.7760519289608908
12.04,0.7760941919696295
12.08,0.7878929168259395
12.12,0.8109043494397786
12.16,0.8441398435201742
12.200000000000001,0.8863409377653926
12.239999999999998,0.9361548073642151
12.28,0.9922671991112235
12.32,1.053480922878339
12.36,1.11874879650224
12.4,1.187176764746237
12.44,1.2580111687496587
12.479999999999999,1.3306196703434248
12.52,1.4044712452021026
12.559999999999999,1.4791178495663841
12.6,1.5541787240501501
12.64,1.6293274541639442
12.68,1.7042815323759384
12.719999999999999,1.778794040164248
12.76,1.852647061062989
12.799999999999999,1.9256464776158035
12.84,1.9976178618477292
12.88,2.0684032246617927
12.92,2.137858438364775
12.959999999999999,2.2058511867948467
12.999999999999998,2.272259329707022
13.04,2.33696959332781
13.08,2.399876518606366
13.12,2.460881613844318
13.16,2.5198926700702042
13.2,2.5768232065333097
13.239999999999998,2.6315920206486543
13.28,2.6841228221115956
13.32,2.7343439350851906
13.36,2.782188055626569
13.4,2.827592054074051
13.44,2.870496814126589
13.479999999999999,2.910847101935223
13.52,2.948591459787057
13.559999999999999,2.9836821199681314
13.6,3.016074935197995
13.64,3.045729322678809
13.68,3.072608219328471
13.719999999999999,3.0966780461966237
13.76,3.117908680414517
13.799999999999999,3.136273433320557
13.84,3.1517490336455793
13.88,3.164315614845423
13.919999999999998,3.173956705841257
13.959999999999999,3.1806592245770275
14.0,3.1844134739336036
14.04,3.1852131396551417
14.08,3.1830552900490456
14.120000000000001,3.177940377319573
14.16,3.1698722404902275
14.2,3.158858109964096
14.239999999999998,3.1449086138674063
14.28,3.128037786422786
14.32,3.108263078707881
14.36,3.0856053722765093
14.399999999999999,3.0600889962568307
14.44,3.0317417486995972
14.479999999999999,3.0005949231354068
14.52,2.9666833415204508
14.56,2.9300453950148126
14.6,2.890723094357878
14.64,2.848762131996563
14.68,2.8042119586030716
14.719999999999999,2.757125877214212
14.76,2.7075611589656607
14.799999999999999,2.655579185323394
14.84,2.601245622884546
14.879999999999999,2.5446306383026482
14.919999999999998,2.485809162780881
14.959999999999999,2.424861217996786
15.0,2.36187231843845
15.04,2.2969339691681516
15.079999999999998,2.2301442832833747
15.120000000000001,2.161608750218959
15.159999999999998,2.091441195069716
15.199999999999998,2.0197649810393967
15.24,1.9467145229177885
15.28,1.872437200453341
15.319999999999999,1.797095788327469
15.36,1.7208715563151864
15.399999999999999,1.6439682417535892
15.439999999999998,1.566617159481481
15.48,1.4890837943090658
15.52,1.411676317834018
15.559999999999999,1.3347565785030184
15.600000000000001,1.2587542091957502
15.639999999999999,1.184184524787575
15.679999999999998,1.1116707205117662
15.72,1.041970284134811
15.76,0.9760040541948001
15.799999999999999,0.9148832983231893
15.84,0.8599247738280479
15.879999999999999,0.8126359321418428
15.919999999999998,0.7746450177058469
15.96,0.747552223421482
16.0,0.7327014346394752
16.04,0.730921808200395
16.080000000000002,0.7423374322487363
16.12,0.7663382667930838
16.16,0.801727727938417
16.200000000000003,0.8469712261172646
16.24,0.9004411018958595
16.279999999999998,0.9605914289685628
16.319999999999997,1.0260502258838884
16.36,1.095648545012872
16.4,1.1684126382140818
16.439999999999998,1.2435395255885175
16.48,1.3203681521439221
16.52,1.398352130197918
16.56,1.4770363733225922
16.6,1.5560380523612996
16.64,1.635031494400041
16.68,1.7137363823751057
16.72,1.791908598355465
16.759999999999998,1.8693331346611586
16.799999999999997,1.9458186024627464
16.84,2.021192967530217
16.88,2.0953002272731855
16.919999999999998,2.167997810672703
16.96,2.239154534992508
17.0,2.308648993033941
17.04,2.376368274857583
17.080000000000002,2.442206950624625
17.12,2.506066258335274
17.16,2.5678534531640986
17.2,2.627481284873609
17.24,2.684867577219881
17.279999999999998,2.739934888937692
17.32,2.7926102402445734
17.36,2.842824892158777
17.4,2.8905141685271
17.44,2.9356173126854093
17.48,2.9780773722628013
17.52,3.017841106891422
17.56,3.0548589145748313
17.6,3.0890847732570825
17.64,3.1204761947667112
17.68,3.148994188818919
17.72,3.1746032351718028
17.759999999999998,3.1972712623688797
17.799999999999997,3.2169696317763283
17.84,3.233673125851969
17.88,3.2473599397737147
17.919999999999998,3.258011675716203
17.96,3.2656133392015194
18.0,3.2701533370690155
18.04,3.2716234767139794
18.080000000000002,3.270018966339306
18.12,3.2653384160513337
18.159999999999997,3.2575838397133947
18.2,3.2467606575511225
18.24,3.2328776995846127
18.279999999999998,3.215947210046719
18.32,3.195984853036904
18.36,3.1730097197591594
18.4,3.147044337804123
18.44,3.118114683063798
18.48,3.086250195017412
18.52,3.0514837963049524
18.560000000000002,3.013851917719048
18.6,2.973394530005498
18.64,2.930155184181341
18.679999999999996,2.8841810624724085
18.72,2.835523042462067
18.759999999999998,2.7842357776562547
18.799999999999997,2.7303777984444793
18.84,2.67401163842006
18.88,2.615203992281113
18.919999999999998,2.5540259131532705
18.96,2.4905530592742426
19.0,2.424866002719497
19.04,2.3570506164478795
19.080000000000002,2.287198560710145
19.119999999999997,2.215407896214733
19.159999999999997,2.1417838599749146
19.2,2.066439851302335
19.24,1.9894986911406551
19.279999999999998,1.9110942395228918
19.32,1.8313734857679802
19.36,1.7504992674948179
19.4,1.6686538324200064
19.44,1.5860435379125393
19.48,1.5029050964961779
19.52,1.4195139325947386
19.560000000000002,1.3361954300576853
19.6,1.2533401317233206
19.639999999999997,1.1714242954563314
19.68,1.0910375584934677
19.72,1.0129196225767019
19.759999999999998,0.938007343625751
19.8,0.8674912442074284
19.84,0.8028740189454909
19.88,0.746009711967329
19.919999999999998,0.6990789783001456
19.96,0.6644319916490008
20.0,0.6442408656269463
20.04,0.6400000627495478
20.08,0.6520803754918008
20.119999999999997,0.6796085733108557
20.159999999999997,0.7207565329907704
20.2,0.7732438232169561
20.24,0.8347843375275291
20.279999999999998,0.9033464054607094
20.32,0.977243009951485
20.36,1.055122035583043
20.4,1.1359155575463342
20.44,1.2187813554549656
20.48,1.3030506942528122
20.52,1.3881862889408092
20.560000000000002,1.4737500924027251
20.599999999999998,1.5593791857278887
20.639999999999997,1.644767910350469
20.68,1.7296546544124658
20.72,1.8138120583677702
20.759999999999998,1.8970397196868736
20.8,1.9791587250319747
20.84,2.060007523868031
20.88,2.139438792422892
20.92,2.2173170338258186
20.96,2.2935167295577585
21.0,2.367920906927711
21.04,2.4404200228794735
21.08,2.5109110901109886
21.119999999999997,2.579296990130517
21.159999999999997,2.645485931500763
21.2,2.7093910215546666
21.24,2.770929927307333
21.279999999999998,2.830024606847637
21.32,2.8866010966766478
21.36,2.9405893436309043
21.4,2.991923072448886
21.44,3.040539681898923
21.48,3.086380163825608
21.52,3.1293890405919624
21.56,3.169514317272365
21.599999999999998,3.2067074456431155
21.639999999999997,3.240923297566303
21.68,3.272120145800488
21.72,3.3002596506230826
21.759999999999998,3.325306850933174
21.8,3.3472301587340083
21.84,3.3660013560830024
21.88,3.381595593752355
21.92,3.3939913909722157
21.96,3.4031706357361875
22.0,3.4091185852400843
22.04,3.411823866102757
22.08,3.4112784740853814
22.119999999999997,3.407477773085097
22.16,3.400420493232332
22.2,3.390108727970396
22.24,3.376547930042237
22.28,3.359746906354427
22.32,3.339717811733671
22.36,3.316476141637936
22.4,3.2900407239343945
22.44,3.2604337099113208
22.48,3.2276805647533235
22.519999999999996,3.1918100577810757
22.56,3.1528542528414003
22.599999999999998,3.1108484993351926
22.639999999999997,3.0658314244942066
22.68,3.017844927670086
22.72,2.966934177588797
22.759999999999998,2.9131476137625607
22.8,2.85653695355494
22.84,2.7971572067840023
22.88,2.735066700251931
22.92,2.670327115246432
22.96,2.6030035419242425
23.0,2.533164555636276
23.04,2.4608823217955367
23.08,2.3862327379775237
23.119999999999997,2.3092956248023224
23.16,2.230154981106228
23.2,2.1488993244558956
23.24,2.0656221459237334
23.28,1.9804225193509744
23.32,1.8934059218155828
23.36,1.8046853464435135
23.400000000000002,1.7143828254681572
23.44,1.6226315377803877
23.479999999999997,1.5295787631858615
23.519999999999996,1.43539008576609
23.56,1.3402554769449853
23.599999999999998,1.2443982688293302
23.639999999999997,1.148088675868779
23.68,1.0516646517494082
23.72,0.9555648777349344
23.759999999999998,0.8603823069915315
23.8,0.7669532348718568
23.84,0.676508214793092
23.88,0.5909279949561738
23.92,0.5131585096945335
23.96,0.4477747186216178
23.999999999999996,0.4013128219758874
24.04,0.3810995338524896
24.08,0.391436952400107
24.119999999999997,0.43021568018274
24.16,0.490723071697744
24.2,0.5659388628916207
24.24,0.6506309196283517
24.28,0.741365041211517
24.32,0.8359506119193989
24.36,0.9329674292746694
24.400000000000002,1.0314618416338395
24.439999999999998,1.1307659216696204
24.479999999999997,1.2303910091095873
24.52,1.3299641613221111
24.56,1.4291893343897495
24.599999999999998,1.5278230550123535
24.64,1.6256587819375847
24.68,1.7225166102306115
24.72,1.8182363432169764
24.759999999999998,1.9126727379643538
24.8,2.0056921849770917
24.84,2.0971703538212876
24.88,2.1869905016460613
24.92,2.275042244535131
24.959999999999997,2.3612206571200076
24.999999999999996,2.445425608361469
25.04,2.527561269453553
25.08,2.6075357486395467
25.119999999999997,2.6852608205784265
25.16,2.760651726795003
25.2,2.833627029989033
25.24,2.904108509415942
25.28,2.9720210877436495
25.32,3.0372927821125644
25.36,3.099854673833427
25.4,3.159640892426003
25.439999999999998,3.2165886106525625
25.479999999999997,3.270638047919659
25.52,3.321732479970668
25.56,3.3698182532141674
25.599999999999998,3.414844802361016
25.64,3.456764670299218
25.68,3.4955335293377403
25.72,3.531110203110802
25.76,3.5634566885626584
25.8,3.5925381775366945
25.84,3.618323077577085
25.880000000000003,3.6407830316209395
25.919999999999998,3.659892936316681
25.959999999999997,3.675630958753165
25.999999999999996,3.6879785514257195
26.04,3.696920465301445
26.08,3.7024447608782083
26.119999999999997,3.7045428171607155
26.16,3.7032093385039593
26.2,3.698442359299981
26.24,3.6902432465089574
26.28,3.6786167000610757
26.32,3.663570751181846
26.36,3.645116758721757
26.4,3.6232694036018613
26.439999999999998,3.5980466815213776
26.479999999999997,3.5694698941126526
26.52,3.537563638774542
26.56,3.502355797469046
26.599999999999998,3.4638775248302123
26.64,3.4221632360118504
26.68,3.377250594795
26.72,3.329180502592305
26.76,3.2779970891305337
26.8,3.223747705772637
26.84,3.166482922667908
26.88,3.106256531206999
26.919999999999998,3.043125553627675
26.959999999999997,2.977150262092895
27.0,2.9083942101814606
27.04,2.8369242805422172
27.08,2.7628107535347377
27.119999999999997,2.6861274031092854
27.16,2.6069516281045915
27.2,2.5253646297611745
27.24,2.4414516498486925
27.28,2.355302288811397
27.32,2.2670109303785564
27.36,2.1766773091224723
27.4,2.084407271944488
27.439999999999998,1.9903138057200205
27.479999999999997,1.8945184349737427
27.52,1.7971531413597122
27.56,1.6983630305587387
27.599999999999998,1.5983100882143253
27.64,1.4971785525359376
27.68,1.3951827358933204
27.72,1.2925786380337312
27.76,1.1896815674891599
27.8,1.086893516192018
27.839999999999996,0.9847467510045048
27.88,0.8839749539338122
27.919999999999998,0.7856318044487463
27.959999999999997,0.6912907542977568
28.0,0.6033759743324497
28.04,0.5256638096872152
28.08,0.46383056255104904
28.12,0.42531925572735996
28.16,0.41699847651159044
28.2,0.4408076454727043
28.240000000000002,0.49221163639291726
