Time (s),Filtered Signal
0.0,-0.0008354863753647761
0.0334075723830735,-0.21814059729082008
0.066815144766147,-0.4028330220544391
0.1002227171492205,-0.5274288061578152
0.133630289532294,-0.5743063047423919
0.1670378619153675,-0.5399087034955307
0.200445434298441,-0.43659896515907476
0.23385300668151449,-0.29053739394581074
0.267260579064588,-0.13516219917083225
0.3006681514476615,-0.0018791111160733353
0.334075723830735,0.08872563210691863
0.3674832962138085,0.13160731650574656
0.400890868596882,0.136026592876888
0.4342984409799555,0.1192368414676319
0.46770601336302897,0.09835165479381183
0.5011135857461025,0.08425256511818117
0.534521158129176,0.0799097741547797
0.5679287305122495,0.08287326502408988
0.601336302895323,0.08956229578311675
0.6347438752783965,0.0985260614568773
0.66815144766147,0.11107627531298545
0.7015590200445435,0.12955510072658202
0.734966592427617,0.15475704419139494
0.7683741648106905,0.18411281781818015
0.801781737193764,0.21149865197590836
0.8351893095768375,0.22866703837379074
0.868596881959911,0.22774040891963968
0.9020044543429845,0.20393612402045505
0.9354120267260579,0.15753396554270127
0.9688195991091315,0.0941380815124476
1.002227171492205,0.02280076309022429
1.0356347438752784,-0.04740176636971364
1.069042316258352,-0.11072995857049658
1.1024498886414256,-0.16622889252230083
1.135857461024499,-0.21635395632510446
1.1692650334075725,-0.26353965400256146
1.202672605790646,-0.3068291807700558
1.2360801781737194,-0.3407690685349839
1.269487750556793,-0.3574473639840724
1.3028953229398665,-0.35060010641807404
1.33630289532294,-0.3193562080876353
1.3697104677060135,-0.2693173629784109
1.403118040089087,-0.21023318124278773
1.4365256124721606,-0.15156604596619233
1.469933184855234,-0.09846740092189045
1.5033407572383075,-0.050353760462308904
1.536748329621381,-0.0026439281414425315
1.5701559020044544,0.04961507787833482
1.603563474387528,0.10840283014728205
1.6369710467706016,0.1713475802074764
1.670378619153675,0.23261641270141148
1.7037861915367485,0.28506510867853607
1.737193763919822,0.3222037798700136
1.7706013363028954,0.3391100116954486
1.804008908685969,0.3324708301613735
1.8374164810690425,0.30064402377934757
1.8708240534521159,0.24446494302133795
1.9042316258351895,0.16861284264846363
1.937639198218263,0.0824128921802408
1.9710467706013366,-0.0011994127801303106
2.00445434298441,-0.06890023860124014
2.0378619153674835,-0.1112651861753172
2.071269487750557,-0.12601653064245538
2.1046770601336307,-0.11840862951015817
2.138084632516704,-0.09841236493650564
2.1714922048997773,-0.0761199391153389
2.204899777282851,-0.05772216866638863
2.2383073496659245,-0.04398183265870273
2.271714922048998,-0.031681672167427524
2.3051224944320716,-0.016958711163279783
2.338530066815145,0.0014150423026150231
2.3719376391982183,0.020548086561103854
2.405345211581292,0.03447064057128363
2.4387527839643655,0.0371659027069669
2.472160356347439,0.026116732697326398
2.5055679287305126,0.004644750648387332
2.538975501113586,-0.01818401416674584
2.5723830734966593,-0.03030257910388982
2.605790645879733,-0.02114020585363897
2.6391982182628064,0.013797439123174849
2.67260579064588,0.07007328101525616
2.7060133630289536,0.13443897263474108
2.739420935412027,0.18813495409905537
2.7728285077951007,0.2124307988097913
2.806236080178174,0.19463081635041973
2.8396436525612474,0.13252048356636387
2.873051224944321,0.03564063288195668
2.9064587973273945,-0.07726131083201071
2.939866369710468,-0.18398816306196905
2.9732739420935417,-0.2660370257910343
3.006681514476615,-0.3146079118733001
3.0400890868596884,-0.3331479132683213
3.073496659242762,-0.33528478342099177
3.1069042316258355,-0.338788951083705
3.140311804008909,-0.3578201701270165
3.1737193763919826,-0.39641199073229694
3.207126948775056,-0.4456295135580073
3.2405345211581293,-0.4854136798687857
3.273942093541203,-0.49047282423493654
3.3073496659242765,-0.4383225424676555
3.34075723830735,-0.317006772735393
3.3741648106904236,-0.1301493730187141
3.407572383073497,0.10232945993255023
3.4409799554565703,0.3483420703276589
3.474387527839644,0.5716498882125103
3.5077951002227175,0.7414084791008091
3.541202672605791,0.8401280326229599
3.5746102449888646,0.8673071156843936
3.608017817371938,0.8374820378056875
3.6414253897550113,0.7734430307596803
3.674832962138085,0.6970735649748568
3.7082405345211584,0.621081530805498
3.7416481069042318,0.5446572822487407
3.7750556792873056,0.4549306497367602
3.808463251670379,0.3341939436119309
3.8418708240534527,0.17054444170954938
3.875278396436526,-0.03239066168725149
3.9086859688195994,-0.25154143859156364
3.942093541202673,-0.4494133846991046
3.9755011135857465,-0.5872323459798606
4.00890868596882,-0.641014941669555
4.042316258351893,-0.6129834167293033
4.075723830734967,-0.5321715744769165
4.109131403118041,-0.4430314872263236
4.142538975501114,-0.38687462752822227
4.1759465478841875,-0.3847433834681453
4.209354120267261,-0.42966526696583407
4.242761692650334,-0.4915492491820477
4.276169265033408,-0.5318315221594462
4.309576837416482,-0.5205948175725674
4.342984409799555,-0.44832705621043073
4.3763919821826285,-0.3276768510816569
4.409799554565702,-0.18558253987431605
4.443207126948775,-0.05041702806007448
4.476614699331849,0.0595762712703505
4.510022271714923,0.14165282080374855
4.543429844097996,0.20616493269074815
4.5768374164810695,0.2683803061099646
4.610244988864143,0.33881791971026787
4.643652561247216,0.41667026719211847
4.67706013363029,0.4892018613945058
4.710467706013364,0.5371811918669369
4.743875278396437,0.5436521603327585
4.77728285077951,0.501903787493341
4.810690423162584,0.41900778480556705
4.844097995545657,0.31347644151525716
4.877505567928731,0.20833299836317687
4.910913140311805,0.12283210845034052
4.944320712694878,0.06635848683167618
4.977728285077951,0.036712450549696705
5.011135857461025,0.022888537317704377
5.044543429844098,0.010638913101058304
5.077951002227172,-0.011680241506376778
5.111358574610246,-0.049141575656226726
5.144766146993319,-0.09924437666295118
5.178173719376392,-0.15372386804479637
5.211581291759466,-0.20208140838716346
5.244988864142539,-0.23535146240460303
5.278396436525613,-0.24879867030255806
5.311804008908687,-0.24283578397263353
5.34521158129176,-0.2221892411803289
5.378619153674833,-0.19390630296598957
5.412026726057907,-0.16501037933050605
5.445434298440981,-0.14049616472503332
5.478841870824054,-0.1220990856030595
5.512249443207128,-0.10805415252344418
5.545657015590201,-0.0939131331540679
5.579064587973274,-0.07431390294929088
5.612472160356348,-0.045297276109189245
5.645879732739422,-0.006411216127690263
5.679287305122495,0.03832761482098253
5.712694877505569,0.08127995953923559
5.746102449888642,0.11378287058486015
5.779510022271715,0.12958156833895276
5.812917594654789,0.1276424065545486
5.846325167037863,0.11302433113328296
5.879732739420936,0.09524080222586455
5.91314031180401,0.08457753837306481
5.946547884187083,0.08771353777483969
5.979955456570156,0.10439516236006761
6.01336302895323,0.1266663978728248
6.046770601336304,0.14127381929027633
6.080178173719377,0.13459302350444718
6.1135857461024505,0.09826339422938869
6.146993318485524,0.03323741182283901
6.180400890868597,-0.04954139391595334
6.213808463251671,-0.13229669950118836
6.247216035634745,-0.19632644829948828
6.280623608017818,-0.22845138192485365
6.3140311804008915,-0.22553640336699843
6.347438752783965,-0.1952805038813928
6.380846325167038,-0.1528251983335414
6.414253897550112,-0.11433871913649646
6.447661469933186,-0.09003963731985792
6.481069042316259,-0.07958004091249356
6.5144766146993325,-0.07198684040651346
6.547884187082406,-0.050586531441529727
6.581291759465479,-0.0011639996532228278
6.614699331848553,0.08001471302339365
6.648106904231627,0.18193459420344138
6.6815144766147,0.280573186100642
6.7149220489977735,0.34644216749754686
6.748329621380847,0.35522348717514185
6.78173719376392,0.2973822330263137
6.815144766146994,0.18293459568422749
6.848552338530068,0.039402140869833346
6.881959910913141,-0.09641758553533486
6.915367483296214,-0.18994431326994593
6.948775055679288,-0.21951673774606806
6.982182628062361,-0.18261894577449383
7.015590200445435,-0.09563336939839938
7.048997772828509,0.012507347302273493
7.082405345211582,0.11020494128181221
7.115812917594655,0.1728782763979006
7.149220489977729,0.1890552190475247
7.182628062360802,0.16123264070485666
7.216035634743876,0.10218665376765891
7.24944320712695,0.029135227940507834
7.282850779510023,-0.0415811028935965
7.316258351893096,-0.09778239894396958
7.34966592427617,-0.1328079891068308
7.383073496659243,-0.14601686388597618
7.416481069042317,-0.14320042293633162
7.449888641425391,-0.13650527538333831
7.4832962138084635,-0.14244883686395712
7.516703786191537,-0.17676864677715534
7.550111358574611,-0.24650067536042766
7.583518930957685,-0.34212755544826357
7.616926503340758,-0.4343509911708599
7.650334075723832,-0.47947271207577163
7.683741648106905,-0.434005117298654
7.717149220489978,-0.2741839446707451
7.750556792873052,-0.012104614184083089
7.783964365256126,0.3001615344246762
7.817371937639199,0.5829338801296026
7.850779510022273,0.7549999095880454
7.884187082405346,0.7637264550611924
7.917594654788419,0.6065398591845793
7.951002227171493,0.33392364666031477
7.984409799554567,0.03177231139248586
8.01781737193764,-0.20994560633956644
8.051224944320714,-0.3291046286329501
8.084632516703786,-0.3107136243903208
8.118040089086861,-0.186446889811688
8.151447661469934,-0.016426034046850422
8.184855233853007,0.137167858602432
8.218262806236082,0.23267695028769275
8.251670378619155,0.25915740730953324
8.285077951002227,0.23235287626814555
8.318485523385302,0.18103549491954682
8.351893095768375,0.13147035577471988
8.385300668151448,0.09690960238581063
8.418708240534523,0.07537780106174678
8.452115812917596,0.05476603861603308
8.485523385300668,0.021371986787836084
8.518930957683743,-0.032550697969936496
8.552338530066816,-0.10520167709723639
8.585746102449889,-0.18617617160846583
8.619153674832964,-0.26049542220896493
8.652561247216036,-0.3134655893275416
8.68596881959911,-0.33454078832716794
8.719376391982184,-0.3194615261774474
8.752783964365257,-0.27090852869487136
8.78619153674833,-0.19822374697451553
8.819599109131405,-0.11638683085179839
8.853006681514477,-0.04386095221206741
8.88641425389755,0.0012165095893954276
8.919821826280625,0.006344481302122497
8.953229398663698,-0.029948898349458953
8.98663697104677,-0.09508924142065356
9.020044543429846,-0.16416383209172047
9.053452115812918,-0.20706598448859226
9.086859688195991,-0.19918694498803055
9.120267260579066,-0.1315395524103401
9.153674832962139,-0.015723268644777973
9.187082405345212,0.11903181847898307
9.220489977728286,0.23609185262947477
9.25389755011136,0.304927496408185
9.287305122494432,0.31233151112139795
9.320712694877507,0.26673341892768276
9.35412026726058,0.19400552600291576
9.387527839643653,0.12674999030665457
9.420935412026727,0.09160653045625919
9.4543429844098,0.09961106443387602
9.487750556792873,0.14307597264286903
9.521158129175948,0.1997299465099829
9.55456570155902,0.24214710831500436
9.587973273942094,0.24875746626815862
9.621380846325168,0.21237494704978074
9.654788418708241,0.14313501929003064
9.688195991091314,0.06465013586117245
9.721603563474389,0.004563974838598546
9.755011135857462,-0.01713523328459358
9.788418708240535,0.002534667483608972
9.82182628062361,0.04669395220334613
9.855233853006682,0.08416335058023695
9.888641425389755,0.0819402602377898
9.92204899777283,0.01983102154052177
9.955456570155903,-0.09903388195414013
9.988864142538976,-0.24687468922109307
10.02227171492205,-0.38050339692389884
10.055679287305123,-0.4578036520047524
10.089086859688196,-0.454594256865435
10.12249443207127,-0.37450043500613683
10.155902004454344,-0.24741145856380825
10.189309576837417,-0.11724327754301288
10.222717149220491,-0.02456202100361496
10.256124721603564,0.008241588379355078
10.289532293986637,-0.016885198160669558
10.322939866369712,-0.0779047548257671
10.356347438752785,-0.1442521363339418
10.389755011135858,-0.18969795493771316
10.423162583518932,-0.20072616998951232
10.456570155902005,-0.17757543568415465
10.489977728285078,-0.12900968090379397
10.523385300668153,-0.06477346950856623
10.556792873051226,0.009758607932598858
10.590200445434299,0.09405806750318954
10.623608017817373,0.18843318108352525
10.657015590200446,0.2885454987190132
10.69042316258352,0.3822853268164613
10.723830734966594,0.4515014756818529
10.757238307349667,0.4783411391829379
10.790645879732741,0.453266725026334
10.824053452115814,0.38060277616769816
10.857461024498887,0.2784265203332154
10.890868596881962,0.17233894047403758
10.924276169265035,0.08576133999197459
10.957683741648108,0.031232325120205476
10.991091314031182,0.006706156395438899
11.024498886414255,-0.0016865216327939284
11.057906458797328,-0.012159935064338956
11.091314031180403,-0.03894218457288841
11.124721603563476,-0.08692575676432528
11.158129175946549,-0.15115369036158455
11.191536748329623,-0.2203499846712176
11.224944320712696,-0.2819135505552922
11.25835189309577,-0.32571174407708275
11.291759465478844,-0.3453902999979526
11.325167037861917,-0.3377101416227368
11.35857461024499,-0.30149744841059345
11.391982182628064,-0.23761908775762536
11.425389755011137,-0.15026260820672488
11.45879732739421,-0.04853001984147928
11.492204899777285,0.053253029326213716
11.525612472160358,0.13771440148965125
11.55902004454343,0.1891123804314734
11.592427616926505,0.19911810818967252
11.625835189309578,0.17132783980893632
11.659242761692651,0.12206972953772333
11.692650334075726,0.07613129186292668
11.726057906458799,0.05800397637161742
11.759465478841872,0.0814482076377605
11.792873051224946,0.14163551623782722
11.82628062360802,0.2139128933907988
11.859688195991092,0.2610400412262929
11.893095768374167,0.24718916676519612
11.92650334075724,0.15354234969701
11.959910913140313,-0.011259100250433897
11.993318485523387,-0.21108886652385106
12.02672605790646,-0.3937198444231112
12.060133630289533,-0.5093426439231443
12.093541202672608,-0.5283941824244713
12.12694877505568,-0.45105557382667
12.160356347438753,-0.30473158368276226
12.193763919821828,-0.1314722036703204
12.227171492204901,0.02832683397411475
12.260579064587974,0.14863053277420282
12.293986636971049,0.22216684202991427
12.327394209354122,0.2563315950520504
12.360801781737194,0.2643911520847539
12.39420935412027,0.2573279470922822
12.427616926503342,0.24030452098895871
12.461024498886415,0.21446928098094178
12.49443207126949,0.18159447539795773
12.527839643652563,0.14756674121317456
12.561247216035635,0.12175092465784751
12.59465478841871,0.11207622594656114
12.628062360801783,0.11871922620293032
12.661469933184856,0.1307033741957925
12.69487750556793,0.12860995457434435
12.728285077951004,0.09330085139403008
12.761692650334076,0.016799527643596216
12.795100222717151,-0.09054293378204933
12.828507795100224,-0.20131088017361884
12.861915367483297,-0.2813510643406906
12.895322939866372,-0.30481766469026855
12.928730512249444,-0.266506658868765
12.962138084632517,-0.18487384096036574
12.995545657015592,-0.093760796035089
13.028953229398665,-0.026884215935176606
13.062360801781738,-0.00311271905535792
13.095768374164813,-0.020041305781880694
13.129175946547885,-0.05860716577925978
13.162583518930958,-0.09530063108002873
13.195991091314033,-0.11458111958345685
13.229398663697106,-0.11463088243432826
13.262806236080179,-0.10403546344501002
13.296213808463254,-0.09253064595404875
13.329621380846326,-0.08226533331478106
13.3630289532294,-0.06525651677222986
13.396436525612474,-0.028522410742056373
13.429844097995547,0.03654457662429559
13.46325167037862,0.12662740726274746
13.496659242761694,0.2255981434053492
13.530066815144767,0.3109327310325773
13.56347438752784,0.363566875133185
13.596881959910915,0.3753606329214139
13.630289532293988,0.3500670111472438
13.66369710467706,0.29794941094949196
13.697104677060135,0.22820912914871622
13.730512249443208,0.14459237488390786
13.763919821826281,0.047173649982783165
13.797327394209356,-0.06112829013221364
13.830734966592429,-0.1683873992528106
13.864142538975502,-0.2533325156453793
13.897550111358576,-0.29293836778143956
13.93095768374165,-0.2747899210300999
13.964365256124722,-0.20714089768169147
13.997772828507797,-0.11968474274815062
14.03118040089087,-0.05260063266785146
14.064587973273943,-0.038120379007002776
14.097995545657017,-0.08382478948858585
14.13140311804009,-0.16696376190618192
14.164810690423163,-0.24384126270060338
14.198218262806238,-0.27038918486417207
14.23162583518931,-0.22382793423637504
14.265033407572384,-0.11432346316096306
14.298440979955458,0.019495458948536947
14.331848552338531,0.12897089875967313
14.365256124721604,0.1783800004072043
14.398663697104679,0.1607823927443102
14.432071269487752,0.0990560645027473
14.465478841870825,0.03233296273385373
14.4988864142539,-0.004447102148117287
14.532293986636972,0.0029655649404251405
14.565701559020045,0.04368461935082842
14.59910913140312,0.09060971128467864
14.632516703786193,0.11701083348315973
14.665924276169266,0.11149887873455132
14.69933184855234,0.08358719709510161
14.732739420935413,0.057438048561177936
14.766146993318486,0.05763879942994258
14.79955456570156,0.0947453697433902
14.832962138084634,0.1580986910904087
14.866369710467707,0.21948267009179528
14.899777282850781,0.24574060266725536
14.933184855233854,0.21423106508505274
14.966592427616927,0.1238801215110154
15.0,-0.0031711626328378554
