Time (s),Filtered Signal
0.0,0.04637622811093871
0.033370535714285714,0.3072819452838684
0.06674107142857143,0.42481014071323425
0.10011160714285713,0.31060193105758876
0.13348214285714285,-0.03605135849340154
0.16685267857142858,-0.5296656523393024
0.20022321428571427,-1.0324643848585493
0.23359375,-1.4056953745039862
0.2669642857142857,-1.5572046560479351
0.30033482142857143,-1.4672655280898699
0.33370535714285715,-1.1851490015839612
0.36707589285714287,-0.8016091031483384
0.40044642857142854,-0.4115960176471628
0.43381696428571426,-0.08343900224650469
0.4671875,0.15459668183747258
0.5005580357142857,0.30882529801099995
0.5339285714285714,0.40278010680729853
0.5672991071428571,0.45897096074303073
0.6006696428571429,0.48875489035619113
0.6340401785714286,0.49316391030281787
0.6674107142857143,0.47096314610317364
0.70078125,0.42678576723129535
0.7341517857142857,0.3733900929043548
0.7675223214285715,0.3266571118273711
0.8008928571428571,0.2968542513372366
0.8342633928571428,0.282008430716483
0.8676339285714285,0.2678233149128582
0.9010044642857142,0.23457518227043003
0.934375,0.16734723179313316
0.9677455357142857,0.06414688363900306
1.0011160714285714,-0.06223803786177159
1.0344866071428571,-0.1892866687231348
1.0678571428571428,-0.29372810315306197
1.1012276785714286,-0.3597820604274011
1.1345982142857143,-0.3829787190343134
1.16796875,-0.3687666676417396
1.2013392857142857,-0.32799028734838886
1.2347098214285714,-0.2724357467996294
1.2680803571428572,-0.2125661769362246
1.3014508928571429,-0.15735822474089436
1.3348214285714286,-0.11452888472775018
1.3681919642857143,-0.08950810333068034
1.4015625,-0.0830473617775198
1.4349330357142858,-0.08908225294918476
1.4683035714285715,-0.0950170605880936
1.5016741071428572,-0.08543962115918828
1.535044642857143,-0.048057368018959254
1.5684151785714286,0.021183388672959772
1.6017857142857141,0.11691321777238135
1.6351562499999999,0.22816646041222396
1.6685267857142856,0.34514238878974673
1.7018973214285713,0.464519066276816
1.735267857142857,0.5892239906726333
1.7686383928571427,0.7217252268716107
1.8020089285714285,0.8543109365314693
1.8353794642857142,0.9627262836987031
1.86875,1.0087522009012473
1.9021205357142856,0.9527664442709273
1.9354910714285714,0.7713975918303809
1.968861607142857,0.4716284960560032
2.002232142857143,0.09365349839457074
2.0356026785714287,-0.2998269495509566
2.0689732142857142,-0.6434316118576132
2.10234375,-0.8893523298393328
2.1357142857142857,-1.0197941363576473
2.169084821428571,-1.0477217532919416
2.202455357142857,-1.007412208499163
2.2358258928571426,-0.9398506732008484
2.2691964285714286,-0.8785905624493948
2.302566964285714,-0.8401242952454216
2.3359375,-0.8206341635295267
2.3693080357142855,-0.799241119632152
2.4026785714285714,-0.7466012838265761
2.436049107142857,-0.636523202438919
2.469419642857143,-0.45714803896510564
2.5027901785714284,-0.21774370343462723
2.5361607142857143,0.05191203861632437
2.56953125,0.3100684045585887
2.6029017857142858,0.5166990186135068
2.6362723214285713,0.6471151801487355
2.669642857142857,0.6999194175175553
2.7030133928571427,0.6959271613324037
2.7363839285714286,0.6685204878350656
2.769754464285714,0.6495994321699099
2.803125,0.6571237693037136
2.8364955357142856,0.6893602591371851
2.8698660714285715,0.7278305038887064
2.903236607142857,0.7470692392463032
2.936607142857143,0.7264095809966186
2.9699776785714285,0.6583667480611548
3.0033482142857144,0.5500397605371988
3.03671875,0.41743309982134913
3.070089285714286,0.27609642283355584
3.1034598214285714,0.13329129722862007
3.1368303571428573,-0.01395127156715098
3.170200892857143,-0.1736987180982143
3.2035714285714283,-0.3496694544998781
3.2369419642857142,-0.5328546014871348
3.2703124999999997,-0.6994086292557936
3.3036830357142857,-0.8169537485200309
3.337053571428571,-0.8570000016629044
3.370424107142857,-0.8076762973475415
3.4037946428571426,-0.6803722281275496
3.4371651785714286,-0.5067108209583101
3.470535714285714,-0.32711394448744624
3.50390625,-0.17644633530274967
3.5372767857142855,-0.07346247884370145
3.5706473214285714,-0.018400918341692545
3.604017857142857,0.0014296523706926515
3.637388392857143,0.002204680070569195
3.6707589285714284,-0.004277768585966906
3.7041294642857143,-0.0132194714981215
3.7375,-0.024090089202127685
3.7708705357142858,-0.035525078807758084
3.8042410714285713,-0.04179416842550189
3.837611607142857,-0.03330476413369822
3.8709821428571427,-0.0008359253964225127
3.9043526785714286,0.05912174052084428
3.937723214285714,0.14114923989887107
3.97109375,0.23176771299472723
4.004464285714286,0.3140906351620982
4.0378348214285715,0.37398728505836315
4.0712053571428575,0.4048017444010884
4.1045758928571425,0.4085232063880156
4.1379464285714285,0.39315505118942073
4.171316964285714,0.3678919455543777
4.2046875,0.33865202688201984
4.238058035714285,0.30610762305797623
4.271428571428571,0.26689888805556167
4.304799107142857,0.21700814285522876
4.338169642857142,0.15520984860905823
4.371540178571428,0.08461043713101292
4.404910714285714,0.011448636493329598
4.43828125,-0.058114994698362336
4.471651785714285,-0.12137045248497523
4.505022321428571,-0.1806268292938984
4.538392857142857,-0.241915087183035
4.571763392857143,-0.3112109138856244
4.605133928571428,-0.3898659568507465
4.638504464285714,-0.47149548990286977
4.671875,-0.5420973767682676
4.705245535714286,-0.5838097151906596
4.738616071428571,-0.5810216941321154
4.771986607142857,-0.5263347181497243
4.805357142857143,-0.42377351516156514
4.838727678571429,-0.2877824942059453
4.872098214285714,-0.13839307000774917
4.90546875,0.005368997460662159
4.938839285714286,0.13103682001019384
4.972209821428572,0.2349516528568335
5.005580357142857,0.3204689702227737
5.038950892857143,0.39319895333524824
5.072321428571429,0.45567391230471277
5.105691964285715,0.5040908703010791
5.1390625,0.5288561926734046
5.172433035714286,0.5189141245121157
5.2058035714285715,0.4679810024519788
5.2391741071428575,0.3796624206517182
5.2725446428571425,0.26863108387133366
5.3059151785714285,0.1566815796268361
5.339285714285714,0.0649341291915414
5.3726562499999995,0.0055634509524008354
5.406026785714285,-0.022991311454696843
5.439397321428571,-0.034812807300453684
5.472767857142857,-0.049620872149119644
5.506138392857142,-0.08338830188025642
5.539508928571428,-0.14093989757300862
5.572879464285714,-0.21408150495824646
5.60625,-0.2860838133026746
5.639620535714285,-0.3402111763560977
5.672991071428571,-0.3679920201412888
5.706361607142857,-0.3730418650859641
5.739732142857143,-0.3684216596120463
5.773102678571428,-0.36872590473364913
5.806473214285714,-0.3808245325555178
5.83984375,-0.3980711411083784
5.873214285714286,-0.40128665371243133
5.906584821428571,-0.36654463528081477
5.939955357142857,-0.2763208583019204
5.973325892857143,-0.1287445860789926
6.006696428571429,0.059474099415085684
6.040066964285714,0.257790305051298
6.0734375,0.43194505374834063
6.106808035714286,0.5548687725953201
6.140178571428572,0.6138919435756857
6.173549107142857,0.6119782831325997
6.206919642857143,0.563602301799884
6.240290178571429,0.48801397010538977
6.273660714285715,0.4031041388992849
6.30703125,0.32197378265337606
6.340401785714286,0.2524305052825146
6.3737723214285715,0.19807188105841428
6.407142857142857,0.1591865148852335
6.4405133928571425,0.13254988338390533
6.4738839285714285,0.11067373650725096
6.507254464285714,0.08210827245543262
6.5406249999999995,0.03415256879103662
6.573995535714285,-0.0422014457614394
6.607366071428571,-0.14714614127860925
6.640736607142857,-0.2697142832346135
6.674107142857142,-0.3902637998118869
6.707477678571428,-0.4874116153290711
6.740848214285714,-0.5464264286514938
6.77421875,-0.5649036345968993
6.807589285714285,-0.55264146314103
6.840959821428571,-0.5255493672745281
6.874330357142857,-0.4965912527040368
6.907700892857143,-0.46844847057414885
6.941071428571428,-0.4318347182724296
6.974441964285714,-0.37056920646637886
7.0078125,-0.2710548777056706
7.041183035714286,-0.1314593294144547
7.074553571428571,0.03416067777232071
7.107924107142857,0.19924382840655222
7.141294642857143,0.3344650045442474
7.174665178571429,0.41949065635469523
7.208035714285714,0.45121585748102244
7.24140625,0.4444336001043864
7.274776785714286,0.4244360286345612
7.308147321428572,0.414983560605583
7.341517857142857,0.42742580982320943
7.374888392857143,0.45624515251417114
7.408258928571429,0.4830777481108122
7.441629464285715,0.4869514683272939
7.475,0.45531885810197037
7.508370535714286,0.39014326734180665
7.5417410714285715,0.30599205127025275
7.575111607142857,0.22135195191887874
7.6084821428571425,0.14793993804602762
7.6418526785714285,0.08380431230635169
7.675223214285714,0.014053466449377373
7.7085937499999995,-0.08080655763563502
7.741964285714285,-0.2127699348784499
7.775334821428571,-0.376321033498409
7.808705357142857,-0.5457087170898827
7.842075892857142,-0.6816633823917088
7.875446428571428,-0.7455629809569911
7.908816964285714,-0.7154838192983196
7.9421875,-0.5971575640075135
7.975558035714285,-0.4244586874544214
8.008928571428571,-0.2483016459426729
8.042299107142856,-0.11800236135600747
8.075669642857143,-0.06276249680160426
8.109040178571428,-0.0810328639677907
8.142410714285715,-0.14198383374072937
8.17578125,-0.1980280450577793
8.209151785714285,-0.20298778333138778
8.242522321428572,-0.12891291961887286
8.275892857142857,0.02414168609483809
8.309263392857142,0.2280641406464461
8.342633928571429,0.4357725425957058
8.376004464285714,0.5962504756179408
8.409375,0.6707715692412027
8.442745535714286,0.645178705911329
8.47611607142857,0.5340854944865605
8.509486607142858,0.37530472464349796
8.542857142857143,0.21622803753745723
8.576227678571428,0.09712204973529966
8.609598214285715,0.037846902643877044
8.64296875,0.03329929037343752
8.676339285714285,0.0591628576556309
8.709709821428572,0.08493677644975917
8.743080357142857,0.08796274621669589
8.776450892857143,0.06195075363763861
8.809821428571428,0.016458799718587224
8.843191964285714,-0.03158450615985379
8.8765625,-0.06927965173224442
8.909933035714285,-0.09578687257076701
8.94330357142857,-0.12272275346922407
8.976674107142857,-0.16685247878002044
9.010044642857142,-0.23914515654125393
9.04341517857143,-0.336179607186699
9.076785714285714,-0.43862803868172856
9.11015625,-0.5178346500823097
9.143526785714286,-0.5473512551721909
9.176897321428571,-0.513871237435659
9.210267857142856,-0.42248551528033723
9.243638392857143,-0.2941385113266995
9.277008928571428,-0.15689646962285955
9.310379464285715,-0.03523818862846276
9.34375,0.058043713047881876
9.377120535714285,0.12439815905773934
9.410491071428572,0.17618098824405223
9.443861607142857,0.22935690761951175
9.477232142857142,0.29536793605870426
9.510602678571429,0.37530040286242283
9.543973214285714,0.45851292727204007
9.57734375,0.5262544426685493
9.610714285714286,0.5588845654143174
9.64408482142857,0.5437240628375041
9.677455357142858,0.4801078649575903
9.710825892857143,0.37939535827126053
9.744196428571428,0.2601566586061915
9.777566964285715,0.1412022183359785
9.8109375,0.03603719971085448
9.844308035714285,-0.04894045999902927
9.877678571428572,-0.11278041952266395
9.911049107142857,-0.1572543455385352
9.944419642857143,-0.1855919214130547
9.977790178571428,-0.20334358473487532
10.011160714285714,-0.2196868892587616
10.04453125,-0.24655143609656854
10.077901785714285,-0.294246236838423
10.11127232142857,-0.36500359514103664
10.144642857142857,-0.4480977211413877
10.178013392857142,-0.5202827378389667
10.21138392857143,-0.5528921669465052
10.244754464285714,-0.5232887632694952
10.278125,-0.42554116453623775
10.311495535714286,-0.27496185431201026
10.344866071428571,-0.1038052497126473
10.378236607142856,0.050326138186746326
10.411607142857143,0.15826129936721284
10.444977678571428,0.20916655237463616
10.478348214285715,0.21258613465190176
10.51171875,0.1924371781283449
10.545089285714285,0.1762365170583196
10.578459821428572,0.184333758855295
10.611830357142857,0.22315832993240728
10.645200892857142,0.2843237980187014
10.678571428571429,0.3491102139381172
10.711941964285714,0.3962165262118786
10.745312499999999,0.4099685295131901
10.778683035714286,0.38624334704004426
10.81205357142857,0.3340741223194803
10.845424107142858,0.2721629689521948
10.878794642857143,0.2212117924738665
10.912165178571428,0.19466015685512325
10.945535714285715,0.19143474691149986
10.97890625,0.19405956289355633
11.012276785714285,0.1737729830611779
11.045647321428572,0.10159944051987159
11.079017857142857,-0.03838676611734507
11.112388392857143,-0.23891880334150525
11.145758928571428,-0.46732395732622356
11.179129464285714,-0.6733187104986853
11.2125,-0.8047792687316995
11.245870535714285,-0.8256880398808771
11.27924107142857,-0.7289692100721585
11.312611607142857,-0.5387885084995935
11.345982142857142,-0.30146696683178664
11.37935267857143,-0.06920352156661519
11.412723214285714,0.11631196215566522
11.44609375,0.2339905263099454
11.479464285714286,0.28432518675300966
11.512834821428571,0.2827878702852808
11.546205357142856,0.25003874110585245
11.579575892857143,0.20368303984783537
11.612946428571428,0.15450812691899
11.646316964285715,0.10745825272576015
11.6796875,0.06538845908954292
11.713058035714285,0.0327196729612096
11.746428571428572,0.016654213100332205
11.779799107142857,0.025170952906328353
11.813169642857142,0.06282189222221979
11.846540178571429,0.12659692552608912
11.879910714285714,0.20428988952585633
11.913281249999999,0.2768081714459635
11.946651785714286,0.3240892883885857
11.98002232142857,0.33242938515310855
12.013392857142858,0.29994664363969165
12.046763392857143,0.23729160872512015
12.080133928571428,0.16269723902615446
12.113504464285715,0.09328496305334466
12.146875,0.03676096522156949
12.180245535714285,-0.012140273358021121
12.213616071428572,-0.06827151319163846
12.246986607142857,-0.1470866415255309
12.280357142857143,-0.2543947897698638
12.313727678571428,-0.38002569784541324
12.347098214285714,-0.49880536937962966
12.38046875,-0.5788171746912447
12.413839285714285,-0.593548945851947
12.44720982142857,-0.5327470338527166
12.480580357142857,-0.40732989517232177
12.513950892857142,-0.2462289078159853
12.54732142857143,-0.08638006522805397
12.580691964285714,0.040138252261509515
12.6140625,0.11674443886154633
12.647433035714286,0.1466751429973992
12.680803571428571,0.1494973718476942
12.714174107142856,0.15148112027620778
12.747544642857143,0.17393788265591534
12.780915178571428,0.2243328316887898
12.814285714285713,0.293664133882521
12.84765625,0.3608713025470609
12.881026785714285,0.4021069624933553
12.914397321428572,0.40084495107735285
12.947767857142857,0.3547107432912871
12.981138392857142,0.2764810055314548
13.014508928571429,0.1891096108492922
13.047879464285714,0.11688706591517818
13.081249999999999,0.07615047084616322
13.114620535714286,0.06899691280136012
13.14799107142857,0.08230861896385011
13.181361607142858,0.09249236920418949
13.214732142857143,0.07429850874400283
13.248102678571428,0.010604373682956409
13.281473214285715,-0.10034495384157188
13.31484375,-0.24288015993419138
13.348214285714285,-0.38784252726774887
13.381584821428572,-0.5011810847395815
13.414955357142857,-0.5542527647305325
13.448325892857143,-0.5323600897081521
13.481696428571428,-0.43883399953209906
13.515066964285714,-0.2936486228737831
13.5484375,-0.1274316542568278
13.581808035714285,0.02689967966081358
13.61517857142857,0.142212849254783
13.648549107142857,0.20279708074868377
13.681919642857142,0.20654781768287697
13.71529017857143,0.1638921220202286
13.748660714285714,0.09442390191659308
13.78203125,0.022333036588971497
13.815401785714286,-0.028636975980638846
13.848772321428571,-0.04029512611358517
13.882142857142856,-0.004654891768747469
13.915513392857143,0.07292193922797563
13.948883928571428,0.17359946943565477
13.982254464285713,0.2691548735764932
14.015625,0.33005879750015293
14.048995535714285,0.3352699003283453
14.082366071428572,0.2799226136506445
14.115736607142857,0.17725808634640525
14.149107142857142,0.05337959243057499
14.182477678571429,-0.06322341108381828
14.215848214285714,-0.15272788018173528
14.249218749999999,-0.2104811930085376
14.282589285714286,-0.24599421160813845
14.31595982142857,-0.2751684831371706
14.349330357142858,-0.30979778621593895
14.382700892857143,-0.34957294403341965
14.416071428571428,-0.3804044313865508
14.449441964285715,-0.37973877646873483
14.4828125,-0.3263287742688103
14.516183035714285,-0.21011031671452154
14.549553571428572,-0.03808127811603742
14.582924107142857,0.16599086048854672
14.616294642857143,0.36763151711585473
14.649665178571428,0.5310337626968744
14.683035714285714,0.6284771966410223
14.71640625,0.6469909887612453
14.749776785714285,0.5906914299444157
14.78314732142857,0.4785798599943244
14.816517857142857,0.3386824883159313
14.849888392857142,0.2001778120219085
14.88325892857143,0.08562099559139999
14.916629464285714,0.005453072648518389
14.95,-0.04351555143493393
14.983370535714286,-0.07510285205524697
15.016741071428571,-0.1072127212792322
15.050111607142856,-0.1540585917516704
15.083482142857143,-0.22000700497261502
15.116852678571428,-0.29738793679388503
15.150223214285713,-0.36921571243237766
15.18359375,-0.4159509812917827
15.216964285714285,-0.42382470908896624
15.250334821428572,-0.391414547802744
15.283705357142857,-0.3315178681675511
15.317075892857142,-0.26698877649625063
15.350446428571429,-0.2216915922115353
15.383816964285714,-0.21012565905756878
15.417187499999999,-0.2303900423673301
15.450558035714286,-0.264130621124047
15.48392857142857,-0.28408419414989944
15.517299107142858,-0.2660997669416764
15.550669642857143,-0.19999101435435643
15.584040178571428,-0.09377828210756792
15.617410714285715,0.0309881009225109
15.65078125,0.1504961458664506
15.684151785714285,0.2505224892029303
15.717522321428572,0.33229616435671366
15.750892857142857,0.40892229855764967
15.784263392857143,0.49414049748520505
15.817633928571428,0.5896614566673113
15.851004464285714,0.6784956020496219
15.884375,0.7288097358166643
15.917745535714285,0.707364606592782
15.95111607142857,0.5963451592376431
15.984486607142857,0.4051677185466228
16.017857142857142,0.1709007109493746
16.05122767857143,-0.05367536473893089
16.084598214285712,-0.2193432686367961
16.11796875,-0.29849887818424065
16.151339285714286,-0.29408677319034876
16.18470982142857,-0.23591826487876721
16.218080357142856,-0.16664596228694598
16.251450892857143,-0.12404243634748625
16.28482142857143,-0.12732613671477203
16.318191964285713,-0.17287159668674462
16.3515625,-0.2400598667193054
16.384933035714287,-0.30344748957351425
16.41830357142857,-0.34492575617244303
16.451674107142857,-0.36017056445651074
16.485044642857144,-0.3570166597568733
16.518415178571427,-0.34767547095890333
16.551785714285714,-0.3397288031213886
16.58515625,-0.3310440213609088
16.618526785714284,-0.31118574681530964
16.65189732142857,-0.26808636585675805
16.685267857142858,-0.19584342381205896
16.71863839285714,-0.0990741849031055
16.752008928571428,0.008622605626012615
16.785379464285715,0.11115607729238737
16.81875,0.197664210594101
16.852120535714285,0.26705494725052425
16.88549107142857,0.3266918559635147
16.91886160714286,0.3857975057543525
16.95223214285714,0.4472059237852534
16.98560267857143,0.5023115588999955
17.018973214285715,0.5326752521835071
17.05234375,0.5183304473824067
17.085714285714285,0.44907981943507036
17.119084821428572,0.33297465843699414
17.152455357142856,0.19696399054571312
17.185825892857142,0.0781736102798128
17.21919642857143,0.008830473744326914
17.252566964285712,0.0012976125628799081
17.2859375,0.04030691221712613
17.319308035714286,0.08680771916323758
17.35267857142857,0.09290511500771809
17.386049107142856,0.0222525989014824
17.419419642857143,-0.13267546363611035
17.45279017857143,-0.344271538973197
17.486160714285713,-0.5579738131048729
17.51953125,-0.712330829750714
17.552901785714287,-0.7630109680915201
17.58627232142857,-0.7006404086281518
17.619642857142857,-0.5544610668387041
17.653013392857144,-0.3796071289254285
17.686383928571427,-0.2330802839210886
