Time (s),Filtered Signal
0.0,0.00782258783803891
0.03337004405286344,-0.006966797087280105
0.06674008810572687,-0.036419004258471346
0.10011013215859031,-0.09109684621413963
0.13348017621145375,-0.17344134031987432
0.16685022026431717,-0.27507045937625885
0.20022026431718062,-0.37731121057060846
0.23359030837004408,-0.4562105157231897
0.2669603524229075,-0.49100824654430425
0.3003303964757709,-0.47257343482816366
0.33370044052863435,-0.40747262939588763
0.3670704845814978,-0.3151086650584431
0.40044052863436125,-0.21895750674308476
0.43381057268722467,-0.13624747759641181
0.46718061674008815,-0.07141642583226365
0.5005506607929515,-0.016676437998216328
0.533920704845815,0.040849558300930004
0.5672907488986785,0.1094662311276041
0.6006607929515418,0.18599742612304027
0.6340308370044053,0.25530881931657895
0.6674008810572687,0.29651624588092346
0.7007709251101322,0.29275640479244974
0.7341409691629956,0.23973865319511384
0.767511013215859,0.14903360633576437
0.8008810572687225,0.04464795732011763
0.834251101321586,-0.04548309684454204
0.8676211453744493,-0.09935005054569511
0.9009911894273128,-0.10806185054832118
0.9343612334801763,-0.07782769682057131
0.9677312775330397,-0.026478854733485428
1.001101321585903,0.02369402276953166
1.0344713656387665,0.054004444475182954
1.06784140969163,0.05564230921467513
1.1012114537444935,0.032271187602225616
1.134581497797357,-0.0018192753638384955
1.1679515418502202,-0.027535217217530585
1.2013215859030837,-0.029002682493978398
1.2346916299559472,-0.0009271765036161412
1.2680616740088106,0.04788937107230723
1.3014317180616741,0.0970105763726542
1.3348017621145374,0.12255313361533554
1.3681718061674009,0.10801858409959762
1.4015418502202643,0.052922598942198994
1.4349118942731278,-0.025123296814296037
1.4682819383259913,-0.09641300812328298
1.5016519823788548,-0.1309524734360806
1.535022026431718,-0.11093736280795218
1.5683920704845815,-0.03836153054426738
1.601762114537445,0.06554931056174736
1.6351321585903085,0.1686786320320771
1.668502202643172,0.2403851126073731
1.7018722466960352,0.2626446116548892
1.7352422907488987,0.23555406410216373
1.7686123348017622,0.175370196679481
1.8019823788546256,0.1063853579369771
1.8353524229074891,0.05034941457677587
1.8687224669603526,0.017944082440920297
1.9020925110132159,0.005742494703780076
1.9354625550660793,-0.00040416325578718405
1.9688325991189428,-0.017458762855116994
2.002202643171806,-0.05659971826221507
2.0355726872246698,-0.11786259338573289
2.068942731277533,-0.19020414031207236
2.1023127753303967,-0.25649004899261507
2.13568281938326,-0.3006756044667462
2.1690528634361232,-0.31375366643085284
2.202422907488987,-0.2960896106044894
2.23579295154185,-0.2558031061635863
2.269162995594714,-0.20469772866187286
2.302533039647577,-0.15396533083103459
2.3359030837004404,-0.11135626479512319
2.369273127753304,-0.08030369517710757
2.4026431718061674,-0.060473981772966263
2.436013215859031,-0.04891365908838985
2.4693832599118943,-0.041290949869718825
2.5027533039647576,-0.03316622986956745
2.5361233480176213,-0.02129879823925069
2.5694933920704845,-0.004676983034691374
2.6028634361233483,0.01534403945100068
2.6362334801762115,0.03623471927185585
2.6696035242290748,0.05652074469145613
2.7029735682819385,0.07790488607907267
2.7363436123348017,0.10580349067146542
2.7697136563876654,0.14738493584533302
2.8030837004405287,0.20748811290344196
2.8364537444933924,0.2841595232932005
2.8698237885462556,0.3661921692847164
2.903193832599119,0.4344993216334729
2.9365638766519826,0.4675333144211528
2.969933920704846,0.4489834365576474
3.0033039647577096,0.37464913882817064
3.036674008810573,0.2554325152463749
3.070044052863436,0.11489473134940807
3.1034140969162998,-0.01791506153850036
3.136784140969163,-0.11769967278541463
3.1701541850220267,-0.17079507832477242
3.20352422907489,-0.17891019107300618
3.2368942731277532,-0.1575923981654087
3.270264317180617,-0.13020364744921137
3.30363436123348,-0.1196637560008032
3.337004405286344,-0.1407826441193179
3.370374449339207,-0.1955659608371545
3.4037444933920704,-0.2727194503662622
3.437114537444934,-0.3512098987390356
3.4704845814977974,-0.4066414068419415
3.503854625550661,-0.4185932371554602
3.5372246696035243,-0.37690269172061797
3.5705947136563876,-0.28507886873662414
3.6039647577092513,-0.15964597637754804
3.6373348017621145,-0.02533495139473794
3.6707048458149782,0.09247665025909697
3.7040748898678415,0.17540907692045568
3.737444933920705,0.21686328388419787
3.7708149779735685,0.22211445348825717
3.8041850220264317,0.20400125309976494
3.8375550660792954,0.17651843609830353
3.8709251101321587,0.14944290461257081
3.9042951541850224,0.12632004373175398
3.9376651982378856,0.10620919622225584
3.971035242290749,0.08761431955769775
4.004405286343612,0.0720184838821915
4.037775330396476,0.06482374334475696
4.0711453744493395,0.07298220328810501
4.104515418502203,0.10041720175338775
4.137885462555066,0.14360955241056908
4.171255506607929,0.18986787891748166
4.2046255506607935,0.21972174828593122
4.237995594713657,0.21302335420024598
4.27136563876652,0.15654081532033742
4.304735682819383,0.0499206759612606
4.3381057268722465,-0.09262957645611632
4.371475770925111,-0.2458752755261898
4.404845814977974,-0.38103395776492804
4.438215859030837,-0.47426571041798515
4.4715859030837,-0.512931708231069
4.504955947136564,-0.49754668548309294
4.538325991189428,-0.439321159387651
4.571696035242291,-0.35489621635261986
4.605066079295154,-0.2605426943449906
4.638436123348018,-0.16769097069097724
4.671806167400881,-0.08075426295965189
4.705176211453745,0.0025591886072804902
4.738546255506608,0.0886827078824514
4.7719162995594715,0.18396593000931882
4.805286343612335,0.2899285825765699
4.838656387665198,0.3997552066727768
4.872026431718062,0.49792617236081227
4.905396475770925,0.5640061685709891
4.938766519823789,0.5798044867681306
4.972136563876652,0.5372079401431777
5.005506607929515,0.443115213338729
5.038876651982379,0.3187953939273942
5.072246696035243,0.19340305352835643
5.105616740088106,0.09412339170832543
5.138986784140969,0.037032126579930554
5.172356828193832,0.02237492775526583
5.2057268722466965,0.035859564283512176
5.23909691629956,0.05489589891470066
5.272466960352423,0.05687055666998545
5.305837004405286,0.026257185002265804
5.3392070484581495,-0.04152211579961367
5.372577092511014,-0.13988538843976123
5.405947136563877,-0.2536254991760755
5.43931718061674,-0.36288553596156164
5.4726872246696034,-0.4476294578417048
5.506057268722468,-0.49215774117786504
5.539427312775331,-0.4892590181370893
5.572797356828194,-0.443111562659225
5.606167400881057,-0.3695762260215297
5.639537444933921,-0.2927442439013565
5.672907488986785,-0.23780305351843756
5.706277533039648,-0.22204853380514036
5.739647577092511,-0.24728167268566462
5.7730176211453745,-0.2969853937982942
5.806387665198238,-0.3402514991564985
5.839757709251102,-0.341871771453349
5.873127753303965,-0.27535924417734636
5.9064977973568284,-0.13407998359125584
5.939867841409692,0.06406482541635537
5.973237885462555,0.2807839171106077
6.006607929515419,0.46936133517029105
6.039977973568282,0.5901806579783618
6.073348017621146,0.6238683445965764
6.106718061674009,0.5769057964346688
6.140088105726872,0.47761901768390197
6.173458149779736,0.3644715643491976
6.2068281938325995,0.27172457819229745
6.240198237885463,0.21834683698107116
6.273568281938326,0.20424656611429148
6.306938325991189,0.21441201316210842
6.3403083700440535,0.2280981807789574
6.373678414096917,0.22837003983151447
6.40704845814978,0.2078129462042594
6.440418502202643,0.16859579694755067
6.4737885462555065,0.11801561763842679
6.507158590308371,0.06269364311962311
6.540528634361234,0.004815551259384106
6.573898678414097,-0.05773940450728837
6.60726872246696,-0.12791213899303636
6.640638766519824,-0.20504156725596395
6.674008810572688,-0.28235280091274517
6.707378854625551,-0.34803660457500923
6.740748898678414,-0.38957791629227123
6.774118942731278,-0.3992209956975103
6.807488986784141,-0.37780600990217955
6.840859030837005,-0.33492086221703943
6.874229074889868,-0.2850135274951347
6.9075991189427315,-0.2410568884168849
6.940969162995595,-0.20869507117622435
6.974339207048458,-0.18383427275324188
7.007709251101322,-0.15515928914280117
7.041079295154185,-0.11059657576100897
7.074449339207049,-0.04452500042009545
7.107819383259912,0.038125533061808735
7.141189427312775,0.12327805796482623
7.174559471365639,0.19408357939334336
7.207929515418503,0.23898605720521332
7.241299559471366,0.2572076665515796
7.274669603524229,0.2587152856707644
7.308039647577092,0.258599880673201
7.3414096916299565,0.26864125720004933
7.37477973568282,0.2902243610451098
7.408149779735683,0.31215058362700526
7.441519823788546,0.3146462710519858
7.47488986784141,0.2780437834278972
7.508259911894274,0.1923931971211694
7.541629955947137,0.06360054242863684
7.575,-0.08703527324707908
7.608370044052863,-0.23017807434280174
7.641740088105728,-0.3397261251600285
7.675110132158591,-0.4028548502525882
7.708480176211454,-0.4238651640400503
7.741850220264317,-0.4196337357881088
7.775220264317181,-0.40868352957845927
7.808590308370045,-0.3994750427290766
7.841960352422908,-0.38440436009026396
7.875330396475771,-0.34335572449410806
7.9087004405286345,-0.2555768296081896
7.942070484581498,-0.11378289904685014
7.975440528634362,0.06738844206998103
8.008810572687224,0.2538351374407158
8.042180616740088,0.40483582432942794
8.075550660792953,0.49001449845608064
8.108920704845815,0.5017888183823583
8.142290748898679,0.4570520629120021
8.175660792951541,0.3875759972202803
8.209030837004406,0.32443204091993033
8.24240088105727,0.2844529919433067
8.275770925110132,0.2651393085785861
8.309140969162996,0.24963667124968694
8.342511013215859,0.21823523119388258
8.375881057268723,0.15996412204624838
8.409251101321587,0.07849044267919307
8.44262114537445,-0.0100403876230783
8.475991189427313,-0.08537637386036324
8.509361233480176,-0.13301199148561307
8.54273127753304,-0.15044354121605574
8.576101321585904,-0.1468773761016354
8.609471365638766,-0.13692358878459449
8.64284140969163,-0.13197091433298092
8.676211453744493,-0.13421958788084515
8.709581497797357,-0.1369705828266474
8.742951541850221,-0.13123941340434195
8.776321585903084,-0.1148512447219783
8.809691629955948,-0.09814810138691483
8.84306167400881,-0.10177691454071282
8.876431718061674,-0.14635491191874367
8.909801762114538,-0.23885637683281352
8.9431718061674,-0.36335348883512153
8.976541850220265,-0.48235516238094417
9.009911894273127,-0.5498139847794764
9.043281938325991,-0.5305505542936851
9.076651982378856,-0.4168683418445849
9.110022026431718,-0.23388187993870244
9.143392070484582,-0.03039595763905735
9.176762114537445,0.14067752602410327
9.210132158590309,0.24321478489822448
9.243502202643173,0.27049439609507925
9.276872246696035,0.2443184078782712
9.3102422907489,0.2021315451506092
9.343612334801762,0.17908665629247592
9.376982378854626,0.19360139709899987
9.41035242290749,0.24231800497767866
9.443722466960352,0.3053107664480932
9.477092511013216,0.35764034426913255
9.510462555066079,0.38112787577603563
9.543832599118943,0.3711636634742437
9.577202643171807,0.33651674346496957
9.61057268722467,0.29361887649562757
9.643942731277534,0.2589192193283365
9.677312775330396,0.24284750808876254
9.71068281938326,0.24714497876801167
9.744052863436124,0.2651846508085744
9.777422907488987,0.28378808444931797
9.81079295154185,0.28545721061423196
9.844162995594713,0.2511862795585465
9.877533039647577,0.1647557347172881
9.910903083700441,0.018702432191354208
9.944273127753304,-0.17969473457255006
9.977643171806168,-0.40564348559170926
10.01101321585903,-0.620251240357006
10.044383259911895,-0.7805968809885032
10.077753303964759,-0.8534038588833512
10.111123348017621,-0.8267882473783538
10.144493392070485,-0.7147592996242526
10.177863436123348,-0.552110588108154
10.211233480176212,-0.3815975159111511
10.244603524229076,-0.23873386881755734
10.277973568281938,-0.14051041536704073
10.311343612334802,-0.08243384167388915
10.344713656387665,-0.044460377926853485
10.378083700440529,-0.0024897513434582754
10.411453744493393,0.060078151209487105
10.444823788546255,0.1457114372781899
10.47819383259912,0.24327226679611777
10.511563876651982,0.3344490386505159
10.544933920704846,0.40236869558189736
10.57830396475771,0.4382443535203548
10.611674008810573,0.4434516058512463
10.645044052863437,0.42690170694213425
10.678414096916299,0.39970588841366533
10.711784140969163,0.37000730311960806
10.745154185022027,0.34031399516319605
10.77852422907489,0.3081578093591118
10.811894273127754,0.2692212436569195
10.845264317180618,0.22098190876793145
10.87863436123348,0.16486692649796578
10.912004405286345,0.10584120984562123
10.945374449339207,0.04976571780252211
10.978744493392071,3.5429932882446465e-05
11.012114537444935,-0.04462459597894887
11.045484581497798,-0.0899068364791359
11.078854625550662,-0.14312744824629647
11.112224669603524,-0.2090606823491147
11.145594713656388,-0.28628589893006645
11.178964757709252,-0.3657879539074554
11.212334801762115,-0.4326283192066471
11.245704845814979,-0.4702324579427651
11.279074889867841,-0.46579076747535764
11.312444933920705,-0.4148734028366029
11.34581497797357,-0.32370049333470147
11.379185022026432,-0.20834198256057504
11.412555066079296,-0.09105161138074311
11.445925110132158,0.005339782588432204
11.479295154185023,0.06362310791767964
11.512665198237887,0.07745137964410449
11.546035242290749,0.05404999746862633
11.579405286343613,0.013129620538953574
11.612775330396476,-0.018407006660869404
11.64614537444934,-0.014960084130618943
11.679515418502204,0.038579583386974606
11.712885462555066,0.14027199020470063
11.74625550660793,0.27001219940130977
11.779625550660793,0.39483708200292783
11.812995594713657,0.4791761536660762
11.846365638766521,0.4965465014227297
11.879735682819383,0.4384907481413119
11.913105726872248,0.31749039011159
11.94647577092511,0.16280182818058947
11.979845814977974,0.010806339501122045
12.013215859030838,-0.10649836762600622
12.0465859030837,-0.1706504516799833
12.079955947136565,-0.18044824734558323
12.113325991189427,-0.14955396089677533
12.146696035242291,-0.09977529629941359
12.180066079295155,-0.05322485292864632
12.213436123348018,-0.026291084111701314
12.246806167400882,-0.026825984678829056
12.280176211453744,-0.05424516225665564
12.313546255506608,-0.1013307903689311
12.346916299559473,-0.15667076272599925
12.380286343612335,-0.20732458434135367
12.413656387665199,-0.24170413006534427
12.447026431718061,-0.2524208883624719
12.480396475770926,-0.23826827899588218
12.51376651982379,-0.20425901132919694
12.547136563876652,-0.15922047029839806
12.580506607929516,-0.11171959271150514
12.613876651982379,-0.0662640450924949
12.647246696035243,-0.02191010491163833
12.680616740088107,0.02575160719745482
12.71398678414097,0.08022875343671444
12.747356828193833,0.13998327625101598
12.780726872246696,0.1972745893436913
12.81409691629956,0.2411724162575485
12.847466960352424,0.2633918196085774
12.880837004405286,0.2636105110244921
12.91420704845815,0.25078142892785216
12.947577092511013,0.23894387339617457
12.980947136563877,0.23917661653645073
13.014317180616741,0.2518654209039333
13.047687224669604,0.2638355385801761
13.081057268722468,0.2527159003491586
13.11442731277533,0.19717454486275068
13.147797356828194,0.08835174229790163
13.181167400881058,-0.0632357029367967
13.21453744493392,-0.22914957656681442
13.247907488986785,-0.37272113143883295
13.281277533039647,-0.4628330541871893
13.314647577092511,-0.485577125868823
13.348017621145376,-0.4484756670873379
13.381387665198238,-0.3754146177983456
13.414757709251102,-0.2948210020962429
13.448127753303964,-0.22682143332372004
13.481497797356829,-0.17553751504500062
13.514867841409693,-0.13004282667514033
13.548237885462555,-0.07312851468261664
13.58160792951542,0.006851157847915234
13.614977973568282,0.10717429761228413
13.648348017621146,0.20939405574254433
13.68171806167401,0.28604604842797493
13.715088105726872,0.3122084790357348
13.748458149779736,0.27668240578092995
13.781828193832599,0.1880550768506098
13.815198237885463,0.07331004089889975
13.848568281938327,-0.030368001424192166
13.88193832599119,-0.08757227644615267
13.915308370044054,-0.07626495415137537
13.948678414096916,0.005000124300430116
13.98204845814978,0.13676415507219383
14.015418502202644,0.2853906387524527
14.048788546255507,0.41425667675910166
14.08215859030837,0.4949380677584816
14.115528634361233,0.5139167193674169
14.148898678414097,0.47250755210825696
14.182268722466961,0.3810943422393641
14.215638766519824,0.25159023766517047
14.249008810572688,0.09268385571002041
14.28237885462555,-0.08954352163327665
14.315748898678414,-0.2865652371891809
14.349118942731279,-0.48188845562070426
14.382488986784141,-0.6497312753624166
14.415859030837005,-0.7603711848233043
14.449229074889868,-0.7906751487752585
14.482599118942732,-0.7348182217250914
14.515969162995596,-0.6092577643647223
14.549339207048458,-0.4484107419338217
14.582709251101322,-0.29208260092111926
14.616079295154185,-0.17009127177671352
14.649449339207049,-0.09128509401386385
14.682819383259913,-0.04221101703624113
14.716189427312775,0.003997088076172034
14.74955947136564,0.07291779742191525
14.782929515418502,0.1754249583170607
14.816299559471366,0.3017559586737761
14.84966960352423,0.42542631608259823
14.883039647577093,0.5146610829305277
14.916409691629957,0.5458120618387079
14.94977973568282,0.512863597398939
14.983149779735683,0.4294026128416572
15.016519823788547,0.32294726287682196
15.04988986784141,0.22459653736836235
15.083259911894274,0.1584119312403236
15.116629955947138,0.1344809216716764
15.15,0.14770383983474886
15.183370044052865,0.18188871553169975
15.216740088105727,0.21674483154775862
15.250110132158591,0.23462866275324423
15.283480176211455,0.2246390754660395
15.316850220264318,0.18336638979687991
15.350220264317182,0.11327458486316026
15.383590308370044,0.020464477878358107
15.416960352422908,-0.0868010709889338
15.450330396475772,-0.19847430212243342
15.483700440528635,-0.3026576734131841
15.517070484581499,-0.38616761547487377
15.550440528634361,-0.43653439551057993
15.583810572687225,-0.44550150440883496
15.61718061674009,-0.4131417729477284
15.650550660792952,-0.35085197024687004
15.683920704845816,-0.28111136216163496
15.717290748898678,-0.23246117387972934
15.750660792951543,-0.22992649451044353
15.784030837004407,-0.2836395866014427
15.817400881057269,-0.38051023120916805
15.850770925110133,-0.4839088168912989
15.884140969162996,-0.5436737898211635
15.91751101321586,-0.5140589017961616
15.950881057268724,-0.372733947818765
15.984251101321586,-0.1322906947931063
16.01762114537445,0.16168454029749518
16.050991189427315,0.445934819237087
16.084361233480177,0.6618648009835317
16.11773127753304,0.7751759064281188
16.151101321585905,0.7845966774540274
16.184471365638768,0.7169120899632598
16.21784140969163,0.6118634596565964
16.251211453744492,0.5045918670836873
16.284581497797358,0.4133986914955235
16.31795154185022,0.3371622561429878
16.351321585903083,0.26187575771356825
16.38469162995595,0.17187760097136204
16.41806167400881,0.05998403056353669
16.451431718061674,-0.06790546358014023
16.48480176211454,-0.19505366426548712
16.518171806167402,-0.3010248365023794
16.551541850220264,-0.3697917146078269
16.584911894273127,-0.39500851129244324
16.618281938325993,-0.38058388398985793
16.651651982378855,-0.3372515358384877
16.685022026431717,-0.2776155724206612
16.718392070484583,-0.21231007291640616
16.751762114537446,-0.14863384951345623
16.785132158590308,-0.09127678233026915
16.818502202643174,-0.04364052589746998
16.851872246696036,-0.00831975909197219
16.8852422907489,0.013698835505445317
16.91861233480176,0.024404821087080496
16.951982378854627,0.029390698122862862
16.98535242290749,0.03669960113795508
17.01872246696035,0.05380742445239394
17.052092511013218,0.08379866890682218
17.08546255506608,0.12257819571716082
17.118832599118942,0.15893094364156096
17.152202643171808,0.17823259214444095
17.18557268722467,0.1689020953109141
