Frequency (Hz),Amplitude
0.0,1.5240761359170754
0.019801980198019802,1.5242444651531744
0.039603960396039604,1.5247487013788277
0.0594059405940594,1.5255865949892042
0.07920792079207921,1.5267544127231716
0.09900990099009901,1.5282469615613978
0.1188118811881188,1.5300576217455688
0.13861386138613863,1.5321783884940297
0.15841584158415842,1.534599921885801
0.1782178217821782,1.5373116042960846
0.19801980198019803,1.540301604689995
0.21782178217821782,1.5435569490229912
0.2376237623762376,1.5470635959528165
0.25742574257425743,1.5508065170424015
0.27722772277227725,1.5547697806229044
0.297029702970297,1.5589366384919014
0.31683168316831684,1.5632896146409936
0.33663366336633666,1.567810595239617
0.3564356435643564,1.572480919143925
0.37623762376237624,1.5772814682515974
0.39603960396039606,1.582192757080745
0.4158415841584158,1.5871950210144044
0.43564356435643564,1.5922683027169409
0.45544554455445546,1.5973925362957315
0.4752475247524752,1.6025476288471496
0.495049504950495,1.6077135390902255
0.5148514851485149,1.612870352852601
0.5346534653465347,1.617998355230711
0.5544554455445545,1.6230780992993488
0.5742574257425742,1.6280904712933766
0.594059405940594,1.6330167522275731
0.613861386138614,1.6378386759578416
0.6336633663366337,1.6425384837192305
0.6534653465346534,1.6470989752035419
0.6732673267326733,1.6515035562611662
0.6930693069306931,1.655736283329655
0.7128712871287128,1.6597819047047546
0.7326732673267327,1.6636258987791988
0.7524752475247525,1.667254509380487
0.7722772277227723,1.6706547783417787
0.7920792079207921,1.6738145754402498
0.8118811881188118,1.6767226258350472
0.8316831683168316,1.6793685351325882
0.8514851485148516,1.6817428122011047
0.8712871287128713,1.6838368898487288
0.891089108910891,1.6856431434706771
0.9108910891089109,1.6871549077613208
0.9306930693069307,1.6883664915761956
0.9504950495049505,1.6892731910177026
0.9702970297029703,1.689871300806174
0.99009900990099,1.6901581239854921
1.00990099009901,1.6901319799994405
1.0297029702970297,1.6897922111617842
1.0495049504950495,1.6891391875292279
1.0693069306930694,1.688174310172683
1.0891089108910892,1.6869000128278273
1.108910891089109,1.6853197618917635
1.1287128712871286,1.6834380547177719
1.1485148514851484,1.6812604161454778
1.1683168316831685,1.6787933931889536
1.188118811881188,1.676044547790124
1.2079207920792079,1.6730224475303836
1.227722772277228,1.6697366541782486
1.2475247524752475,1.6661977099369216
1.2673267326732673,1.6624171212414385
1.2871287128712872,1.6584073399422137
1.3069306930693068,1.6541817416995148
1.3267326732673268,1.649754601402576
1.3465346534653466,1.645141065417917
1.3663366336633662,1.6403571204644494
1.3861386138613863,1.6354195589081124
1.405940594059406,1.6303459402678386
1.4257425742574257,1.6251545487264283
1.4455445544554455,1.6198643464466518
1.4653465346534653,1.6144949225042915
1.4851485148514851,1.6090664372667054
1.504950495049505,1.6035995620687293
1.5247524752475248,1.5981154140677467
1.5445544554455446,1.5926354861968977
1.5643564356435644,1.5871815721808824
1.5841584158415842,1.5817756866315227
1.6039603960396038,1.576439980302175
1.6237623762376237,1.5711966506492043
1.6435643564356437,1.5660678479263608
1.6633663366336633,1.56107557712176
1.683168316831683,1.5562415961378249
1.7029702970297032,1.5515873107089688
1.7227722772277227,1.5471336666496334
1.7425742574257426,1.5429010401231456
1.7623762376237624,1.5389091267179904
1.782178217821782,1.5351768302093494
1.801980198019802,1.5317221519668676
1.8217821782178218,1.5285620820417272
1.8415841584158414,1.5257124930238892
1.8613861386138615,1.5231880378004012
1.881188118811881,1.521002052365767
1.900990099009901,1.5191664648327576
1.920792079207921,1.517691711765051
1.9405940594059405,1.516586662900915
1.9603960396039604,1.5158585552597295
1.98019801980198,1.5155129375207652
2.0,1.515553625438954
2.01980198019802,1.5159826689172764
2.0396039603960396,1.516800331193876
2.0594059405940595,1.5180050804283367
2.0792079207920793,1.51959359379025
2.099009900990099,1.5215607739697126
2.118811881188119,1.5238997778488756
2.1386138613861387,1.526602056901053
2.1584158415841586,1.5296574087239283
2.1782178217821784,1.5330540389707794
2.1980198019801978,1.5367786328203479
2.217821782178218,1.5408164350266251
2.237623762376238,1.5451513375137498
2.257425742574257,1.5497659734310005
2.2772277227722775,1.5546418165568536
2.297029702970297,1.5597592849390989
2.3168316831683167,1.5650978476777355
2.336633663366337,1.5706361337966785
2.3564356435643563,1.5763520422064006
2.376237623762376,1.5822228518293524
2.3960396039603964,1.5882253310402983
2.4158415841584158,1.5943358456616343
2.4356435643564356,1.600530464845729
2.455445544554456,1.6067850642706678
2.4752475247524752,1.613075426168736
2.495049504950495,1.6193773357978993
2.514851485148515,1.625666674052389
2.5346534653465347,1.6319195059889602
2.5544554455445545,1.6381121651190893
2.5742574257425743,1.6442213333833697
2.594059405940594,1.6502241167830831
2.6138613861386135,1.65609811669455
2.633663366336634,1.6618214969348586
2.6534653465346536,1.6673730466832324
2.673267326732673,1.6727322393911852
2.6930693069306932,1.677879287836449
2.712871287128713,1.6827951954925602
2.7326732673267324,1.6874618043967686
2.7524752475247527,1.6918618397054985
2.7722772277227725,1.6959789511290337
2.792079207920792,1.699797751435782
2.811881188118812,1.7033038522125854
2.8316831683168315,1.706483897060529
2.8514851485148514,1.7093255923971566
2.8712871287128716,1.7118177360251496
2.891089108910891,1.713950243615764
2.910891089108911,1.715714173241692
2.9306930693069306,1.71710174808004
2.9504950495049505,1.7181063773907381
2.9702970297029703,1.7187226758599017
2.99009900990099,1.7189464813810402
3.00990099009901,1.7187748713297006
3.0297029702970297,1.7182061773692494
3.0495049504950495,1.7172399988069942
3.0693069306930694,1.715877214500255
3.089108910891089,1.7141199932922424
3.108910891089109,1.7119718029361863
3.128712871287129,1.7094374174447167
3.148514851485148,1.7065229227779988
3.1683168316831685,1.7032357207605613
3.1881188118811883,1.6995845310912279
3.2079207920792077,1.6955793912844213
3.227722772277228,1.691231654353375
3.2475247524752473,1.6865539840173827
3.267326732673267,1.681560347185391
3.2871287128712874,1.6762660034380426
3.3069306930693068,1.6706874911990974
3.3267326732673266,1.664842610256415
3.346534653465347,1.658750400261788
3.366336633663366,1.6524311148094375
3.386138613861386,1.6459061906651955
3.4059405940594063,1.639198211693629
3.4257425742574257,1.6323308670092487
3.4455445544554455,1.6253289028629911
3.4653465346534653,1.6182180677660325
3.485148514851485,1.6110250503539987
3.504950495049505,1.6037774095048218
3.5247524752475248,1.596503496247663
3.5445544554455446,1.5892323670382402
3.564356435643564,1.5819936880313255
3.5841584158415842,1.5748176300552243
3.603960396039604,1.5677347540877746
3.6237623762376234,1.5607758871500117
3.6435643564356437,1.553971988673404
3.6633663366336635,1.5473540075588623
3.683168316831683,1.5409527303307045
3.702970297029703,1.534798620993629
3.722772277227723,1.528921653423284
3.7425742574257423,1.5233511373559834
3.762376237623762,1.5181155392856789
3.7821782178217824,1.5132422998180517
3.801980198019802,1.5087576492655872
3.8217821782178216,1.5046864234829493
3.841584158415842,1.5010518821300103
3.8613861386138613,1.4978755316997503
3.881188118811881,1.4951769557500867
3.9009900990099013,1.4929736548243993
3.9207920792079207,1.4912808985270154
3.9405940594059405,1.490111592133342
3.96039603960396,1.489476159957069
3.98019801980198,1.4893824474700124
4.0,1.489835643878897
4.01980198019802,1.4908382265145756
4.03960396039604,1.4923899279948842
4.0594059405940595,1.494487726694639
4.079207920792079,1.4971258606120101
4.099009900990099,1.5002958642744675
4.118811881188119,1.5039866278970841
4.138613861386139,1.5081844776054256
4.158415841584159,1.5128732751792593
4.178217821782178,1.5180345354719262
4.198019801980198,1.523647559421954
4.217821782178218,1.529689580402954
4.237623762376238,1.5361359215566401
4.257425742574258,1.5429601617196242
4.2772277227722775,1.5501343075838556
4.297029702970297,1.557628969815635
4.316831683168317,1.565413540991274
4.336633663366336,1.5734563733786886
4.356435643564357,1.5817249547943864
4.376237623762377,1.590186080984093
4.3960396039603955,1.598806023203932
4.415841584158416,1.6075506899094731
4.435643564356436,1.6163857816846208
4.455445544554455,1.625276938756406
4.475247524752476,1.634189880639684
4.4950495049504955,1.6430905376357265
4.514851485148514,1.6519451740676498
4.534653465346535,1.6607205032733436
4.554455445544555,1.6693837944931365
4.574257425742574,1.6779029718846525
4.594059405940594,1.686246705973695
4.613861386138614,1.6943844979079563
4.633663366336633,1.702286756922488
4.653465346534653,1.70992487145373
4.673267326732674,1.7172712743544931
4.693069306930693,1.724299502667916
4.712871287128713,1.7309842524150854
4.732673267326733,1.7373014288411164
4.752475247524752,1.7432281925493205
4.772277227722772,1.748743001933474
4.792079207920793,1.7538256522959652
4.811881188118812,1.7584573120152311
4.8316831683168315,1.7626205561000448
4.851485148514852,1.7662993974421062
4.871287128712871,1.7694793160515319
4.891089108910891,1.7721472865336427
4.910891089108912,1.7742918040390878
4.930693069306931,1.7759029088937883
4.9504950495049505,1.7769722100896566
4.97029702970297,1.777492907792551
4.99009900990099,1.7774598149988217
5.00990099009901,1.7768693784476288
5.02970297029703,1.775719698871228
5.0495049504950495,1.7740105506402084
5.069306930693069,1.7717434008347666
5.089108910891089,1.768921427745532
5.108910891089109,1.7655495387789457
5.128712871287129,1.7616343877107794
5.148514851485149,1.7571843911981835
5.1683168316831685,1.7522097444237972
5.188118811881188,1.7467224357052424
5.207920792079208,1.7407362598589013
5.227722772277227,1.7342668300578858
5.247524752475248,1.72733158786976
5.267326732673268,1.7199498110998988
5.2871287128712865,1.7121426190004057
5.306930693069307,1.7039329743328497
5.326732673267327,1.6953456816946144
5.346534653465346,1.6864073814345903
5.366336633663367,1.6771465383943305
5.3861386138613865,1.667593424616038
5.405940594059405,1.6577800950615091
5.425742574257426,1.6477403552869307
5.445544554455446,1.63750971992099
5.465346534653465,1.6271253607011016
5.485148514851486,1.6166260427392252
5.504950495049505,1.6060520476199993
5.524752475247524,1.5954450818866461
5.544554455445545,1.5848481694511038
5.564356435643565,1.5743055264833885
5.584158415841584,1.5638624173995999
5.603960396039604,1.5535649906889522
5.623762376237624,1.5434600935063083
5.643564356435643,1.5335950642179488
5.663366336633663,1.5240175024316214
5.683168316831684,1.5147750164728446
5.702970297029703,1.5059149487895664
5.7227722772277225,1.4974840803739016
5.742574257425743,1.4895283159736448
5.762376237623762,1.4820923526130731
5.782178217821782,1.4752193347290694
5.801980198019803,1.468950500024814
5.821782178217822,1.4633248209133611
5.841584158415841,1.4583786471238989
5.861386138613861,1.4541453556302313
5.881188118811881,1.4506550144870682
5.900990099009901,1.4479340673838275
5.920792079207921,1.4460050457118503
5.9405940594059405,1.4448863146657225
5.96039603960396,1.4445918593538356
5.98019801980198,1.4451311160840992
6.0,1.4465088529453083
6.01980198019802,1.448725102563177
6.03960396039604,1.4517751485334214
6.0594059405940595,1.4556495655865624
6.079207920792079,1.460334312097545
6.099009900990099,1.4658108721867997
6.118811881188119,1.4720564434378165
6.138613861386139,1.4790441652310686
6.158415841584159,1.4867433819084956
6.178217821782178,1.495119934455985
6.198019801980198,1.5041364741307919
6.217821782178218,1.5137527914535198
6.237623762376237,1.5239261542061535
6.257425742574258,1.5346116484917862
6.2772277227722775,1.5457625174780678
6.297029702970296,1.557330493118719
6.316831683168317,1.5692661168833388
6.336633663366337,1.5815190462844375
6.356435643564356,1.5940383447382083
6.376237623762377,1.6067727530032465
6.396039603960396,1.6196709410898442
6.415841584158415,1.6326817401060307
6.435643564356436,1.6457543539993686
6.455445544554456,1.658838551561718
6.475247524752475,1.67188483939091
6.495049504950495,1.6848446167526845
6.514851485148515,1.6976703134663704
6.534653465346534,1.7103155120565503
6.554455445544554,1.7227350554796717
6.574257425742575,1.7348851417583082
6.594059405940594,1.7467234068450253
6.6138613861386135,1.7582089970002894
6.633663366336634,1.769302631911862
6.653465346534653,1.7799666597120476
6.673267326732673,1.790165104970028
6.693069306930694,1.799863710652052
6.712871287128713,1.809029974957146
6.732673267326732,1.8176331838514908
6.752475247524753,1.8256444400438936
6.772277227722772,1.833036689067619
6.792079207920792,1.839784743062686
6.811881188118813,1.8458653027867669
6.8316831683168315,1.8512569783232906
6.851485148514851,1.8559403089013808
6.871287128712871,1.8598977821942695
6.891089108910891,1.8631138534202467
6.910891089108911,1.8655749645326087
6.930693069306931,1.8672695637517471
6.9504950495049505,1.8681881256638957
6.97029702970297,1.868323172084656
6.99009900990099,1.8676692938628014
7.00990099009901,1.8662231737788275
7.02970297029703,1.8639836106727914
7.0495049504950495,1.8609515449172054
7.069306930693069,1.8571300853311992
7.089108910891089,1.8525245376117236
7.108910891089109,1.847142434335074
7.128712871287128,1.8409935665557076
7.148514851485149,1.8340900169997458
7.1683168316831685,1.8264461948135924
7.188118811881187,1.8180788717853786
7.207920792079208,1.8090072199039997
7.227722772277228,1.7992528500572786
7.247524752475247,1.7888398515941246
7.267326732673268,1.7777948323840085
7.287128712871287,1.7661469588967786
7.306930693069306,1.753927995696098
7.326732673267327,1.7411723435856676
7.346534653465347,1.7279170754680826
7.366336633663366,1.7142019687676306
7.3861386138613865,1.7000695330293085
7.405940594059406,1.6855650310349097
7.425742574257425,1.670736491472502
7.445544554455446,1.6556347108596634
7.465346534653466,1.6403132420558422
7.485148514851485,1.624828366312092
7.504950495049505,1.6092390454060232
7.524752475247524,1.5936068500114444
7.544554455445544,1.5779958600747568
7.564356435643565,1.5624725326411173
7.584158415841584,1.547105532324961
7.603960396039604,1.5319655194935684
7.623762376237624,1.5171248912756221
7.643564356435643,1.5026574707729998
7.663366336633663,1.488638140399418
7.683168316831684,1.4751424161489957
7.702970297029703,1.4622459608597445
7.7227722772277225,1.4500240362150483
7.742574257425743,1.4385508953310986
7.762376237623762,1.4278991202872748
7.782178217821782,1.4181389118068974
7.801980198019803,1.4093373413735715
7.821782178217822,1.4015575792124229
7.841584158415841,1.3948581145634122
7.861386138613862,1.3892919872809284
7.881188118811881,1.3849060517458005
7.900990099009901,1.38174029512203
7.92079207920792,1.3798272319214175
7.9405940594059405,1.3791913955211115
7.96039603960396,1.3798489446822115
7.980198019801979,1.381807399330121
8.0,1.3850655150906614
8.01980198019802,1.3896133006464209
8.03960396039604,1.395432176274955
8.05940594059406,1.4024952663752412
8.07920792079208,1.4107678137822586
8.099009900990099,1.4202076995497077
8.118811881188119,1.4307660488870952
8.138613861386139,1.4423879021901982
8.158415841584159,1.4550129296048901
8.178217821782178,1.4685761682069907
8.198019801980198,1.4830087624789732
8.217821782178218,1.4982386910798176
8.237623762376238,1.5141914656822917
8.257425742574258,1.530790790646191
8.277227722772277,1.5479591752910522
8.297029702970297,1.56561849335655
8.316831683168317,1.5836904867695638
8.336633663366337,1.602097212998701
8.356435643564357,1.6207614370375363
8.376237623762377,1.6396069704160383
8.396039603960396,1.658558960623428
8.415841584158416,1.67754413497484
8.435643564356436,1.6964910033202665
8.455445544554456,1.7153300241302543
8.475247524752476,1.7339937384494992
8.495049504950495,1.7524168760343048
8.514851485148515,1.7705364377233717
8.534653465346535,1.7882917577669784
8.554455445544555,1.8056245494849898
8.574257425742575,1.8224789372601409
8.594059405940595,1.8388014775147086
8.613861386138613,1.8545411709773882
8.633663366336634,1.8696494682297644
8.653465346534654,1.8840802702323751
8.673267326732672,1.8977899252709556
8.693069306930694,1.9107372235343465
8.712871287128714,1.9228833903357043
8.732673267326732,1.9341920788169054
8.752475247524753,1.9446293628294606
8.772277227722773,1.9541637305627015
8.792079207920791,1.9627660793878206
8.811881188118813,1.970409712303499
8.831683168316832,1.977070336301914
8.85148514851485,1.982726062921784
8.871287128712872,1.9873574112153831
8.891089108910892,1.9909473133276898
8.91089108910891,1.9934811228663654
8.930693069306932,1.9949466262299558
8.950495049504951,1.9953340570572995
8.97029702970297,1.9946361139625968
8.990099009900991,1.9928479817268363
9.00990099009901,1.989967356126969
9.029702970297029,1.9859944725975758
9.04950495049505,1.9809321389361154
9.06930693069307,1.974785772280248
9.089108910891088,1.967563440604123
9.10891089108911,1.9592759089981127
9.12871287128713,1.9499366910124545
9.148514851485148,1.9395621053580043
9.16831683168317,1.9281713382646686
9.188118811881187,1.9157865117980182
9.207920792079207,1.9024327584239749
9.227722772277229,1.8881383020869134
9.247524752475247,1.872934546023148
9.267326732673267,1.8568561674645852
9.287128712871288,1.8399412192891624
9.306930693069306,1.8222312385376043
9.326732673267326,1.8037713615300375
9.346534653465348,1.7846104450696592
9.366336633663366,1.7648011929000211
9.386138613861386,1.7444002861723056
9.405940594059407,1.7234685161611207
9.425742574257425,1.702070916823244
9.445544554455445,1.6802768940030703
9.465346534653467,1.6581603471318511
9.485148514851485,1.6357997781282367
9.504950495049505,1.6132783808736626
9.524752475247526,1.5906841031055199
9.544554455445544,1.5681096708582303
9.564356435643564,1.5456525637225242
9.584158415841586,1.5234149272549324
9.603960396039604,1.5015034069616882
9.623762376237623,1.4800288865645628
9.643564356435645,1.4591061119521638
9.663366336633663,1.4388531816143089
9.683168316831683,1.4193908847968935
9.702970297029704,1.4008418704914607
9.722772277227723,1.3833296340912007
9.742574257425742,1.366977314462049
9.762376237623764,1.3519063025304052
9.782178217821782,1.3382346732972903
9.801980198019802,1.326075466150948
9.821782178217823,1.315534852761392
9.841584158415841,1.3067102465517626
9.861386138613861,1.2996884211976625
9.881188118811881,1.2945437159898519
9.900990099009901,1.2913364113717956
9.92079207920792,1.2901113570121774
9.94059405940594,1.290896926530059
9.96039603960396,1.293704357537058
9.98019801980198,1.2985275141360597
10.0,1.3053430835353184
10.01980198019802,1.3141111917741566
10.03960396039604,1.3247763986833143
10.05940594059406,1.3372690117677979
10.07920792079208,1.3515066446017074
10.099009900990099,1.3673959384491776
10.118811881188119,1.3848343660244802
10.138613861386139,1.4037120425541896
10.158415841584159,1.4239134800162705
10.178217821782178,1.4453192337901961
10.198019801980198,1.4678074052242047
10.217821782178218,1.4912549773763546
10.237623762376238,1.515538973389883
10.257425742574258,1.54053743702196
10.277227722772277,1.5661302425360923
10.297029702970297,1.5921997465556355
10.316831683168317,1.618631297813424
10.336633663366337,1.645313622373473
10.356435643564357,1.672139102230082
10.376237623762377,1.6990039645731694
10.396039603960396,1.725808397766333
10.415841584158416,1.752456608477001
10.435643564356436,1.778856832626214
10.455445544554454,1.804921311033235
10.475247524752476,1.8305662389156687
10.495049504950495,1.855711696828287
10.514851485148514,1.8802815692155344
10.534653465346535,1.9042034555250997
10.554455445544555,1.9274085777808052
10.574257425742573,1.9498316876315773
10.594059405940595,1.971410975164158
10.613861386138614,1.9920879811718342
10.633663366336632,2.011807514093359
10.653465346534654,2.030517572456175
10.673267326732674,2.048169273361629
10.693069306930692,2.064716787322293
