Time (s),Filtered Signal
0.0,-0.015142976655801776
0.03337004405286344,0.33016553551350647
0.06674008810572687,0.6880294146837517
0.10011013215859031,1.042368361031698
0.13348017621145375,1.335218977830056
0.16685022026431717,1.4762735673912786
0.20022026431718062,1.3737412472912776
0.23359030837004408,0.9749051689628963
0.2669603524229075,0.29925642784449447
0.3003303964757709,-0.5515771489534814
0.33370044052863435,-1.4145529335170752
0.3670704845814978,-2.111410879095962
0.40044052863436125,-2.50352698854479
0.43381057268722467,-2.5337521192241788
0.46718061674008815,-2.2386225161284137
0.5005506607929515,-1.7272979015721317
0.533920704845815,-1.1379888237757858
0.5672907488986785,-0.59121882782169
0.6006607929515418,-0.15824858398806038
0.6340308370044053,0.14605260464291828
0.6674008810572687,0.348247294122981
0.7007709251101322,0.4901234230804925
0.7341409691629956,0.6043036705248981
0.767511013215859,0.7011580926124297
0.8008810572687225,0.7699687437696559
0.834251101321586,0.7910175837084809
0.8676211453744493,0.7514432199296376
0.9009911894273128,0.657120180426048
0.9343612334801763,0.5351351194215457
0.9677312775330397,0.4256304416848762
1.001101321585903,0.36635204952715683
1.0344713656387665,0.37649242538554767
1.06784140969163,0.4470239456181716
1.1012114537444935,0.5422750481701186
1.134581497797357,0.6128670331928718
1.1679515418502202,0.6151616930809544
1.2013215859030837,0.529222417870151
1.2346916299559472,0.36751061029971177
1.2680616740088106,0.17030401767941203
1.3014317180616741,-0.010347945255990147
1.3348017621145374,-0.13109203291600452
1.3681718061674009,-0.1731124829882078
1.4015418502202643,-0.14661384328535212
1.4349118942731278,-0.08273726993873244
1.4682819383259913,-0.017616555306129253
1.5016519823788548,0.023384664271852068
1.535022026431718,0.033975629738677016
1.5683920704845815,0.024704941345655314
1.601762114537445,0.012433433750850723
1.6351321585903085,0.007551135127186032
1.668502202643172,0.005637477582918679
1.7018722466960352,-0.012185719248852582
1.7352422907488987,-0.07017347401865663
1.7686123348017622,-0.18422418859769657
1.8019823788546256,-0.34992260896947047
1.8353524229074891,-0.5384126940821709
1.8687224669603526,-0.7030422894901969
1.9020925110132159,-0.7949887504767067
1.9354625550660793,-0.7817408951065674
1.9688325991189428,-0.6605084991242905
2.002202643171806,-0.46046849205466295
2.0355726872246698,-0.23256058974522348
2.068942731277533,-0.03105578991628577
2.1023127753303967,0.10532719624957237
2.13568281938326,0.16503449582011895
2.1690528634361232,0.1637767354513578
2.202422907488987,0.13401689535146546
2.23579295154185,0.10915586671485447
2.269162995594714,0.10950016380160384
2.302533039647577,0.13565341115356655
2.3359030837004404,0.17124233669440234
2.369273127753304,0.19276644268259424
2.4026431718061674,0.1816812199992836
2.436013215859031,0.13347759369332854
2.4693832599118943,0.06025335349803854
2.5027533039647576,-0.013882465139098576
2.5361233480176213,-0.062397672830664073
2.5694933920704845,-0.0668684070263893
2.6028634361233483,-0.02411439117795668
2.6362334801762115,0.052966418284454704
2.6696035242290748,0.14110972543814929
2.7029735682819385,0.21638313956474772
2.7363436123348017,0.26357738010976645
2.7697136563876654,0.28112222985902674
2.8030837004405287,0.2793268196048896
2.8364537444933924,0.27276540524693765
2.8698237885462556,0.27045803449637
2.903193832599119,0.26885521381368294
2.9365638766519826,0.25171416933506846
2.969933920704846,0.1978740197867223
3.0033039647577096,0.09393087490848882
3.036674008810573,-0.054193951432568555
3.070044052863436,-0.2171284629237294
3.1034140969162998,-0.3488588984493299
3.136784140969163,-0.4030171691568374
3.1701541850220267,-0.35236779804982793
3.20352422907489,-0.20290809591296344
3.2368942731277532,0.004391918604532011
3.270264317180617,0.20605268845131744
3.30363436123348,0.33819523365235865
3.337004405286344,0.3592198853339828
3.370374449339207,0.26372561150470125
3.4037444933920704,0.08255233918041581
3.437114537444934,-0.12978718734670036
3.4704845814977974,-0.3139278987570361
3.503854625550661,-0.4230757986064454
3.5372246696035243,-0.4339002622101494
3.5705947136563876,-0.3497806034656286
3.6039647577092513,-0.19802530700463322
3.6373348017621145,-0.022928203430789787
3.6707048458149782,0.12460904857518044
3.7040748898678415,0.20045700679093376
3.737444933920705,0.18146518667225867
3.7708149779735685,0.07561750537677765
3.8041850220264317,-0.07771669502894588
3.8375550660792954,-0.22046110959308102
3.8709251101321587,-0.2983615524617373
3.9042951541850224,-0.284177678844351
3.9376651982378856,-0.1902741800830315
3.971035242290749,-0.0633579103565164
4.004405286343612,0.037342362712463446
4.037775330396476,0.06852013974696612
4.0711453744493395,0.024001066722713214
4.104515418502203,-0.06202056436198253
4.137885462555066,-0.13175543683798743
4.171255506607929,-0.13275075102439182
4.2046255506607935,-0.045008655197405205
4.237995594713657,0.10700595859629665
4.27136563876652,0.263620909214301
4.304735682819383,0.3564655740639422
4.3381057268722465,0.339954855102098
4.371475770925111,0.21307952344718836
4.404845814977974,0.021424879655929287
4.438215859030837,-0.16138457897471134
4.4715859030837,-0.26416721489045897
4.504955947136564,-0.24679439936483397
4.538325991189428,-0.11454427532702831
4.571696035242291,0.08715223279493166
4.605066079295154,0.2938379346304889
4.638436123348018,0.4485103686590409
4.671806167400881,0.5214973847194643
4.705176211453745,0.5159917522935289
4.738546255506608,0.4589612849501835
4.7719162995594715,0.3839364712758077
4.805286343612335,0.3149876091356072
4.838656387665198,0.25902657877840934
4.872026431718062,0.20812124846301308
4.905396475770925,0.1481342731139792
4.938766519823789,0.06765486320060726
4.972136563876652,-0.03726144476536637
5.005506607929515,-0.16322472920963266
5.038876651982379,-0.302005328386466
5.072246696035243,-0.4423791216453237
5.105616740088106,-0.5703580538038068
5.138986784140969,-0.6693753512519992
5.172356828193832,-0.722740076309573
5.2057268722466965,-0.7189317070920612
5.23909691629956,-0.6574607992414275
5.272466960352423,-0.5514414609502627
5.305837004405286,-0.4242137121718553
5.3392070484581495,-0.30079668234545304
5.372577092511014,-0.19839909810984643
5.405947136563877,-0.12121687594439509
5.43931718061674,-0.06237284859271296
5.4726872246696034,-0.011427212443402484
5.506057268722468,0.037737145916122566
5.539427312775331,0.08412601491104844
5.572797356828194,0.12388837532764857
5.606167400881057,0.15839119515137517
5.639537444933921,0.19959640488076208
5.672907488986785,0.26734648254713494
5.706277533039648,0.3783813776796405
5.739647577092511,0.5329598364201134
5.7730176211453745,0.7076898474741178
5.806387665198238,0.8603848086031874
5.839757709251102,0.9458603912403052
5.873127753303965,0.9348093190256327
5.9064977973568284,0.8255817971695713
5.939867841409692,0.6424815535441392
5.973237885462555,0.42189322875588986
6.006607929515419,0.1945577490692911
6.039977973568282,-0.025636363145110884
6.073348017621146,-0.24014931618671842
6.106718061674009,-0.4532919943237444
6.140088105726872,-0.657348534255633
6.173458149779736,-0.8256249810780035
6.2068281938325995,-0.9191261476523135
6.240198237885463,-0.9043551126300235
6.273568281938326,-0.7727746749604386
6.306938325991189,-0.5508770267215399
6.3403083700440535,-0.2945017859749092
6.373678414096917,-0.0692865761856166
6.40704845814978,0.07373244203381993
6.440418502202643,0.11611496086421565
6.4737885462555065,0.07585047188319137
6.507158590308371,-0.0037286833180052163
6.540528634361234,-0.07396270025334135
6.573898678414097,-0.10044641910368433
6.60726872246696,-0.07399577690655998
6.640638766519824,-0.009519829059635663
6.674008810572688,0.06492954840381275
6.707378854625551,0.12257312491006359
6.740748898678414,0.14874792327943567
6.774118942731278,0.14389057518856335
6.807488986784141,0.11890751653146375
6.840859030837005,0.08704454464535581
6.874229074889868,0.057562491438337395
6.9075991189427315,0.034570717465740974
6.940969162995595,0.020581457445608707
6.974339207048458,0.021088368943829917
7.007709251101322,0.045758898205846214
7.041079295154185,0.10411537605618582
7.074449339207049,0.19747022670058328
7.107819383259912,0.3119733298058332
7.141189427312775,0.41795000523348363
7.174559471365639,0.47786726390338197
7.207929515418503,0.4606780290852362
7.241299559471366,0.3563988262421053
7.274669603524229,0.1837481300302342
7.308039647577092,-0.013732137158534979
7.3414096916299565,-0.1825216615631318
7.37477973568282,-0.2791533161932234
7.408149779735683,-0.28688461130603965
7.441519823788546,-0.22159213966923333
7.47488986784141,-0.1241083010099454
7.508259911894274,-0.04231157580657462
7.541629955947137,-0.01101382666013531
7.575,-0.0387492137064614
7.608370044052863,-0.1073003667998375
7.641740088105728,-0.18365434670167036
7.675110132158591,-0.2380382164243312
7.708480176211454,-0.258768119446399
7.741850220264317,-0.2563701089605859
7.775220264317181,-0.2549971225825491
7.808590308370045,-0.2758276242055865
7.841960352422908,-0.32150951214183837
7.875330396475771,-0.37045915577886973
7.9087004405286345,-0.38486843422354716
7.942070484581498,-0.3290149924720625
7.975440528634362,-0.18870944413893379
8.008810572687224,0.018326943754203004
8.042180616740088,0.24691202461890083
8.075550660792953,0.44183084037895004
8.108920704845815,0.5598216010200213
8.142290748898679,0.5857208410474579
8.175660792951541,0.5357837505900204
8.209030837004406,0.4477604518930532
8.24240088105727,0.3633417252879876
8.275770925110132,0.3111997712720569
8.309140969162996,0.2973546915723195
8.342511013215859,0.30545693185157274
8.375881057268723,0.30522389412577583
8.409251101321587,0.26468067482506435
8.44262114537445,0.1616602459745561
8.475991189427313,-0.008491126338005682
8.509361233480176,-0.23019933430229467
8.54273127753304,-0.4699025299187973
8.576101321585904,-0.6827152771943075
8.609471365638766,-0.8226169899989069
8.64284140969163,-0.8544102052595233
8.676211453744493,-0.7644535876386819
8.709581497797357,-0.5664391063319295
8.742951541850221,-0.2992795408691305
8.776321585903084,-0.016762460281431444
8.809691629955948,0.22794207319560292
8.84306167400881,0.3973225328936759
8.876431718061674,0.47843916960907956
8.909801762114538,0.4826251851483667
8.9431718061674,0.43688866229431167
8.976541850220265,0.37130462811624143
9.009911894273127,0.30785882999757835
9.043281938325991,0.25486289146936053
9.076651982378856,0.20816291472582243
9.110022026431718,0.15743955040766017
9.143392070484582,0.0941865082631745
9.176762114537445,0.01788294401752687
9.210132158590309,-0.0619265750952967
9.243502202643173,-0.1282124103626559
9.276872246696035,-0.16268503470708404
9.3102422907489,-0.153533009850181
9.343612334801762,-0.10198534493170516
9.376982378854626,-0.025085660620314528
9.41035242290749,0.04708724460647192
9.443722466960352,0.07984567900927422
9.477092511013216,0.045864049830748876
9.510462555066079,-0.06334561462834924
9.543832599118943,-0.23114431261499335
9.577202643171807,-0.4179992150123301
9.61057268722467,-0.5724066961685194
9.643942731277534,-0.6469631929126066
9.677312775330396,-0.6136221275010849
9.71068281938326,-0.4723942531063423
9.744052863436124,-0.25058285179969825
9.777422907488987,0.006379403106822902
9.81079295154185,0.24835871889018585
9.844162995594713,0.4332940573446912
9.877533039647577,0.5358172005944641
9.910903083700441,0.550570302420129
9.944273127753304,0.4908894275486944
9.977643171806168,0.38414478150647435
10.01101321585903,0.26484299707011355
10.044383259911895,0.16645382434561692
10.077753303964759,0.11329190643803007
10.111123348017621,0.11437323895490668
10.144493392070485,0.1612560258185957
10.177863436123348,0.23098331864156435
10.211233480176212,0.2935439982922108
10.244603524229076,0.32150404040761127
10.277973568281938,0.2985025424306511
10.311343612334802,0.22367209104225547
10.344713656387665,0.11062033092074029
10.378083700440529,-0.018286834940595693
10.411453744493393,-0.13988860623581342
10.444823788546255,-0.23736142942122698
10.47819383259912,-0.30406483658889577
10.511563876651982,-0.3431601655315582
10.544933920704846,-0.3638198547055265
10.57830396475771,-0.37614933156776426
10.611674008810573,-0.38723573053704996
10.645044052863437,-0.39983505551374193
10.678414096916299,-0.4135290358440733
10.711784140969163,-0.4266773613101932
10.745154185022027,-0.43713741821840507
10.77852422907489,-0.4408463060222034
10.811894273127754,-0.42931333255863313
10.845264317180618,-0.38856765282590594
10.87863436123348,-0.30199120565076915
10.912004405286345,-0.1574733138168328
10.945374449339207,0.043631002216298585
10.978744493392071,0.28042980251137783
11.012114537444935,0.5137778056871921
11.045484581497798,0.6963599433781203
11.078854625550662,0.7885079961098289
11.112224669603524,0.7731334585868412
11.145594713656388,0.6627506989419635
11.178964757709252,0.4948391848703805
11.212334801762115,0.3172395298826302
11.245704845814979,0.1701029092423577
11.279074889867841,0.07255284040718762
11.312444933920705,0.019755474510641545
11.34581497797357,-0.009185194490771901
11.379185022026432,-0.037371787885752746
11.412555066079296,-0.07767419201372855
11.445925110132158,-0.12765668493280224
11.479295154185023,-0.17347619799234365
11.512665198237887,-0.1995969454269108
11.546035242290749,-0.19849974995076838
11.579405286343613,-0.17515734759610985
11.612775330396476,-0.14426654493833663
11.64614537444934,-0.12218155243545459
11.679515418502204,-0.11812960183706007
11.712885462555066,-0.129421657668395
11.74625550660793,-0.1431368458378085
11.779625550660793,-0.14340727723101132
11.812995594713657,-0.12061342737576962
11.846365638766521,-0.07778778642393412
11.879735682819383,-0.030710844328933826
11.913105726872248,-0.0010493162590517562
11.94647577092511,-0.00527028551051707
11.979845814977974,-0.04453571884019252
12.013215859030838,-0.10106847245278563
12.0465859030837,-0.14401653224643543
12.079955947136565,-0.14329339004439007
12.113325991189427,-0.08523851713014537
12.146696035242291,0.01816215322434011
12.180066079295155,0.13253337921675068
12.213436123348018,0.21675218406170577
12.246806167400882,0.24378629057545131
12.280176211453744,0.21561274535150574
12.313546255506608,0.16319160036298141
12.346916299559473,0.1301132994892257
12.380286343612335,0.14779163484303257
12.413656387665199,0.21559833144568755
12.447026431718061,0.29755306415085897
12.480396475770926,0.33860152648377223
12.51376651982379,0.2927172209552139
12.547136563876652,0.14819111545191763
12.580506607929516,-0.0634177678988264
12.613876651982379,-0.2796507447295666
12.647246696035243,-0.4346560832000337
12.680616740088107,-0.4880259828561079
12.71398678414097,-0.4409411149901786
12.747356828193833,-0.33246550288054116
12.780726872246696,-0.2188461515941067
12.81409691629956,-0.14667067948552198
12.847466960352424,-0.1329729062125426
12.880837004405286,-0.16115295041991118
12.91420704845815,-0.1933335488923031
12.947577092511013,-0.19173696959162914
12.980947136563877,-0.13776406607103434
13.014317180616741,-0.03944137893561137
13.047687224669604,0.07546345411082987
13.081057268722468,0.17567563030856648
13.11442731277533,0.2424039279788287
13.147797356828194,0.276364336333639
13.181167400881058,0.2927681351173446
13.21453744493392,0.3082487171175888
13.247907488986785,0.328061677309908
13.281277533039647,0.3412459519066441
13.314647577092511,0.3264591129915037
13.348017621145376,0.2649810759098676
13.381387665198238,0.1534713579722528
13.414757709251102,0.00945959824457578
13.448127753303964,-0.13330269434063485
13.481497797356829,-0.2371699689838076
13.514867841409693,-0.2745981472402242
13.548237885462555,-0.2376599195674156
13.58160792951542,-0.1397604795501171
13.614977973568282,-0.010049565814466812
13.648348017621146,0.11627383354890508
13.68171806167401,0.20796202424708604
13.715088105726872,0.24526721525830683
13.748458149779736,0.22378839407242543
13.781828193832599,0.15441124764753994
13.815198237885463,0.05960669416076931
13.848568281938327,-0.03325955438900074
13.88193832599119,-0.10022330982714646
13.915308370044054,-0.12831525351628317
13.948678414096916,-0.11971119928277488
13.98204845814978,-0.09045276831736619
14.015418502202644,-0.06374949163224726
14.048788546255507,-0.06030589127632172
14.08215859030837,-0.08969363064984986
14.115528634361233,-0.1465257933955995
14.148898678414097,-0.21306943501507492
14.182268722466961,-0.26696934123189575
14.215638766519824,-0.290441940435768
14.249008810572688,-0.2767898443038386
14.28237885462555,-0.2316126576192792
14.315748898678414,-0.16884597167771204
14.349118942731279,-0.10430721213175763
14.382488986784141,-0.05039548554596151
14.415859030837005,-0.014423642040336596
14.449229074889868,-0.0004081145509238652
14.482599118942732,-0.01163171842143816
14.515969162995596,-0.05062895703115152
14.549339207048458,-0.11509466799021018
14.582709251101322,-0.1916296886119614
14.616079295154185,-0.25204340357832306
14.649449339207049,-0.2570352605452936
14.682819383259913,-0.16883619825127977
14.716189427312775,0.03078364908085522
14.74955947136564,0.3250231829910974
14.782929515418502,0.6576842936043119
14.816299559471366,0.9447546383138375
14.84966960352423,1.099893635823714
14.883039647577093,1.0649921647070038
14.916409691629957,0.8336031353591422
14.94977973568282,0.4569407372542441
14.983149779735683,0.028823107944829368
15.016519823788547,-0.3453358399884283
15.04988986784141,-0.5834481225928072
15.083259911894274,-0.6517076422860586
15.116629955947138,-0.5700372884199182
15.15,-0.3971391300758781
15.183370044052865,-0.20314647853079068
15.216740088105727,-0.042693029655597854
15.250110132158591,0.060266611712427795
15.283480176211455,0.11126346870891103
15.316850220264318,0.13136088275018007
15.350220264317182,0.13958752242972045
15.383590308370044,0.14128475891560513
15.416960352422908,0.1275492256548452
15.450330396475772,0.08458805970584543
15.483700440528635,0.006741827369574601
15.517070484581499,-0.09459587837949261
15.550440528634361,-0.19159150211595374
15.583810572687225,-0.2507051032049775
15.61718061674009,-0.2490254996912836
15.650550660792952,-0.18848804531543925
15.683920704845816,-0.10036525934302519
15.717290748898678,-0.03604437129864322
15.750660792951543,-0.0460864474344761
15.784030837004407,-0.15555870965819724
15.817400881057269,-0.3468213974458018
15.850770925110133,-0.5592365728208029
15.884140969162996,-0.7085668879527453
15.91751101321586,-0.7196704110327605
15.950881057268724,-0.558838285649854
15.984251101321586,-0.25088253597481686
16.01762114537445,0.12772998355134182
16.050991189427315,0.4773781188570373
16.084361233480177,0.712807886762349
16.11773127753304,0.7929563632654322
16.151101321585905,0.7305563155682895
16.184471365638768,0.5790569567673849
16.21784140969163,0.40491908193893356
16.251211453744492,0.2591591298726694
16.284581497797358,0.16082074557581488
16.31795154185022,0.09815115921952276
16.351321585903083,0.04443677406076365
16.38469162995595,-0.02109140523568864
16.41806167400881,-0.09840115045009389
16.451431718061674,-0.1652048945499201
16.48480176211454,-0.189260101276841
16.518171806167402,-0.1478884263063709
16.551541850220264,-0.04454698210079713
16.584911894273127,0.08649278098492814
16.618281938325993,0.1908074733659117
16.651651982378855,0.21596663259953197
16.685022026431717,0.13548243176211924
16.718392070484583,-0.036671137388237705
16.751762114537446,-0.24848625352558723
16.785132158590308,-0.42920194338662354
16.818502202643174,-0.5172845518945087
16.851872246696036,-0.484493758352
16.8852422907489,-0.3450855823857107
16.91861233480176,-0.14639778281994192
16.951982378854627,0.05387274061354137
16.98535242290749,0.21220956290461038
17.01872246696035,0.3139814751204283
17.052092511013218,0.3723231280406936
17.08546255506608,0.4134546653509649
17.118832599118942,0.45722568203543845
17.152202643171808,0.5033598999477663
17.18557268722467,0.5302657040716899
17.218942731277533,0.5065023635047556
17.2523127753304,0.408559316313186
