Frequency (Hz),Amplitude
0.0,27.887031148053804
0.019823788546255508,27.884196534822603
0.039647577092511016,27.87570208343601
0.059471365638766524,27.8615759438686
0.07929515418502203,27.84186498278768
0.09911894273127755,27.816634708142793
0.11894273127753305,27.7859691626432
0.13876651982378857,27.749970785176625
0.15859030837004406,27.70876023895661
0.17841409691629956,27.662476204921017
0.1982378854625551,27.61127513864682
0.2180616740088106,27.555330988792637
0.2378854625550661,27.49483487483885
0.25770925110132165,27.42999472166479
0.27753303964757714,27.361034848288213
0.29735682819383263,27.2881955079009
0.31718061674008813,27.21173237616861
0.3370044052863437,27.131915984631426
0.3568281938325991,27.049031095950248
0.37665198237885467,26.96337601770314
0.3964757709251102,26.875261851452134
0.41629955947136565,26.785011673886572
0.4361233480176212,26.692959647012813
0.4559471365638767,26.599450054613563
0.4757709251101322,26.50483626255534
0.49559471365638774,26.409479600985527
0.5154185022026433,26.313748167047837
0.5352422907488987,26.218015547456872
0.5550660792951543,26.122659461121657
0.5748898678414097,26.028060322992392
0.5947136563876653,25.934599731427657
0.6145374449339208,25.842658882633405
0.6343612334801763,25.752616917101072
0.6541850220264318,25.664849204455592
0.6740088105726874,25.579725574690737
0.6938325991189428,25.497608505391902
0.7136563876651982,25.41885127619091
0.7334801762114539,25.343796103318375
0.7533039647577093,25.272772268675247
0.7731277533039648,25.206094259279467
0.7929515418502204,25.144059934206048
0.8127753303964759,25.086948737170776
0.8325991189427313,25.035019973658358
0.8524229074889869,24.98851117191491
0.8722466960352424,24.947636547166635
0.8920704845814978,24.912585588065145
0.9118942731277534,24.883521783566284
0.931718061674009,24.860581507224744
0.9515418502202644,24.84387307423312
0.9713656387665199,24.833475984485613
0.9911894273127755,24.82944036253569
1.0110132158590308,24.83178660260993
1.0308370044052866,24.840505223901822
1.0506607929515421,24.85555693828191
1.0704845814977975,24.876872929413246
1.090308370044053,24.90435533914114
1.1101321585903086,24.937877954026284
1.1299559471365639,24.977287082091397
1.1497797356828194,25.022402607328814
1.1696035242290752,25.073019207332692
1.1894273127753305,25.128907717622962
1.209251101321586,25.18981662484706
1.2290748898678416,25.255473670100805
1.248898678414097,25.32558754309367
1.2687224669603525,25.39984964778687
1.288546255506608,25.477935920420162
1.3083700440528636,25.559508681482008
1.3281938325991192,25.64421850411328
1.3480176211453747,25.73170608262191
1.36784140969163,25.82160408616353
1.3876651982378856,25.913538984161413
1.4074889867841411,26.007132831640895
1.4273127753303965,26.102005004295027
1.4471365638766522,26.197773874729666
1.4669603524229078,26.2940584229278
1.4867841409691631,26.390479775486362
1.5066079295154187,26.486662669594704
1.5264317180616742,26.582236839022155
1.5462555066079295,26.67683832055142
1.5660792951541853,26.77011068032919
1.5859030837004409,26.861706160499487
1.6057268722466962,26.951286747248293
1.6255506607929517,27.038525162015848
1.6453744493392073,27.1231057781401
1.6651982378854626,27.20472546558765
1.6850220264317182,27.283094366715424
1.7048458149779737,27.35793660620252
1.7246696035242293,27.42899093840165
1.7444933920704848,27.496011335402613
1.7643171806167404,27.55876751907528
1.7841409691629957,27.617045440287523
1.8039647577092512,27.670647708374744
1.8237885462555068,27.719393973783802
1.8436123348017623,27.76312126663064
1.863436123348018,27.80168429370445
1.8832599118942732,27.83495569622769
1.9030837004405288,27.862826270440756
1.9229074889867843,27.885205152833038
1.9427312775330399,27.90201997158463
1.9625550660792954,27.913216965520203
1.982378854625551,27.918761071612867
2.002202643171806,27.918635981804208
2.0220264317180616,27.912844169640792
2.041850220264317,27.901406886952675
2.061674008810573,27.884364130531473
2.0814977973568287,27.861774578492465
2.1013215859030843,27.833715495735667
2.1211453744493394,27.800282607651074
2.140969162995595,27.761589940945388
2.1607929515418505,27.717769630203772
2.180616740088106,27.668971688538402
2.2004405286343616,27.615363740422406
2.220264317180617,27.557130714560664
2.2400881057268722,27.494474494416266
2.2599118942731278,27.42761352378966
2.2797356828193833,27.356782364650087
2.299559471365639,27.28223120424286
2.319383259911895,27.20422530835326
2.3392070484581504,27.1230444175013
2.3590308370044055,27.038982082784543
2.378854625550661,26.95234493808037
2.3986784140969166,26.863451905381517
2.418502202643172,26.772633330174145
2.4383259911894277,26.680230043989713
2.4581497797356833,26.586592351580464
2.4779735682819384,26.49207894059389
2.497797356828194,26.397055712164
2.5176211453744495,26.301894531505088
2.537444933920705,26.20697189839437
2.5572687224669606,26.1126675383656
2.577092511013216,26.019362916510705
2.5969162995594717,25.927439676992325
2.6167400881057272,25.837278012705397
2.6365638766519828,25.749254970969016
2.6563876651982383,25.663742702669904
2.676211453744494,25.58110666387923
2.6960352422907494,25.50170378060548
2.715859030837005,25.425880588973083
2.73568281938326,25.35397136469885
2.7555066079295156,25.28629625721687
2.775330396475771,25.223159445126353
2.7951541850220267,25.16484733075351
2.8149779735682823,25.111626792470485
2.834801762114538,25.06374351395152
2.854625550660793,25.02142040972661
2.874449339207049,24.98485616617333
2.8942731277533045,24.95422391645074
2.91409691629956,24.9296700668074
2.9339207048458156,24.911313290196308
2.953744493392071,24.899243701219174
2.9735682819383262,24.893522224143148
2.993392070484582,24.89418016312828
3.0132158590308373,24.9012189809481
3.033039647577093,24.91461028945004
3.0528634361233484,24.934296051874117
3.072687224669604,24.96018899401924
3.092511013215859,24.992173218199845
3.1123348017621146,25.03010501106672
3.1321585903083706,25.07381383374081
3.151982378854626,25.12310348040694
3.1718061674008817,25.17775338957616
3.1916299559471373,25.237520090698027
3.2114537444933924,25.302138767703408
3.231277533039648,25.37132492038911
3.2511013215859035,25.44477610430953
3.270925110132159,25.522173729991657
3.2907488986784146,25.603184902802553
3.31057268722467,25.687464285628188
3.3303964757709252,25.774655967619815
3.350220264317181,25.86439532357349
3.3700440528634363,25.95631084997488
3.389867841409692,26.050025965314486
3.4096916299559474,26.145160763901913
3.4295154185022034,26.241333714044906
3.4493392070484585,26.33816329306145
3.469162995594714,26.435269553133796
3.4889867841409696,26.53227561346253
3.508810572687225,26.6288090755187
3.5286343612334807,26.724503359405368
3.5484581497797363,26.81899896042157
3.5682819383259914,26.911944625866205
3.588105726872247,27.00299845292727
3.6079295154185025,27.09182890917843
3.627753303964758,27.178115777753856
3.6475770925110136,27.261551029706396
3.667400881057269,27.341839626378963
3.6872246696035247,27.418700254846403
3.7070484581497802,27.49186599962822
3.726872246696036,27.561084953937062
3.7466960352422913,27.626120773730246
3.7665198237885464,27.68675317777432
3.7863436123348024,27.74277839683341
3.8061674008810575,27.794009574948525
3.8259911894273135,27.840277125604988
3.8458149779735686,27.881429045385868
3.8656387665198246,27.917331187492866
3.8854625550660797,27.947867497281873
3.905286343612335,27.972940211716157
3.925110132158591,27.992470024386677
3.9449339207048464,28.006396217488803
3.964757709251102,28.014676761881145
3.9845814977973575,28.017288386084147
4.004405286343612,28.014226614808436
4.024229074889869,28.005505777331408
4.044052863436123,27.99115898577033
4.06387665198238,27.971238083029963
4.083700440528634,27.945813559931345
4.103524229074891,27.914974440760012
4.123348017621146,27.878828136203026
4.143171806167401,27.837500262379987
4.162995594713657,27.791134424411112
4.182819383259912,27.73989196270958
4.2026431718061685,27.683951659938238
4.222466960352423,27.62350940633119
4.242290748898679,27.558777820858513
4.262114537444934,27.48998582550683
4.28193832599119,27.417378169764724
4.301762114537445,27.341214902249966
4.321585903083701,27.26177078629729
4.3414096916299565,27.179334656251616
4.361233480176212,27.0942087111897
4.381057268722468,27.00670774283261
4.400881057268723,26.917158294522224
4.420704845814979,26.825897748328032
4.440528634361234,26.73327333763589
4.46035242290749,26.63964108295819
4.4801762114537445,26.545364649208437
4.500000000000001,26.45081412330508
4.5198237885462555,26.356364711724787
4.539647577092512,26.262395358511252
4.559471365638767,26.169287285272247
4.579295154185023,26.077422455853462
4.599118942731278,25.987181969666604
4.618942731277533,25.898944389051305
4.63876651982379,25.813084007551677
4.658590308370044,25.7299690675661
4.678414096916301,25.649959937448372
4.6982378854625555,25.573407259768327
4.718061674008811,25.500650084032287
4.737885462555067,25.43201399867454
4.757709251101322,25.367809278505387
4.777533039647578,25.308329064987266
4.797356828193833,25.253847597652765
4.817180616740089,25.204618515623675
4.837004405286344,25.16087324849616
4.856828193832599,25.122819515777877
4.876651982378855,25.09063995357502
4.896475770925111,25.06449088631187
4.9162995594713665,25.0445012599209
4.936123348017622,25.030771751181717
4.955947136563877,25.023374065745323
4.975770925110133,25.02235043489621
4.995594713656388,25.027713318347722
5.015418502202644,25.03944531740069
5.035242290748899,25.057499299709992
5.055066079295155,25.081798733781607
5.07488986784141,25.112238228255904
5.094713656387666,25.148684268107417
5.114537444933921,25.190976137185437
5.134361233480177,25.238927014108828
5.154185022026432,25.29232522646266
5.174008810572688,25.350935646574392
5.193832599118943,25.41450121089351
5.213656387665199,25.482744544175514
5.2334801762114544,25.55536966927088
5.25330396475771,25.63206378332623
5.2731277533039655,25.71249908158234
5.292951541850221,25.79633461066609
5.312775330396477,25.883218134267647
5.332599118942731,25.972787995320758
5.352422907488988,26.064674960208627
5.372246696035242,26.158504032043954
5.392070484581499,26.25389622167208
5.4118942731277535,26.350470266670378
5.43171806167401,26.44784429022792
5.451541850220265,26.54563739334501
5.47136563876652,26.643471175271543
5.491189427312777,26.740971178477555
5.511013215859031,26.837768255705306
5.530837004405288,26.933499857779193
5.550660792951542,27.027811241841878
5.570484581497798,27.120356600541395
5.5903083700440535,27.21080011341695
5.610132158590309,27.298816922327113
5.6299559471365646,27.384094033239784
5.64977973568282,27.466331147067898
5.669603524229076,27.545241422499963
5.689427312775331,27.620552173947946
5.709251101321586,27.692005507830476
5.729074889867842,27.759358900435796
5.748898678414098,27.822385720573912
5.768722466960353,27.88087570014624
5.788546255506609,27.934635355633365
5.808370044052864,27.98348836334502
5.82819383259912,28.027275891086486
5.848017621145375,28.065856888688415
5.867841409691631,28.09910833961988
5.887665198237886,28.126925475665146
5.907488986784142,28.14922195639517
5.927312775330397,28.165930014907797
5.9471365638766525,28.177000571050403
5.966960352422908,28.18240331307031
5.986784140969164,28.182126748374603
6.00660792951542,28.17617822380807
6.026431718061675,28.164583915590793
6.04625550660793,28.1473887887849
6.066079295154186,28.124656525892213
6.085903083700441,28.096469423912488
6.105726872246697,28.062928258928046
6.125550660792952,28.0241521170117
6.145374449339208,27.980278189996284
6.1651982378854635,27.93146153438532
6.185022026431718,27.877874791435683
6.204845814977975,27.81970786620357
6.224669603524229,27.75716756311756
6.244493392070486,27.690477175432694
6.264317180616741,27.619876025731422
6.284140969162996,27.54561895447563
6.303964757709252,27.467975753486147
6.323788546255507,27.38723054114
6.3436123348017635,27.303681076037424
6.363436123348018,27.217638005911766
6.3832599118942746,27.12942404864362
6.403083700440529,27.039373102406845
6.422907488986785,26.94782928222927
6.44273127753304,26.855145880605765
6.462555066079296,26.76168425026358
6.482378854625551,26.667812607762315
6.502202643171807,26.57390475731842
6.5220264317180625,26.480338735084356
6.541850220264318,26.387495375085308
6.561674008810574,26.295756799125932
6.581497797356829,26.20550483421651
6.601321585903085,26.117119362423036
6.62114537444934,26.03097660950778
6.640969162995596,25.947447380266443
6.6607929515418505,25.866895250066506
6.680616740088107,25.78967472370478
6.700440528634362,25.716129374299065
6.720264317180618,25.64658997645547
6.740088105726873,25.581372649365694
6.759911894273129,25.520777026730144
6.779735682819384,25.465084471420614
6.799559471365639,25.414556353541084
6.819383259911895,25.369432410962432
6.83920704845815,25.32992921146187
6.859030837004407,25.296238735254484
6.8788546255506615,25.26852709594072
6.898678414096917,25.246933416708856
6.918502202643173,25.231568877026206
6.938325991189428,25.222515943058617
6.958149779735684,25.21982779271014
6.977973568281939,25.223527943530417
6.997797356828195,25.233610088864932
7.01762114537445,25.250038144598822
7.037444933920705,25.272746505755965
7.0572687224669615,25.301640509147
7.077092511013216,25.33659709530059
7.096916299559473,25.37746566014512
7.116740088105728,25.42406908440282
7.136563876651983,25.476204926479877
7.156387665198239,25.53364676283128
7.176211453744494,25.596145658379562
7.19603524229075,25.663431748588224
7.215859030837005,25.735215914236548
7.235682819383261,25.81119152979608
7.255506607929516,25.89103626654419
7.275330396475772,25.974413932132084
7.295154185022027,26.060976329203775
7.314977973568283,26.150365116793434
7.334801762114538,26.24221365955335
7.354625550660794,26.336148851334833
7.374449339207049,26.431792901202833
7.394273127753305,26.528765071569083
7.4140969162995605,26.626683359732166
7.433920704845816,26.72516611567806
7.453744493392072,26.823833590493564
7.473568281938327,26.922309411148664
7.493392070484583,27.02022197869898
7.513215859030838,27.117205788127038
7.533039647577093,27.21290266908053
7.552863436123348,27.30696294766889
7.572687224669605,27.399046530251223
7.59251101321586,27.48882391079025
7.612334801762115,27.575977103869008
7.6321585903083715,27.66020050587233
7.651982378854627,27.741201687140144
7.671806167400882,27.818702118109137
7.691629955947137,27.892437832584942
7.711453744493394,27.962160031343704
7.731277533039649,28.02763562925085
7.751101321585904,28.08864774902396
7.7709251101321595,28.14499616465987
7.790748898678416,28.196497697401643
7.81057268722467,28.242986566947007
7.830396475770926,28.284314700400316
7.850220264317182,28.32035200125391
7.870044052863436,28.35098658044998
7.889867841409693,28.376124951331672
7.909691629955948,28.395692190038513
7.929515418502204,28.409632062643507
7.9493392070484585,28.417907120066104
7.969162995594715,28.42049876152963
7.9889867841409705,28.417407267064103
8.008810572687224,28.408651799287018
8.02863436123348,28.394270374425286
8.048458149779737,28.37431980227307
8.068281938325994,28.34887559451155
8.088105726872246,28.318031840550198
8.107929515418503,28.28190104978457
8.12775330396476,28.24061395890351
8.147577092511014,28.1943193026234
8.167400881057269,28.143183545975663
8.187224669603525,28.08739057603414
8.207048458149782,28.02714135073931
8.226872246696036,27.962653502263862
8.246696035242293,27.894160892170984
8.266519823788547,27.821913115450187
8.286343612334802,27.74617495037866
8.306167400881058,27.667225751060638
8.325991189427315,27.585358779445524
8.345814977973568,27.500880473630136
8.365638766519824,27.414109649320103
8.38546255506608,27.32537663146718
8.405286343612337,27.23502231332855
8.42511013215859,27.14339714051515
8.444933920704846,27.05086001802515
8.464757709251103,26.9577771387986
8.484581497797357,26.864520732995288
8.504405286343614,26.77146773798746
8.524229074889869,26.678998389985697
8.544052863436125,26.587494739270767
8.56387665198238,26.497339092190682
8.583700440528636,26.408912384387545
8.60352422907489,26.32259249113104
8.623348017621145,26.238752482136206
8.643171806167402,26.15775882980447
8.662995594713658,26.0799695814199
8.682819383259913,26.00573250741602
8.702643171806168,25.935383239362142
8.722466960352424,25.869243412752045
8.74229074889868,25.807618830960614
8.762114537444935,25.750797667815114
8.78193832599119,25.69904872705312
8.801762114537446,25.65261977746021
8.821585903083701,25.611735982656462
8.841409691629957,25.5765984442935
8.861233480176212,25.54738287681071
8.881057268722468,25.524238430870444
8.900881057268723,25.50728668114727
8.92070484581498,25.496620792307464
8.940528634361234,25.49230487481451
8.960352422907489,25.49437353968356
8.980176211453745,25.5028316585453
9.000000000000002,25.51765433244115
9.019823788546258,25.53878706973703
9.039647577092511,25.566146170499714
9.059471365638768,25.599619311711294
9.079295154185024,25.639066324888958
9.099118942731279,25.68432015510104
9.118942731277533,25.73518798809422
9.13876651982379,25.791452530320985
9.158590308370046,25.852873425119096
9.1784140969163,25.91918878716763
9.198237885462555,25.990116836634016
9.218061674008812,26.065357614124824
9.237885462555067,26.14459475763874
9.257709251101323,26.227497323159444
9.27753303964758,26.313721631280572
9.297356828193834,26.402913123271873
9.317180616740089,26.49470821123026
9.337004405286345,26.588736108353075
9.356828193832602,26.684620626876384
9.376651982378855,26.781981932788163
9.396475770925111,26.880438248010424
9.416299559471367,26.979607492307093
9.436123348017622,27.079108858682577
9.455947136563877,27.178564317462076
9.475770925110133,27.27760004557003
9.49559471365639,27.375847778728915
9.515418502202644,27.472946085383022
9.5352422907489,27.56854156210016
9.555066079295155,27.662289951024544
9.57488986784141,27.7538571806421
9.594713656387666,27.842920331688024
9.614537444933923,27.9291685304769
9.634361233480178,28.012303772280866
9.654185022026432,28.092041677630526
9.674008810572689,28.168112184573765
9.693832599118945,28.240260180014793
9.713656387665198,28.308246073273963
9.733480176211454,28.371846314972103
9.75330396475771,28.430853864256594
9.773127753303967,28.485078607261133
9.792951541850222,28.534347729531433
9.812775330396477,28.578506044963717
9.832599118942733,28.617416283594757
9.852422907488988,28.65095934035921
9.872246696035244,28.67903448669131
9.892070484581499,28.70155954660307
9.911894273127754,28.718471038615256
9.93171806167401,28.729724284659422
9.951541850220266,28.73529348680598
9.971365638766521,28.73517177240826
9.991189427312776,28.72937120798578
10.011013215859032,28.71792278190243
10.030837004405289,28.700876355629006
10.050660792951543,28.67830058311123
10.070484581497798,28.650282797499923
10.090308370044054,28.616928864236804
10.11013215859031,28.57836299922842
10.129955947136565,28.534727550585462
10.14977973568282,28.48618274215576
10.169603524229077,28.43290637683802
10.189427312775331,28.3750934974345
10.209251101321588,28.31295600258626
10.229074889867842,28.246722215140164
10.248898678414099,28.176636400124544
10.268722466960353,28.102958229370568
10.28854625550661,28.02596218971072
10.308370044052865,27.945936931625532
10.32819383259912,27.86318455520056
10.348017621145376,27.778019830309194
10.367841409691632,27.6907693480581
10.387665198237887,27.601770600737787
10.407488986784141,27.511370987813912
10.427312775330398,27.419926745889075
10.447136563876654,27.327801801070752
10.466960352422909,27.235366542800964
10.486784140969164,27.142996518951463
10.50660792951542,27.051071052860898
10.526431718061675,26.95997178399615
10.546255506607931,26.87008113505012
10.566079295154186,26.78178070954052
10.585903083700442,26.695449625333286
10.605726872246697,26.61146279096667
10.625550660792953,26.53018913316966
10.645374449339208,26.45198978552634
10.665198237885463,26.37721624979956
10.685022026431719,26.30620854294868
10.704845814977975,26.239293344318394
