Frequency (Hz),Amplitude
0.0,0.815767863547356
0.019867549668874173,0.816819820445172
0.039735099337748346,0.8199634216377273
0.059602649006622516,0.825162341627059
0.07947019867549669,0.8323576018125565
0.09933774834437085,0.8414697627805829
0.11920529801324503,0.8524017126550532
0.13907284768211922,0.8650418251155969
0.15894039735099338,0.8792672587709068
0.17880794701986755,0.8949471939926796
0.1986754966887417,0.9119458453792831
0.2185430463576159,0.9301251379462206
0.23841059602649006,0.9493469843739174
0.2582781456953642,0.9694751431868517
0.27814569536423844,0.9903766704621013
0.2980132450331126,1.011922999888215
0.31788079470198677,1.033990698710494
0.33774834437086093,1.0564619521841427
0.3576158940397351,1.0792248287401682
0.3774834437086093,1.1021733741200035
0.3973509933774834,1.1252075768585263
0.4172185430463576,1.1482332408737868
0.4370860927152318,1.1711617943471653
0.45695364238410596,1.1939100580241382
0.4768211920529801,1.2163999907718828
0.49668874172185434,1.2385584257749334
0.5165562913907285,1.2603168071134105
0.5364238410596026,1.2816109335745651
0.5562913907284769,1.3023807142972839
0.5761589403973509,1.3225699391344587
0.5960264900662252,1.342126065339904
0.6158940397350993,1.3610000212546012
0.6357615894039735,1.379146027005915
0.6556291390728477,1.3965214317796937
0.6754966887417219,1.4130865669282195
0.695364238410596,1.428804613996206
0.7152317880794702,1.4436414866520724
0.7350993377483444,1.4575657254768133
0.7549668874172186,1.4705484045721013
0.7748344370860927,1.4825630489863262
0.7947019867549668,1.4935855620148353
0.8145695364238411,1.5035941614994957
0.8344370860927152,1.512569324327806
0.8543046357615894,1.5204937384111055
0.8741721854304636,1.527352261500309
0.8940397350993378,1.5331318862756371
0.9139072847682119,1.5378217112237573
0.9337748344370861,1.5414129168892656
0.9536423841059603,1.5438987471590375
0.9735099337748344,1.5452744953075028
0.9933774834437087,1.5455374945973834
1.0132450331125828,1.5446871132966642
1.033112582781457,1.5427247540361784
1.0529801324503312,1.539653857496483
1.0728476821192052,1.535479910475996
1.0927152317880795,1.5302104584570129
1.1125827814569538,1.5238551228513102
1.1324503311258278,1.5164256231741529
1.1523178807947019,1.5079358044650315
1.1721854304635762,1.498401670344741
1.1920529801324504,1.487841422173213
1.2119205298013245,1.4762755048498724
1.2317880794701985,1.4637266598781988
1.2516556291390728,1.4502199863979357
1.271523178807947,1.4357830109716418
1.2913907284768211,1.4204457669930914
1.3112582781456954,1.4042408846634404
1.3311258278145695,1.3872036925493514
1.3509933774834437,1.3693723317923145
1.370860927152318,1.3507878840691012
1.390728476821192,1.331494514399645
1.410596026490066,1.3115396298432958
1.4304635761589404,1.2909740549967892
1.4503311258278146,1.2698522249785877
1.4701986754966887,1.2482323962188775
1.4900662251655628,1.2261768748241748
1.5099337748344372,1.2037522614933123
1.5298013245033113,1.1810297108529642
1.5496688741721854,1.1580852015714656
1.5695364238410596,1.134999811596666
1.5894039735099337,1.1118599902381445
1.609271523178808,1.08875781546316
1.6291390728476822,1.065791220599753
1.6490066225165563,1.043064169578547
1.6688741721854303,1.0206867539135314
1.6887417218543048,0.9987751779685833
1.7086092715231789,0.9774515920354262
1.728476821192053,0.9568437260017584
1.7483443708609272,0.9370842709406162
1.7682119205298013,0.9183099532665912
1.7880794701986755,0.9006602480878805
1.8079470198675496,0.8842756872508154
1.8278145695364238,0.8692957355349419
1.847682119205298,0.8558562371537167
1.8675496688741722,0.8440864744436748
1.8874172185430464,0.8341059294533576
1.9072847682119205,0.826020892224833
1.9271523178807946,0.8199211090200951
1.9470198675496688,0.8158766995549654
1.9668874172185429,0.8139355843061743
1.9867549668874174,0.8141216437336731
2.0066225165562916,0.8164337789936775
2.0264900662251657,0.8208459638700684
2.0463576158940397,0.8273082824934146
2.066225165562914,0.8357488532255544
2.086092715231788,0.8460764618793615
2.1059602649006623,0.8581836788035738
2.1258278145695364,0.8719502188912286
2.1456953642384105,0.8872463186891277
2.165562913907285,0.9039359426124054
2.185430463576159,0.9218796805354715
2.205298013245033,0.940937251887875
2.2251655629139075,0.960969579290747
2.2450331125827816,0.9818404332389672
2.2649006622516556,1.003417676733552
2.2847682119205297,1.0255741555893731
2.3046357615894038,1.0481882881226
2.324503311258278,1.071144409288646
2.3443708609271523,1.0943329212813762
2.364238410596027,1.1176502969730617
2.384105960264901,1.1409989757816106
2.403973509933775,1.1642871845708056
2.423841059602649,1.187428709625999
2.443708609271523,1.210342639927948
2.463576158940397,1.2329530969995044
2.4834437086092715,1.2551889625325705
2.5033112582781456,1.276983611744801
2.52317880794702,1.2982746578709108
2.543046357615894,1.3190037112452164
2.562913907284768,1.3391161549744088
2.5827814569536423,1.3585609381313795
2.6026490066225163,1.3772903866396895
2.622516556291391,1.395260031490535
2.642384105960265,1.4124284535862244
2.662251655629139,1.4287571442870137
2.6821192052980134,1.444210380619554
2.7019867549668874,1.4587551140555508
2.7218543046357615,1.4723608717690544
2.741721854304636,1.4849996693146226
2.76158940397351,1.4966459337238716
2.781456953642384,1.507276436088077
2.801324503311258,1.5168702327717758
2.821192052980132,1.525408614484151
2.8410596026490067,1.5328750625171117
2.8609271523178808,1.5392552115408074
2.8807947019867552,1.5445368184269788
2.9006622516556293,1.5487097366476545
2.9205298013245033,1.551765895871287
2.9403973509933774,1.553699286450275
2.9602649006622515,1.5545059485635033
2.9801324503311255,1.5541839658451049
3.0,1.5527334633974144
3.0198675496688745,1.550156610151211
3.0397350993377485,1.5464576256024503
3.0596026490066226,1.5416427910203019
3.0794701986754967,1.535720465288789
3.0993377483443707,1.5287011056132915
3.119205298013245,1.5205972933948277
3.1390728476821192,1.5114237656494027
3.1589403973509933,1.5011974524277782
3.1788079470198674,1.4899375207728245
3.198675496688742,1.477665425837153
3.218543046357616,1.4644049698731954
3.23841059602649,1.4501823699001102
3.2582781456953644,1.4350263349461805
3.2781456953642385,1.4189681538590853
3.2980132450331126,1.4020417947665582
3.3178807947019866,1.384284017351523
3.3377483443708607,1.3657344991720106
3.3576158940397347,1.346435977296117
3.3774834437086096,1.3264344065237843
3.3973509933774837,1.30577913540997
3.4172185430463577,1.2845231011632312
3.437086092715232,1.2627230442370743
3.456953642384106,1.2404397430134577
3.47682119205298,1.2177382683441336
3.4966887417218544,1.1946882567937132
3.5165562913907285,1.171364200131414
3.5364238410596025,1.1478457468407113
3.556291390728477,1.1242180090349645
3.576158940397351,1.1005718650486351
3.596026490066225,1.077004243981969
3.615894039735099,1.0536183734947107
3.6357615894039736,1.0305239661073757
3.6556291390728477,1.0078373122144082
3.6754966887417218,0.9856812401569234
3.695364238410596,0.9641848955290849
3.7152317880794703,0.9434832842664318
3.7350993377483444,0.9237165183415834
3.754966887417219,0.9050287009794266
3.774834437086093,0.8875663926257823
3.794701986754967,0.8714766121833862
3.814569536423841,0.8569043528037393
3.834437086092715,0.8439896293456686
3.854304635761589,0.8328641250073857
3.8741721854304636,0.8236475640413717
3.8940397350993377,0.8164439985562081
3.9139072847682117,0.8113382494367714
3.9337748344370858,0.808392771860906
3.9536423841059607,0.8076452135647204
3.9735099337748347,0.8091068927898587
3.993377483443709,0.8127623447395927
4.013245033112583,0.8185699813855388
4.033112582781457,0.8264637974821334
4.052980132450331,0.8363559557384425
4.072847682119205,0.8481400130191588
4.0927152317880795,0.8616945163873022
4.112582781456953,0.8768867029001757
4.132450331125828,0.8935760728575867
4.152317880794702,0.9116176609295983
4.172185430463576,0.930864890926983
4.19205298013245,0.9511719578167038
4.211920529801325,0.9723957284260359
4.231788079470199,0.9943971872799244
4.251655629139073,1.0170424762132162
4.271523178807947,1.0402035876185267
4.291390728476821,1.0637587740498713
4.311258278145695,1.0875927340787557
4.33112582781457,1.1115966281128618
4.3509933774834435,1.135667970119799
4.370860927152318,1.1597104330916268
4.390728476821192,1.1836335984146409
4.410596026490066,1.2073526724933266
4.43046357615894,1.230788188189361
4.450331125827815,1.2538657038882253
4.470198675496689,1.276515509220509
4.490066225165563,1.2986723435196634
4.509933774834438,1.3202751308583802
4.529801324503311,1.3412667338395476
4.549668874172186,1.3615937271071707
4.569536423841059,1.3812061906864352
4.589403973509934,1.4000575226768976
4.6092715231788075,1.4181042704400078
4.629139072847682,1.4353059791907223
4.649006622516556,1.4516250567796802
4.66887417218543,1.4670266534069787
4.688741721854305,1.4814785550169682
4.708609271523179,1.4949510891685813
4.728476821192054,1.5074170422433952
4.748344370860927,1.518851586936555
4.768211920529802,1.5292322190653171
4.788079470198675,1.5385387028233521
4.80794701986755,1.546753023701878
4.827814569536423,1.5538593483903982
4.847682119205298,1.5598439910576969
4.867549668874172,1.5646953854993217
4.887417218543046,1.5684040627184335
4.9072847682119205,1.5709626335853937
4.927152317880794,1.572365776295989
4.947019867549669,1.5726102284209396
4.966887417218543,1.5716947834095787
4.986754966887418,1.569620291480547
5.006622516556291,1.5663896649008457
5.026490066225166,1.562007887724718
5.04635761589404,1.5564820301338842
5.066225165562914,1.54982126759396
5.086092715231788,1.5420369051170333
5.105960264900662,1.5331424069997288
5.125827814569536,1.5231534324898262
5.14569536423841,1.5120878779226914
5.1655629139072845,1.4999659259635578
5.185430463576159,1.4868101026912988
5.205298013245033,1.4726453433659459
5.225165562913908,1.4574990678335304
5.245033112582782,1.4414012666381224
5.264900662251656,1.4243845990296178
5.28476821192053,1.4064845041735057
5.304635761589404,1.387739326980662
5.324503311258278,1.3681904600735644
5.344370860927152,1.3478825034786894
5.364238410596027,1.3268634436681659
5.3841059602649,1.3051848535454258
5.403973509933775,1.282902114848857
5.4238410596026485,1.2600746641962084
5.443708609271523,1.2367662635557182
5.463576158940397,1.213045295239163
5.483443708609272,1.188985080478262
5.503311258278146,1.1646642191559222
5.52317880794702,1.1401669461811643
5.543046357615895,1.1155834971594092
5.562913907284768,1.0910104722352252
5.582781456953643,1.066551182085286
5.602649006622516,1.042315953845345
5.622516556291391,1.0184223671610113
5.642384105960264,0.9949953815883852
5.662251655629139,0.9721673065036885
5.682119205298013,0.9500775541525498
5.701986754966887,0.9288721066550225
5.7218543046357615,0.9087026205498148
5.741721854304636,0.8897250904632908
5.7615894039735105,0.8720980001011962
5.781456953642384,0.8559799077272238
5.801324503311259,0.8415264479665158
5.821192052980132,0.8288867838800901
5.841059602649007,0.8181996113424076
5.860927152317881,0.8095888956913329
5.880794701986755,0.803159596943591
5.900662251655629,0.798993698760392
5.920529801324503,0.7971468807903126
5.940397350993377,0.797646150792548
5.960264900662251,0.8004886779625834
5.980132450331126,0.8056419505118795
6.0,0.8130452389713845
6.0198675496688745,0.8226122087739351
6.039735099337749,0.8342344172101633
6.059602649006623,0.8477853681857075
6.079470198675497,0.8631247882557311
6.099337748344371,0.8801028222162555
6.119205298013245,0.8985639113625754
6.139072847682119,0.9183501953086807
6.158940397350993,0.9393043541728949
6.178807947019867,0.961271871946449
6.198675496688741,0.9841027492145908
6.218543046357616,1.0076527236287465
6.23841059602649,1.0317840719157623
6.258278145695365,1.0563660712857197
6.2781456953642385,1.0812751945412404
6.298013245033113,1.10639510518044
6.317880794701987,1.1316165087542074
6.337748344370861,1.1568369063481436
6.357615894039735,1.1819602863264107
6.377483443708609,1.2068967819258851
6.397350993377484,1.2315623151187485
6.417218543046357,1.2558782413583667
6.437086092715232,1.2797710052619082
6.456953642384105,1.3031718137886064
6.47682119205298,1.3260163308589314
6.496688741721854,1.348244395450861
6.516556291390729,1.3697997638524153
6.5364238410596025,1.3906298758126452
6.556291390728477,1.4106856437142787
6.5761589403973515,1.4299212635048655
6.596026490066225,1.4482940459059295
6.6158940397351,1.4657642663229382
6.635761589403973,1.4822950318643235
6.655629139072848,1.4978521639199212
6.675496688741721,1.5124040948270132
6.695364238410596,1.5259217772514262
6.715231788079469,1.5383786050228663
6.735099337748344,1.5497503442795864
6.754966887417219,1.5600150738936873
6.774834437086093,1.5691531342625071
6.794701986754967,1.5771470836601673
6.814569536423841,1.583981661447629
6.8344370860927155,1.5896437575377385
6.854304635761589,1.5941223876045845
6.874172185430464,1.5974086736142692
6.894039735099337,1.5994958293376575
6.913907284768212,1.600379150585446
6.933774834437086,1.6000560099829046
6.95364238410596,1.5985258561766555
6.973509933774834,1.5957902174402796
6.993377483443709,1.5918527097194695
7.013245033112583,1.5867190492331862
7.033112582781457,1.5803970698243361
7.052980132450331,1.5728967453343756
7.072847682119205,1.5642302173610327
7.0927152317880795,1.5544118288486997
7.112582781456954,1.5434581640577312
7.132450331125828,1.531388095563296
7.152317880794702,1.5182228390470889
7.172185430463576,1.5039860167677552
7.19205298013245,1.4887037307277216
7.211920529801324,1.4724046466969143
7.231788079470198,1.4551200904057515
7.251655629139073,1.4368841573806466
7.271523178807947,1.4177338380613895
7.291390728476822,1.3977091600073932
7.311258278145695,1.3768533491606674
7.33112582781457,1.3552130122765351
7.3509933774834435,1.3328383427420574
7.370860927152318,1.309783352051962
7.390728476821192,1.2861061291689637
7.410596026490066,1.2618691298128653
7.430463576158941,1.2371394973338767
7.450331125827814,1.211989416146018
7.470198675496689,1.1864964976078207
7.490066225165562,1.1607441965933278
7.509933774834438,1.1348222546059563
7.52980132450331,1.108827161922268
7.549668874172186,1.0828626266418586
7.569536423841059,1.057040032367759
7.589403973509934,1.0314788582601955
7.6092715231788075,1.0063070251705166
7.629139072847682,0.9816611194144093
7.649006622516557,0.9576864317466061
7.66887417218543,0.9345367340531422
7.6887417218543055,0.9123737017848307
7.708609271523178,0.8913658789044169
7.728476821192054,0.8716870780738686
7.748344370860927,0.8535141171524134
7.768211920529802,0.837023819672049
7.788079470198675,0.8223892570737489
7.80794701986755,0.8097752866963657
7.827814569536423,0.7993335389931819
7.847682119205298,0.7911971195409876
7.8675496688741715,0.7854753967570095
7.887417218543046,0.7822493191661443
7.907284768211921,0.7815677207956281
7.927152317880795,0.7834450129769452
7.9470198675496695,0.7878605260058983
7.966887417218543,0.7947595760327588
7.986754966887418,0.8040561288575265
8.006622516556291,0.8156367555956913
8.026490066225167,0.8293654594363262
8.046357615894038,0.8450889135283601
8.066225165562914,0.8626416824913439
8.086092715231787,0.8818510839664526
8.105960264900663,0.9025414555330957
8.125827814569536,0.9245377019265849
8.14569536423841,0.9476680908501407
8.165562913907285,0.9717663344860894
8.185430463576159,0.9966730370047511
8.205298013245034,1.0222366094689284
8.225165562913906,1.0483137580917452
8.245033112582782,1.0747696455430646
8.264900662251655,1.1014778127556046
8.28476821192053,1.1283199340355594
8.304635761589404,1.1551854635854097
8.324503311258278,1.1819712181486135
8.344370860927151,1.2085809290163438
8.364238410596027,1.2349247872556917
8.3841059602649,1.2609189986169407
8.403973509933774,1.286485358909724
8.42384105960265,1.3115508564145515
8.443708609271523,1.3360473048297572
8.463576158940398,1.3599110080899226
8.483443708609272,1.3830824569118925
8.503311258278146,1.4055060559548986
8.52317880794702,1.427129879882677
8.543046357615895,1.4479054562829614
8.562913907284768,1.467787573251666
8.582781456953642,1.486734109428169
8.602649006622515,1.504705884329543
8.62251655629139,1.5216665269450778
8.642384105960264,1.537582360696037
8.66225165562914,1.5524223030243351
8.682119205298013,1.5661577780366303
8.701986754966887,1.5787626407921818
8.721854304635762,1.5902131119778813
8.741721854304636,1.6004877218609967
8.76158940397351,1.609567262547617
8.781456953642383,1.6174347477030995
8.801324503311259,1.624075379008871
8.821192052980132,1.6294765187403966
8.841059602649008,1.6336276679528963
8.86092715231788,1.6365204498572927
8.880794701986755,1.6381485980584445
8.90066225165563,1.6385079494136463
8.920529801324504,1.6375964413518316
8.940397350993377,1.635414113574344
8.960264900662251,1.631963114138184
8.980132450331126,1.6272477100034346
9.0,1.6212743022087468
9.019867549668875,1.614051445924941
9.039735099337747,1.6055898757272817
9.059602649006623,1.595902536523918
9.079470198675496,1.5850046206826065
9.099337748344372,1.5729136120119889
9.119205298013245,1.5596493373791382
9.139072847682119,1.545234026883245
9.158940397350994,1.5296923836583094
9.178807947019868,1.513051664547155
9.198675496688743,1.4953417730760574
9.218543046357615,1.4765953663653322
9.23841059602649,1.4568479778361887
9.258278145695364,1.4361381578171002
9.27814569536424,1.41450763441148
9.298013245033111,1.3920014972560968
9.317880794701987,1.3686684070674053
9.33774834437086,1.3445608341243704
9.357615894039736,1.3197353290469707
9.37748344370861,1.2942528293625892
9.397350993377483,1.2681790053544828
9.417218543046358,1.2415846484800763
9.437086092715232,1.214546105124794
9.456953642384107,1.1871457574699433
9.47682119205298,1.1594725516000923
9.496688741721854,1.1316225703902485
9.516556291390728,1.1036996448542193
9.536423841059603,1.075815992078763
9.556291390728477,1.048092860114552
9.57615894039735,1.0206611497005496
9.596026490066224,0.993661968948139
9.6158940397351,0.9672470597604093
9.635761589403973,0.9415790138748898
9.655629139072847,0.9168311728334072
9.675496688741722,0.8931870820092082
9.695364238410596,0.8708393480179581
9.715231788079471,0.84998773771672
9.735099337748345,0.8308363643373029
9.754966887417218,0.8135898425948195
9.774834437086092,0.7984483698296306
9.794701986754967,0.7856018098139037
9.814569536423841,0.7752230152556251
9.834437086092716,0.7674608047240736
9.854304635761588,0.7624331736029983
9.874172185430464,0.7602214195642999
9.894039735099337,0.7608658564563623
9.913907284768213,0.7643636533150792
9.933774834437086,0.7706690807945829
9.95364238410596,0.7796961274018009
9.973509933774835,0.7913231373379919
9.993377483443709,0.8053988918881612
10.013245033112582,0.8217494502941357
10.033112582781456,0.8401850876297036
10.052980132450331,0.8605067865134343
10.072847682119205,0.8825119099790267
10.09271523178808,0.9059988592259913
10.112582781456952,0.9307706701695955
10.132450331125828,0.9566376111708169
10.152317880794701,0.9834189094111856
10.172185430463577,1.0109437619704726
10.192052980132452,1.0390517900490666
10.211920529801324,1.0675930810672838
10.2317880794702,1.0964279417158742
10.251655629139073,1.1254264610971878
10.271523178807948,1.1544679603290853
10.29139072847682,1.1834403851343884
10.311258278145695,1.2122396816289107
10.331125827814569,1.2407691827000382
10.350993377483444,1.2689390226461894
10.370860927152318,1.2966655906034503
10.390728476821192,1.3238710281925625
10.410596026490065,1.350482773300297
10.43046357615894,1.3764331495664583
10.450331125827816,1.4016589996613904
10.470198675496688,1.4261013595634355
10.490066225165563,1.449705170593752
10.509933774834437,1.4724190258020684
10.529801324503312,1.4941949473207758
10.549668874172186,1.5149881914470993
10.56953642384106,1.5347570784237723
10.589403973509933,1.5534628441351817
10.609271523178808,1.5710695111955397
10.629139072847682,1.5875437771636998
10.649006622516556,1.6028549178677058
10.66887417218543,1.6169747040549618
10.688741721854305,1.629877329799705
