Frequency (Hz),Amplitude
0.0,0.2446283000860099
0.01978021978021978,0.24458677866519862
0.03956043956043956,0.24446240716583054
0.05934065934065934,0.24425576364587956
0.07912087912087912,0.24396781075763924
0.0989010989010989,0.24359989455691425
0.11868131868131868,0.2431537427870434
0.13846153846153844,0.24263146258859575
0.15824175824175823,0.24203553757063967
0.17802197802197803,0.24136882416479116
0.1978021978021978,0.24063454716750837
0.21758241758241756,0.23983629436062032
0.23736263736263735,0.2389780100839581
0.2571428571428572,0.23806398761811232
0.2769230769230769,0.2370988602196868
0.2967032967032967,0.2360875906365832
0.31648351648351647,0.23503545891700356
0.3362637362637363,0.23394804831435526
0.35604395604395606,0.23283122908131468
0.3758241758241758,0.23169113994087354
0.3956043956043956,0.2305341670223351
0.4153846153846154,0.22936692005580597
0.4351648351648351,0.22819620563236342
0.45494505494505494,0.22702899735951534
0.4747252747252747,0.2258724027740299
0.4945054945054945,0.22473362691879384
0.5142857142857143,0.22361993254688253
0.5340659340659341,0.22253859698602269
0.5538461538461538,0.2214968657795108
0.5736263736263736,0.22050190331501462
0.5934065934065934,0.21956074075860801
0.6131868131868132,0.21868022172569312
0.6329670329670329,0.21786694623880748
0.6527472527472528,0.21712721364071277
0.6725274725274726,0.2164669652431403
0.6923076923076923,0.21589172759141786
0.7120879120879121,0.21540655730566113
0.7318681318681318,0.21501598851397022
0.7516483516483516,0.21472398391592204
0.7714285714285715,0.21453389050105898
0.7912087912087912,0.21444840089387202
0.810989010989011,0.21446952120343044
0.8307692307692308,0.21459854612419055
0.8505494505494506,0.214836041868618
0.8703296703296702,0.21518183731991447
0.8901098901098901,0.21563502358197273
0.9098901098901099,0.21619396188538903
0.9296703296703297,0.21685629959248479
0.9494505494505494,0.21761899384237576
0.9692307692307692,0.21847834219830195
0.989010989010989,0.21943001951116958
1.0087912087912088,0.22046912010149666
1.0285714285714287,0.22159020428902126
1.0483516483516484,0.22278734826575652
1.0681318681318681,0.224054196312129
1.087912087912088,0.22538401439285638
1.1076923076923075,0.22676974423445492
1.1274725274725275,0.22820405707288333
1.1472527472527472,0.22967940636178102
1.1670329670329669,0.23118807884249376
1.1868131868131868,0.2327222434905883
1.2065934065934065,0.23427399796517046
1.2263736263736265,0.23583541229305577
1.2461538461538462,0.23739856961612435
1.2659340659340659,0.23895560391611997
1.2857142857142858,0.2404987347046182
1.3054945054945055,0.24202029872712155
1.3252747252747252,0.24351277877957767
1.3450549450549452,0.24496882977350937
1.3648351648351649,0.2463813022137415
1.3846153846153846,0.24774326327144006
1.4043956043956045,0.24904801564630297
1.4241758241758242,0.2502891144166113
1.443956043956044,0.2514603820754466
1.4637362637362636,0.2525559219472103
1.4835164835164834,0.2535701301714144
1.5032967032967033,0.25449770643150155
1.523076923076923,0.25533366359587095
1.542857142857143,0.2560733364272682
1.5626373626373626,0.25671238950503794
1.5824175824175823,0.25724682449358527
1.6021978021978023,0.2576729868795433
1.621978021978022,0.25798757228993197
1.6417582417582417,0.25818763249404153
1.6615384615384616,0.25827058118325324
1.6813186813186813,0.2582341996149916
1.7010989010989013,0.258076642200244
1.720879120879121,0.2577964421075824
1.7406593406593405,0.25739251695115767
1.7604395604395604,0.2568641746249767
1.7802197802197801,0.2562111193412973
1.7999999999999998,0.25543345792622535
1.8197802197802198,0.2545317064215795
1.8395604395604395,0.25350679703698326
1.8593406593406594,0.252360085491473
1.879120879120879,0.25109335877747635
1.8989010989010988,0.2497088433730475
1.9186813186813187,0.24820921391918718
1.9384615384615385,0.24659760236784506
1.9582417582417584,0.24487760759225782
1.978021978021978,0.24305330543330472
1.9978021978021978,0.2411292591335954
2.0175824175824175,0.23911053008320465
2.0373626373626372,0.23700268876671823
2.0571428571428574,0.23481182575930948
2.076923076923077,0.23254456256836498
2.096703296703297,0.2302080620558513
2.1164835164835165,0.22781003810298492
2.1362637362637362,0.22535876409304786
2.1560439560439564,0.22286307968777702
2.175824175824176,0.22033239525882256
2.195604395604396,0.21777669320794224
2.215384615384615,0.21520652526973597
2.2351648351648348,0.21263300474237
2.254945054945055,0.21006779244047327
2.2747252747252746,0.2075230750183114
2.2945054945054943,0.2050115341829995
2.314285714285714,0.20254630522176317
2.3340659340659338,0.2001409232246036
2.353846153846154,0.1978092554172609
2.3736263736263736,0.19556541815571518
2.3934065934065933,0.19342367739994987
2.413186813186813,0.19139833190639483
2.4329670329670328,0.1895035789744874
2.452747252747253,0.18775336335978488
2.4725274725274726,0.18616121091358986
2.4923076923076923,0.1847400495931804
2.512087912087912,0.18350202164602858
2.5318681318681318,0.18245829191735974
2.5516483516483515,0.18161885825038496
2.5714285714285716,0.1809923707174192
2.5912087912087913,0.18058596681448422
2.610989010989011,0.18040512967121528
2.6307692307692307,0.18045357571382456
2.6505494505494505,0.18073317707177314
2.6703296703296706,0.18124392240666634
2.6901098901098903,0.18198391789546312
2.70989010989011,0.18294942799857347
2.7296703296703297,0.184134953587751
2.7494505494505495,0.18553334319277845
2.769230769230769,0.18713593170718593
2.7890109890109893,0.18893269997238715
2.808791208791209,0.19091244827167697
2.8285714285714287,0.19306297688154347
2.8483516483516484,0.19537126736889246
2.8681318681318677,0.1978236591775808
2.887912087912088,0.20040601709289352
2.9076923076923076,0.20310388629136342
2.9274725274725273,0.20590263277567084
2.947252747252747,0.20878756798759884
2.9670329670329667,0.211744057237799
2.986813186813187,0.21475761226901996
3.0065934065934066,0.2178139687756613
3.0263736263736263,0.22089915005003816
3.046153846153846,0.2239995181350017
3.0659340659340657,0.22710181395911483
3.085714285714286,0.23019318793915755
3.1054945054945056,0.23326122248056255
3.1252747252747253,0.23629394770864115
3.145054945054945,0.23927985164095453
3.1648351648351647,0.24220788587552364
3.184615384615385,0.24506746773194416
3.2043956043956046,0.24784847964886303
3.2241758241758243,0.250541266516886
3.243956043956044,0.25313663151264654
3.2637362637362637,0.25562583089960994
3.2835164835164834,0.2580005681732871
3.3032967032967036,0.2602529878539323
3.3230769230769233,0.2623756691659478
3.342857142857143,0.2643616197906185
3.3626373626373627,0.2662042698351028
3.3824175824175824,0.2678974661253984
3.4021978021978025,0.26943546690263015
3.4219780219780223,0.27081293698002645
3.441758241758242,0.2720249434007116
3.4615384615384617,0.2730669516238517
3.481318681318681,0.27393482225777194
3.501098901098901,0.27462480835248615
3.520879120879121,0.27513355326090294
3.5406593406593405,0.2754580890768096
3.5604395604395602,0.2755958356584958
3.58021978021978,0.2755446002493031
3.5999999999999996,0.2753025777102675
3.61978021978022,0.2748683513855361
3.6395604395604395,0.27424089462755935
3.659340659340659,0.27341957301721564
3.679120879120879,0.2724041473230953
3.6989010989010986,0.2711947772548308
3.718681318681319,0.26979202607730657
3.7384615384615385,0.268196866166339
3.758241758241758,0.26641068560159803
3.7780219780219784,0.26443529590995235
3.7978021978021976,0.2622729410917378
3.8175824175824173,0.2599263080842241
3.8373626373626375,0.25739853884071
3.8571428571428568,0.25469324423086886
3.876923076923077,0.25181451999774207
3.896703296703296,0.24876696503983584
3.916483516483517,0.24555570232260307
3.936263736263736,0.24218640276216669
3.956043956043956,0.2386653124648332
3.9758241758241755,0.234999283747641
3.9956043956043956,0.23119581040616666
4.015384615384615,0.22726306773299704
4.035164835164835,0.2232099578201088
4.054945054945055,0.21904616069344454
4.0747252747252745,0.21478219182058084
4.094505494505494,0.21042946648843533
4.114285714285715,0.20600037145070943
4.134065934065934,0.20150834406906087
4.153846153846154,0.19696795888606214
4.173626373626373,0.1923950211285118
4.193406593406594,0.1878066659932417
4.213186813186813,0.18322146164726305
4.232967032967033,0.17865951260371637
4.252747252747253,0.17414255843227064
4.2725274725274724,0.16969406055268366
4.292307692307692,0.16533926709829308
4.312087912087913,0.16110524254464537
4.331868131868132,0.1570208451227387
4.351648351648352,0.15311663132044612
4.371428571428571,0.1494246636448917
4.391208791208792,0.14597819625269934
4.410989010989011,0.14281121439369845
4.43076923076923,0.13995780943777214
4.450549450549451,0.13745138304158744
4.4703296703296695,0.13532369254657467
4.49010989010989,0.1336037742741552
4.50989010989011,0.1323168090717581
4.52967032967033,0.13148301988913208
4.549450549450549,0.13111670728952368
4.569230769230769,0.1312255288955034
4.589010989010989,0.13181010912971905
4.608791208791209,0.1328640278150734
4.628571428571428,0.13437418755003375
4.648351648351649,0.1363215112761261
4.6681318681318675,0.1386818840312442
4.687912087912088,0.1414272336529374
4.707692307692308,0.1445266455472214
4.7274725274725276,0.1479474227597869
4.747252747252747,0.15165602776230527
4.767032967032967,0.1556188696547416
4.786813186813187,0.15980292463694362
4.806593406593407,0.16417619578867035
4.826373626373626,0.16870802976215454
4.846153846153847,0.17336931372115127
4.8659340659340655,0.17813257721075904
4.885714285714286,0.18297202215592467
4.905494505494506,0.18786350116982267
4.9252747252747255,0.19278446075907751
4.945054945054945,0.1977138624500692
4.964835164835165,0.20263209166440016
4.984615384615385,0.20752086148489102
5.004395604395604,0.21236311629952342
5.024175824175824,0.21714293864741138
5.043956043956045,0.22184546134622818
5.0637362637362635,0.2264567860762489
5.083516483516483,0.2309639089581085
5.103296703296703,0.23535465322524748
5.123076923076923,0.23961760880586297
5.142857142857143,0.2437420784513457
5.162637362637362,0.24771802994747602
5.182417582417583,0.2515360538965245
5.2021978021978015,0.25518732654685233
5.221978021978022,0.25866357715731364
5.241758241758242,0.2619570594097343
5.2615384615384615,0.26506052641605
5.281318681318681,0.267967208904489
5.301098901098901,0.2706707962076603
5.320879120879121,0.27316541971357583
5.340659340659341,0.2754456384766988
5.36043956043956,0.2775064267199805
5.380219780219781,0.27934316299001705
5.3999999999999995,0.2809516207558195
5.41978021978022,0.28232796026752954
5.43956043956044,0.28346872151466834
5.4593406593406595,0.28437081814448756
5.479120879120879,0.28503153222009925
5.498901098901099,0.2854485097151554
5.518681318681319,0.2856197566575947
5.538461538461538,0.2855436358494625
5.558241758241758,0.2852188641030817
5.578021978021979,0.2846445099467158
5.5978021978021975,0.28381999176470857
5.617582417582418,0.28274507634918966
5.637362637362637,0.2814198778521297
5.6571428571428575,0.2798448571387376
5.676923076923077,0.2780208215558386
5.696703296703297,0.27594892514264435
5.716483516483517,0.2736306693262953
5.736263736263735,0.27106790416148746
5.756043956043956,0.2682628301927871
5.775824175824176,0.26521800104079785
5.795604395604395,0.2619363268398061
5.815384615384615,0.25842107868635483
5.835164835164835,0.2546758942963175
5.854945054945055,0.2507047851147944
5.874725274725275,0.24651214518041528
5.894505494505494,0.24210276211630036
5.914285714285715,0.23748183070840678
5.934065934065933,0.232654969642121
5.953846153846154,0.22762824210755767
5.973626373626374,0.222408181160109
5.993406593406593,0.21700182094782708
6.013186813186813,0.2114167352048026
6.032967032967033,0.2056610847800295
6.052747252747253,0.19974367645001576
6.072527472527473,0.19367403588431753
6.092307692307692,0.18746249844288293
6.112087912087913,0.1811203225409279
6.131868131868131,0.17465983170078858
6.151648351648352,0.16809459322007225
6.171428571428572,0.1614396437480325
6.191208791208791,0.15471177512557358
6.210989010989011,0.14792989776902293
6.230769230769231,0.14111550379501522
6.2505494505494505,0.13429325800566638
6.270329670329671,0.1274917514685056
6.29010989010989,0.12074445868190242
6.309890109890111,0.11409094260362757
6.329670329670329,0.10757834645863343
6.349450549450549,0.10126318592950961
6.36923076923077,0.09521338940945269
6.3890109890109885,0.08951039376253435
6.408791208791209,0.08425084349683903
6.428571428571428,0.07954702819423476
6.4483516483516485,0.07552467302281622
6.468131868131868,0.07231633505071182
6.487912087912088,0.07004906267178236
6.507692307692308,0.0688268932950447
6.527472527472527,0.06871214224779107
6.547252747252747,0.06971227616094165
6.567032967032967,0.07177832938198553
6.5868131868131865,0.07481562832132391
6.606593406593407,0.07870178702953523
6.626373626373626,0.08330495774124584
6.6461538461538465,0.08849754618938681
6.665934065934065,0.09416410568483045
6.685714285714286,0.10020444784574149
6.705494505494506,0.1065337127019935
6.725274725274725,0.11308089526281381
6.745054945054945,0.11978681008685485
6.764835164835165,0.126602029084981
6.7846153846153845,0.13348503444211562
6.804395604395605,0.14040066460646097
6.824175824175824,0.147318851352176
6.8439560439560445,0.15421361319236612
6.863736263736263,0.1610622615079113
6.883516483516484,0.16784477755315194
6.903296703296704,0.17454332427905483
6.923076923076923,0.18114186350985678
6.942857142857143,0.18762585509033616
6.962637362637362,0.19398201974460458
6.9824175824175825,0.20019815151085613
7.002197802197802,0.20626296884991563
7.021978021978022,0.21216599602619302
7.041758241758242,0.21789746827778012
7.061538461538461,0.22344825575982566
7.081318681318681,0.2288098023662683
7.101098901098901,0.23397407639302126
7.1208791208791204,0.23893353066356726
7.140659340659341,0.24368107024465244
7.16043956043956,0.24821002627062164
7.1802197802197805,0.2525141346990283
7.199999999999999,0.25658751905640526
7.21978021978022,0.26042467641886274
7.23956043956044,0.26402046601755697
7.259340659340659,0.2673700999748833
7.279120879120879,0.2704691357685041
7.298901098901099,0.2733134700937139
7.318681318681318,0.27589933385312504
7.338461538461539,0.2782232880501722
7.358241758241758,0.28028222040088197
7.3780219780219785,0.2820733425098708
7.397802197802197,0.2835941874816297
7.417582417582418,0.2848426078592628
7.437362637362638,0.28581677379994935
7.457142857142857,0.28651517141069854
7.476923076923077,0.2869366011798135
7.496703296703297,0.28708017644943123
7.516483516483516,0.28694532188278976
7.536263736263736,0.2865317718870005
7.556043956043957,0.2858395689579543
7.575824175824176,0.2848690619192465
7.595604395604395,0.28362090403124873
7.615384615384615,0.2820960509503528
7.635164835164835,0.2802957585216676
7.654945054945055,0.27822158039143496
7.674725274725275,0.27587536542783175
7.694505494505494,0.27325925494156234
7.7142857142857135,0.27037567969918375
7.734065934065935,0.2672273567248101
7.753846153846154,0.26381728588707903
7.7736263736263735,0.2601487462706223
7.793406593406592,0.2562252923328572
7.813186813186814,0.2520507498489307
7.832967032967034,0.24762921164985546
7.852747252747252,0.24296503316098908
7.872527472527472,0.23806282775081491
7.892307692307693,0.23292746190306474
7.912087912087912,0.2275640502291136
7.931868131868132,0.2219779503423405
7.951648351648351,0.2161747576222543
7.971428571428572,0.21016029990425344
7.991208791208791,0.2039406321414345
8.010989010989011,0.1975220310991696
8.03076923076923,0.19091099016282131
8.05054945054945,0.18411421436623351
8.07032967032967,0.1771386157873253
8.09010989010989,0.16999130951246047
8.10989010989011,0.16267961045245502
8.129670329670331,0.15521103141357034
8.149450549450549,0.14759328300965938
8.169230769230769,0.13983427628454098
8.189010989010988,0.1319421293618937
8.20879120879121,0.1239251801678507
8.22857142857143,0.11579200848778341
8.248351648351647,0.10755147271624409
8.268131868131867,0.09921277040766655
8.287912087912087,0.09078553871576277
8.307692307692308,0.08228002443493142
8.327472527472528,0.07370738146382598
8.347252747252746,0.06508021540745407
8.367032967032966,0.05641364251551829
8.386813186813187,0.0477275173164331
8.406593406593407,0.039051631770686525
8.426373626373627,0.030439682165731834
8.446153846153845,0.022014987384963734
8.465934065934066,0.014169227441476315
8.485714285714286,0.008702978495202967
8.505494505494505,0.010478164097129029
8.525274725274725,0.017392161569330232
8.545054945054945,0.025549224098652876
8.564835164835165,0.03404296941193003
8.584615384615384,0.042645670861761735
8.604395604395604,0.05127399922008779
8.624175824175826,0.05988744575758274
8.643956043956043,0.06846161450138075
8.663736263736263,0.07697926323397962
8.683516483516483,0.08542674141779881
8.703296703296704,0.09379238847766323
8.723076923076924,0.10206574410055151
8.742857142857142,0.11023713053991602
8.762637362637362,0.11829741947829897
8.782417582417583,0.12623789655576803
8.802197802197803,0.13405018040610725
8.821978021978023,0.1417261734963977
8.84175824175824,0.14925803222959977
8.86153846153846,0.15663814908793378
8.881318681318682,0.16385914250364916
8.901098901098901,0.17091385179724924
8.920879120879121,0.1777953354958916
8.940659340659339,0.18449687193397596
8.96043956043956,0.19101196140483315
8.98021978021978,0.19733432936665232
9.0,0.20345793035840318
9.01978021978022,0.20937695238291631
9.03956043956044,0.21508582158338985
9.05934065934066,0.22057920708709428
9.079120879120879,0.22585202592331727
9.098901098901099,0.2308994479465528
9.11868131868132,0.23571690071314086
9.138461538461538,0.2403000742725123
9.158241758241758,0.2446449258435596
9.178021978021977,0.248747684354309
9.197802197802199,0.25260485482874806
9.217582417582419,0.2562132226093226
9.237362637362637,0.2595698574076843
9.257142857142856,0.2626721171794422
9.276923076923078,0.2655176518217076
9.296703296703297,0.2681044066951079
9.316483516483517,0.2704306259742877
9.336263736263735,0.27249485583383265
9.356043956043957,0.274295947478893
9.375824175824176,0.27583306003261804
9.395604395604396,0.2771056632956791
9.415384615384616,0.2781135403957874
9.435164835164835,0.2788567903491273
9.454945054945055,0.2793358305591217
9.474725274725275,0.27955139928242995
9.494505494505495,0.27950455809693703
9.514285714285714,0.27919669441193257
9.534065934065934,0.2786295240672442
9.553846153846154,0.27780509407515475
9.573626373626373,0.27672578556733446
9.593406593406593,0.27539431701896827
9.613186813186815,0.2738137478330517
9.632967032967032,0.2719874823814935
9.652747252747252,0.2699192746143052
9.672527472527472,0.2676132333664738
9.692307692307693,0.26507382851279715
9.712087912087913,0.2623058981453987
9.731868131868131,0.2593146569776144
9.75164835164835,0.2561057062116703
9.771428571428572,0.2526850451474216
9.791208791208792,0.24905908485657063
9.810989010989012,0.2452346643018165
9.83076923076923,0.24121906934568793
9.850549450549451,0.237020055170091
9.87032967032967,0.23264587271716067
9.89010989010989,0.22810529986655698
9.90989010989011,0.2234076781852217
9.92967032967033,0.21856295622503974
9.94945054945055,0.21358174050176354
9.96923076923077,0.20847535546462334
9.989010989010989,0.20325591395744153
10.008791208791209,0.197936399870942
10.028571428571428,0.19253076487880555
10.048351648351648,0.18705404131244405
10.068131868131868,0.1815224733204062
10.08791208791209,0.17595366841319102
10.107692307692307,0.17036677121133545
10.127472527472527,0.1647826605423034
10.147252747252747,0.1592241697460417
10.167032967032966,0.15371632783502037
10.186813186813188,0.1482866155861606
10.206593406593406,0.1429652251780543
10.226373626373626,0.1377853040117604
10.246153846153845,0.13278315229262208
10.265934065934067,0.12799832954486517
10.285714285714286,0.12347360802925597
10.305494505494504,0.11925469317482812
10.325274725274724,0.11538961732236162
10.345054945054946,0.11192771138181477
10.364835164835165,0.10891808058592495
10.384615384615385,0.10640756690234325
