Frequency (Hz),Amplitude
0.0,1.78964572442061
0.01978021978021978,1.7889062382368452
0.03956043956043956,1.7866888174917648
0.05934065934065934,1.7829965773466974
0.07912087912087912,1.7778347155877143
0.0989010989010989,1.7712105215471992
0.11868131868131868,1.763133388889269
0.13846153846153844,1.753614832562281
0.15824175824175823,1.7426685103203905
0.17802197802197803,1.7303102493238698
0.1978021978021978,1.7165580784480925
0.21758241758241756,1.7014322670657824
0.23736263736263735,1.6849553712204643
0.2571428571428572,1.667152288284274
0.2769230769230769,1.6480503213953204
0.2967032967032967,1.627679255203091
0.31648351648351647,1.6060714447216247
0.3362637362637363,1.5832619194048227
0.35604395604395606,1.5592885049247673
0.3758241758241758,1.5341919655596266
0.3956043956043956,1.5080161705916526
0.4153846153846154,1.4808082886865253
0.4351648351648351,1.4526190148810956
0.45494505494505494,1.423502835553262
0.4747252747252747,1.3935183375883233
0.4945054945054945,1.362728568883901
0.5142857142857143,1.3312014583341871
0.5340659340659341,1.2990103044635881
0.5538461538461538,1.266234342868982
0.5736263736263736,1.2329594034560991
0.5934065934065934,1.1992786689190065
0.6131868131868132,1.1652935456991371
0.6329670329670329,1.1311146572923834
0.6527472527472528,1.0968629665378202
0.6725274725274726,1.062671027389989
0.6923076923076923,1.0286843562079226
0.7120879120879121,0.9950628958512979
0.7318681318681318,0.9619825203984262
0.7516483516483516,0.9296364912332137
0.7714285714285715,0.898236723761474
0.7912087912087912,0.8680146563044517
0.810989010989011,0.8392214298542093
0.8307692307692308,0.8121269963207921
0.8505494505494506,0.787017690561706
0.8703296703296702,0.7641917588141475
0.8901098901098901,0.7439523795364921
0.9098901098901099,0.7265978977122834
0.9296703296703297,0.7124093656748551
0.9494505494505494,0.7016360428739652
0.9692307692307692,0.6944801697362885
0.989010989010989,0.6910829113550668
1.0087912087912088,0.6915136180966605
1.0285714285714287,0.6957642718780433
1.0483516483516484,0.7037501561233184
1.0681318681318681,0.7153166206892552
1.087912087912088,0.7302506891416413
1.1076923076923075,0.748295532142841
1.1274725274725275,0.7691656743734784
1.1472527472527472,0.7925611438760348
1.1670329670329669,0.8181793902480413
1.1868131868131868,0.8457244508201442
1.2065934065934065,0.8749133669880416
1.2263736263736265,0.9054801829158549
1.2461538461538462,0.9371780092468011
1.2659340659340659,0.9697796551239956
1.2857142857142858,1.0030772774575631
1.3054945054945055,1.0368814102286188
1.3252747252747252,1.0710196463850692
1.3450549450549452,1.105335164977705
1.3648351648351649,1.1396852320089441
1.3846153846153846,1.173939755276784
1.4043956043956045,1.207979939154133
1.4241758241758242,1.2416970618582654
1.443956043956044,1.2749913825445112
1.4637362637362636,1.3077711761525896
1.4835164835164834,1.339951888518837
1.5032967032967033,1.371455401498816
1.523076923076923,1.4022093967681888
1.542857142857143,1.43214680693013
1.5626373626373626,1.4612053431162466
1.5824175824175823,1.4893270891390333
1.6021978021978023,1.5164581532570418
1.621978021978022,1.5425483696392774
1.6417582417582417,1.5675510425991583
1.6615384615384616,1.5914227275771824
1.6813186813186813,1.6141230436708922
1.7010989010989013,1.6356145132366586
1.720879120879121,1.6558624247241727
1.7406593406593405,1.6748347154574552
1.7604395604395604,1.6925018715544269
1.7802197802197801,1.7088368425890819
1.7999999999999998,1.723814968954675
1.8197802197802198,1.737413920191073
1.8395604395604395,1.7496136428017461
1.8593406593406594,1.7603963163120309
1.879120879120879,1.7697463165160774
1.8989010989010988,1.7776501850301203
1.9186813186813187,1.7840966044187019
1.9384615384615385,1.7890763782920767
1.9582417582417584,1.792582415890041
1.978021978021978,1.7946097207735778
1.9978021978021978,1.7951553833424394
2.0175824175824175,1.794218576987431
2.0373626373626372,1.7918005577722587
2.0571428571428574,1.7879046676232562
2.076923076923077,1.782536341088613
2.096703296703297,1.7757031158132053
2.1164835164835165,1.7674146469629055
2.1362637362637362,1.7576827259256127
2.1560439560439564,1.7465213037170317
2.175824175824176,1.73394651962994
2.195604395604396,1.7199767357891926
2.215384615384615,1.7046325784137881
2.2351648351648348,1.6879369867454657
2.254945054945055,1.6699152707846827
2.2747252747252746,1.6505951791835438
2.2945054945054943,1.6300069788869211
2.314285714285714,1.6081835483933618
2.3340659340659338,1.5851604868328977
2.353846153846154,1.5609762414376038
2.3736263736263736,1.5356722564197625
2.3934065934065933,1.5092931467816957
2.413186813186813,1.481886901167655
2.4329670329670328,1.4535051185401162
2.452747252747253,1.4242032842251307
2.4725274725274726,1.3940410917238562
2.4923076923076923,1.363082817622314
2.512087912087912,1.3313977579251495
2.5318681318681318,1.2990607351461327
2.5516483516483515,1.2661526864250614
2.5714285714285716,1.2327613436690115
2.5912087912087913,1.1989820170117034
2.610989010989011,1.164918492401785
2.6307692307692307,1.1306840523433097
2.6505494505494505,1.0964026249468322
2.6703296703296706,1.0622100594009567
2.6901098901098903,1.028255514210436
2.70989010989011,0.994702926041098
2.7296703296703297,0.9617324992434231
2.7494505494505495,0.9295421162629491
2.769230769230769,0.898348514578452
2.7890109890109893,0.8683880053007923
2.808791208791209,0.8399164243211323
2.8285714285714287,0.8132079177585804
2.8483516483516484,0.7885520889861674
2.8681318681318677,0.7662490086213333
2.887912087912088,0.7466016598484903
2.9076923076923076,0.7299056132994913
2.9274725274725273,0.7164361356653709
2.947252747252747,0.7064335186424058
2.9670329670329667,0.7000880652572985
2.986813186813187,0.697526689091662
3.0065934065934066,0.698803227100622
3.0263736263736263,0.7038941713750395
3.046153846153846,0.7127006164132731
3.0659340659340657,0.725056051288449
3.085714285714286,0.7407385810020004
3.1054945054945056,0.759485558613435
3.1252747252747253,0.7810085644458465
3.145054945054945,0.8050070745313342
3.1648351648351647,0.8311797883455285
3.184615384615385,0.8592332105303828
3.2043956043956046,0.888887560925615
3.2241758241758243,0.9198803765805229
3.243956043956044,0.9519682906506595
3.2637362637362637,0.9849274772948875
3.2835164835164834,1.0185531908521284
3.3032967032967036,1.0526587412253814
3.3230769230769233,1.0870741600771006
3.342857142857143,1.1216447364740079
3.3626373626373627,1.1562295402575682
3.3824175824175824,1.190700006417698
3.4021978021978025,1.224938621849667
3.4219780219780223,1.2588377342526011
3.441758241758242,1.2922984889184053
3.4615384615384617,1.3252298905520508
3.481318681318681,1.3575479823514731
3.501098901098901,1.3891751321070518
3.520879120879121,1.4200394141712176
3.5406593406593405,1.4500740761909598
3.5604395604395602,1.479217080084002
3.58021978021978,1.5074107076089598
3.5999999999999996,1.5346012218650416
3.61978021978022,1.5607385770554387
3.6395604395604395,1.58577616980381
3.659340659340659,1.6096706261930662
3.679120879120879,1.6323816194883654
3.6989010989010986,1.653871714208226
3.718681318681319,1.674106232822695
3.7384615384615385,1.6930531418923789
3.758241758241758,1.7106829549247515
3.7780219780219784,1.7269686496230565
3.7978021978021976,1.7418855975465404
3.8175824175824173,1.755411504496436
3.8373626373626375,1.7675263601967373
3.8571428571428568,1.7782123960588285
3.876923076923077,1.7874540500099034
3.896703296703296,1.7952379375310208
3.916483516483517,1.8015528281967426
3.936263736263736,1.806389627136954
3.956043956043956,1.8097413609572017
3.9758241758241755,1.811603167758114
3.9956043956043956,1.8119722909909444
4.015384615384615,1.8108480769762028
4.035164835164835,1.808231975998737
4.054945054945055,1.8041275469765978
4.0747252747252745,1.7985404657852744
4.094505494505494,1.7914785374046887
4.114285714285715,1.7829517121461484
4.134065934065934,1.772972106312042
4.153846153846154,1.7615540277447337
4.173626373626373,1.7487140068354472
4.193406593406594,1.7344708336913826
4.213186813186813,1.71884560230346
4.232967032967033,1.7018617627207995
4.252747252747253,1.6835451824259535
4.2725274725274724,1.6639242183214478
4.292307692307692,1.6430298009883493
4.312087912087913,1.6208955331677122
4.331868131868132,1.597557804752383
4.351648351648352,1.5730559269674027
4.371428571428571,1.5474322888692784
4.391208791208792,1.5207325398171707
4.410989010989011,1.4930058021689796
4.43076923076923,1.464304919139605
4.450549450549451,1.434686743530259
4.4703296703296695,1.4042124738939614
4.49010989010989,1.3729480456306504
4.50989010989011,1.3409645854765517
4.52967032967033,1.3083389388106659
4.549450549450549,1.2751542800506392
4.569230769230769,1.2415008169915616
4.589010989010989,1.207476600005739
4.608791208791209,1.1731884461828685
4.628571428571428,1.1387529861770929
4.648351648351649,1.1042978369028906
4.6681318681318675,1.069962895107867
4.687912087912088,1.0359017336390777
4.707692307692308,1.002283061823788
4.7274725274725276,0.969292181281772
4.747252747252747,0.9371323259662659
4.767032967032967,0.906025718053213
4.786813186813187,0.8762140989956221
4.806593406593407,0.8479584111821304
4.826373626373626,0.821537221052486
4.846153846153847,0.7972434113161547
4.8659340659340655,0.7753786642795538
4.885714285714286,0.7562453588867191
4.905494505494506,0.7401357609431192
4.9252747252747255,0.7273188257504519
4.945054945054945,0.7180255225690672
4.964835164835165,0.7124342090922218
4.984615384615385,0.7106580250508758
5.004395604395604,0.712736311836096
5.024175824175824,0.7186315715050692
5.043956043956045,0.7282325258315655
5.0637362637362635,0.7413627028542834
5.083516483516483,0.7577930305330977
5.103296703296703,0.7772564307386888
5.123076923076923,0.7994624505920891
5.142857142857143,0.8241104118586109
5.162637362637362,0.8509001772226323
5.182417582417583,0.8795402197120864
5.2021978021978015,0.9097531180537418
5.221978021978022,0.9412788549756111
5.241758241758242,0.9738763944854956
5.2615384615384615,1.0073240078952375
5.281318681318681,1.0414187552046918
5.301098901098901,1.0759754442785472
5.320879120879121,1.110825306895311
5.340659340659341,1.1458145589465243
5.36043956043956,1.1808029553013069
5.380219780219781,1.2156624076429141
5.3999999999999995,1.2502757036969399
5.41978021978022,1.2845353460159912
5.43956043956044,1.3183425153586747
5.4593406593406595,1.3516061556317744
5.479120879120879,1.3842421727597516
5.498901098901099,1.4161727375352215
5.518681318681319,1.447325681660187
5.538461538461538,1.4776339762403554
5.558241758241758,1.507035282563989
5.578021978021979,1.535471565832108
5.5978021978021975,1.5628887634528565
5.617582417582418,1.5892365004723115
5.637362637362637,1.6144678456320694
5.6571428571428575,1.6385391023916291
5.676923076923077,1.6614096300173034
5.696703296703297,1.6830416905176415
5.716483516483517,1.7034003177998571
5.736263736263735,1.7224532059399738
5.756043956043956,1.740170613908141
5.775824175824176,1.7565252844780475
5.795604395604395,1.7714923753838936
5.815384615384615,1.7850494010763456
5.835164835164835,1.7971761836777798
5.854945054945055,1.8078548119525801
5.874725274725275,1.8170696072951402
5.894505494505494,1.8248070959016798
5.914285714285715,1.8310559864357019
5.934065934065933,1.8358071526244404
5.953846153846154,1.8390536203381294
5.973626373626374,1.8407905588080014
5.993406593406593,1.8410152757351652
6.013186813186813,1.8397272161330702
6.032967032967033,1.8369279648332206
6.052747252747253,1.8326212526691203
6.072527472527473,1.8268129664392356
6.092307692307692,1.819511162837514
6.112087912087913,1.8107260866322972
6.131868131868131,1.800470193473051
6.151648351648352,1.7887581778113424
6.171428571428572,1.7756070065410512
6.191208791208791,1.7610359590949678
6.210989010989011,1.745066674884486
6.230769230769231,1.7277232091392452
6.2505494505494505,1.709032098398688
6.270329670329671,1.6890224371321636
6.29010989010989,1.6677259672236904
6.309890109890111,1.6451771823579877
6.329670329670329,1.6214134496924064
6.349450549450549,1.5964751516021536
6.36923076923077,1.5704058507517158
6.3890109890109885,1.5432524822807538
6.408791208791209,1.5150655775052668
6.428571428571428,1.4858995242293669
6.4483516483516485,1.4558128695404444
6.468131868131868,1.4248686718152626
6.487912087912088,1.3931349095785546
6.507692307692308,1.360684955793358
6.527472527472527,1.3275981270562507
6.547252747252747,1.2939603179114387
6.567032967032967,1.2598647309045046
6.5868131868131865,1.2254127127922034
6.606593406593407,1.1907147060866372
6.626373626373626,1.1558913222180849
6.6461538461538465,1.1210745371576378
6.665934065934065,1.086409001102834
6.685714285714286,1.0520534391296015
6.705494505494506,1.0181820974325664
6.725274725274725,0.9849861574318926
6.745054945054945,0.9526749951020279
6.764835164835165,0.9214771035895312
6.7846153846153845,0.8916404239263378
6.804395604395605,0.8634317463572427
6.824175824175824,0.8371347662935323
6.8439560439560445,0.8130463284385526
6.863736263736263,0.791470407892388
6.883516483516484,0.7727095058628098
6.903296703296704,0.7570534246966668
6.923076923076923,0.7447658477723845
6.942857142857143,0.7360697365771282
6.962637362637362,0.731133135334735
6.9824175824175825,0.7300573365144436
7.002197802197802,0.7328693038092411
7.021978021978022,0.7395196818685419
7.041758241758242,0.7498867515533404
7.061538461538461,0.763785605211531
7.081318681318681,0.7809809621892113
7.101098901098901,0.8012016552143533
7.1208791208791204,0.8241549263456305
7.140659340659341,0.8495391333462824
7.16043956043956,0.8770540671171939
7.1802197802197805,0.9064086323254434
7.199999999999999,0.9373260436620543
7.21978021978022,0.969546917503459
7.23956043956044,1.0028307223932778
7.259340659340659,1.0369560395529136
7.279120879120879,1.0717200215030438
7.298901098901099,1.1069373556588822
7.318681318681318,1.142438960247065
7.338461538461539,1.1780705716927695
7.358241758241758,1.2136913287713893
7.3780219780219785,1.2491724187480446
7.397802197802197,1.2843958223032603
7.417582417582418,1.3192531747278329
7.437362637362638,1.3536447483080079
7.457142857142857,1.3874785530660274
7.476923076923077,1.4206695485673706
7.496703296703297,1.4531389572487452
7.516483516483516,1.4848136688740117
7.536263736263736,1.5156257257461112
7.556043956043957,1.5455118788275093
7.575824175824176,1.5744132057098081
7.595604395604395,1.6022747822738037
7.615384615384615,1.6290454007997208
7.635164835164835,1.6546773281706482
7.654945054945055,1.6791260986296863
7.674725274725275,1.7023503362910268
7.694505494505494,1.724311603262824
7.7142857142857135,1.7449742698186317
7.734065934065935,1.7643054035591674
7.753846153846154,1.782274674944781
7.7736263736263735,1.7988542769586136
7.793406593406592,1.8140188569883553
7.813186813186814,1.8277454592981444
7.832967032967034,1.8400134767072005
7.852747252747252,1.8508046103044546
7.872527472527472,1.8601028362136431
7.892307692307693,1.8678943785855397
7.912087912087912,1.8741676881368603
7.931868131868132,1.8789134256827078
7.951648351648351,1.8821244502241476
7.971428571428572,1.8837958112569502
7.991208791208791,1.8839247450646384
8.010989010989011,1.88251067485081
8.03076923076923,1.8795552146539698
8.05054945054945,1.875062177075542
8.07032967032967,1.8690375849392964
8.09010989010989,1.8614896870912518
8.10989010989011,1.8524289786441226
8.129670329670331,1.8418682260725299
8.149450549450549,1.8298224976764037
8.169230769230769,1.8163092000531103
8.189010989010988,1.801348121356438
8.20879120879121,1.7849614822764581
8.22857142857143,1.7671739958512023
8.248351648351647,1.7480129374246904
8.268131868131867,1.7275082262993582
8.287912087912087,1.7056925209009426
8.307692307692308,1.6826013295858948
8.327472527472528,1.6582731395822212
8.347252747252746,1.6327495669715466
8.367032967032966,1.606075531100316
8.386813186813187,1.5782994573591136
8.406593406593407,1.5494735128964214
8.426373626373627,1.519653880541213
8.446153846153845,1.4889010769960347
8.465934065934066,1.4572803222197603
8.485714285714286,1.4248619678249024
8.505494505494505,1.3917219932245617
8.525274725274725,1.3579425791029107
8.545054945054945,1.3236127684249372
8.564835164835165,1.2888292254472455
8.584615384615384,1.2536971027357235
8.604395604395604,1.2183310245803378
8.624175824175826,1.182856191753233
8.643956043956043,1.1474096063341168
8.663736263736263,1.112141405020323
8.683516483516483,1.0772162732229593
8.703296703296704,1.0428148881787191
8.723076923076924,1.0091353048386027
8.742857142857142,0.9763941510971468
8.762637362637362,0.944827437633074
8.782417582417583,0.9146907134252228
8.802197802197803,0.886258217082435
8.821978021978023,0.8598206009900818
8.84175824175824,0.8356807660198504
8.86153846153846,0.8141473779972503
8.881318681318682,0.7955257901165971
8.901098901098901,0.7801064079244816
8.920879120879121,0.7681510113407859
8.940659340659339,0.7598781313146006
8.96043956043956,0.7554491229607756
8.98021978021978,0.7549568776301188
9.0,0.7584189863573325
9.01978021978022,0.7657765446976895
9.03956043956044,0.7768988068654777
9.05934065934066,0.7915928504439663
9.079120879120879,0.8096166271817169
9.098901098901099,0.8306934546683669
9.11868131868132,0.8545261562065374
9.138461538461538,0.88080953049848
9.158241758241758,0.9092404196511348
9.178021978021977,0.9395251712426319
9.197802197802199,0.9713846665537618
9.217582417582419,1.004557296969542
9.237362637362637,1.038800344451782
9.257142857142856,1.073890206150368
9.276923076923078,1.109621840251533
9.296703296703297,1.14580773088231
9.316483516483517,1.1822765927891523
9.336263736263735,1.2188719705122826
9.356043956043957,1.2554508346530204
9.375824175824176,1.2918822389916123
9.395604395604396,1.3280460745971365
9.415384615384616,1.3638319382483417
9.435164835164835,1.3991381201956459
9.454945054945055,1.4338707086696845
9.474725274725275,1.4679428041332088
9.494505494505495,1.5012738340127205
9.514285714285714,1.533788957771178
9.534065934065934,1.565418552166747
9.553846153846154,1.5960977670274143
9.573626373626373,1.6257661426232215
9.593406593406593,1.6543672805863252
9.613186813186815,1.6818485612213572
9.632967032967032,1.708160900909798
9.652747252747252,1.7332585441128017
9.672527472527472,1.7570988852029956
9.692307692307693,1.7796423160036552
9.712087912087913,1.8008520954846665
9.731868131868131,1.8206942385643667
9.75164835164835,1.8391374214009193
9.771428571428572,1.856152900933938
9.791208791208792,1.871714446763189
9.810989010989012,1.8857982837340417
9.83076923076923,1.8983830438437388
9.850549450549451,1.909449726295691
9.87032967032967,1.918981664714371
9.89010989010989,1.9269645006963534
9.90989010989011,1.9333861630170557
9.92967032967033,1.9382368519410358
9.94945054945055,1.9415090281999001
9.96923076923077,1.9431974063078652
9.989010989010989,1.9432989519840476
10.008791208791209,1.9418128835440118
10.028571428571428,1.938740677214025
10.048351648351648,1.9340860764110355
10.068131868131868,1.9278551051221016
10.08791208791209,1.9200560856107867
10.107692307692307,1.9106996607767286
10.127472527472527,1.8997988216010266
10.147252747252747,1.8873689402258063
10.167032967032966,1.8734278093450465
10.186813186813188,1.8579956887275662
10.206593406593406,1.8410953598560473
10.226373626373626,1.8227521898513965
10.246153846153845,1.8029942060647164
10.265934065934067,1.7818521829637644
10.285714285714286,1.7593597432235342
10.305494505494504,1.7355534752570496
10.325274725274724,1.7104730697998667
10.345054945054946,1.684161478597477
10.364835164835165,1.6566650987461888
10.384615384615385,1.628033986812093
10.404395604395603,1.5983221075061127
10.424175824175824,1.5675876224275271
10.443956043956044,1.535893225203236
10.463736263736264,1.5033065302332564
10.483516483516484,1.4699005231793043
10.503296703296703,1.435754082255117
10.523076923076923,1.4009525802095004
10.542857142857143,1.365588577499974
10.562637362637362,1.3297626173206485
10.582417582417584,1.2935841325416515
10.602197802197802,1.257172472749529
10.621978021978022,1.2206580557329065
