Time (s),Filtered Signal
0.0,-0.010930640995774949
0.033370165745856356,-0.016167930396885726
0.06674033149171271,-0.0131841222622027
0.10011049723756907,0.004487290998209456
0.13348066298342542,0.03950473400679767
0.16685082872928178,0.08899064212193786
0.20022099447513814,0.14428033876895402
0.2335911602209945,0.19312328316042615
0.26696132596685085,0.22403432687451302
0.30033149171270723,0.23093048108270134
0.33370165745856356,0.21554900042573075
0.3670718232044199,0.1861071178154253
0.4004419889502763,0.15278324693115133
0.43381215469613266,0.12254042542426635
0.467182320441989,0.09627793851301289
0.5005524861878453,0.06992560805765684
0.5339226519337017,0.038708110023791924
0.5672928176795581,0.0018663248689726236
0.6006629834254145,-0.0351956311347629
0.6340331491712707,-0.06288318484005771
0.6674033149171271,-0.07263442512645042
0.7007734806629835,-0.06255553272363847
0.7341436464088398,-0.040197468096851395
0.7675138121546962,-0.020548892974488243
0.8008839779005525,-0.019759697295096284
0.8342541436464089,-0.04739753666923903
0.8676243093922653,-0.10099444396785955
0.9009944751381216,-0.16573155286326374
0.934364640883978,-0.2197369872512432
0.9677348066298344,-0.24278224370372062
1.0011049723756906,-0.22448478817044418
1.0344751381215471,-0.16830338794245686
1.0678453038674034,-0.0895792298264087
1.1012154696132597,-0.008674287593946776
1.1345856353591162,0.057484029975925104
1.1679558011049724,0.10152936685527181
1.201325966850829,0.12683442140580403
1.2346961325966852,0.14363904141660816
1.2680662983425415,0.1624513797380607
1.301436464088398,0.18815555615500396
1.3348066298342542,0.21757572577276904
1.3681767955801105,0.24126084581166074
1.401546961325967,0.24810778224419672
1.4349171270718233,0.2302507747849148
1.4682872928176796,0.18590435605342417
1.501657458563536,0.11922775736361775
1.5350276243093923,0.0379116724905774
1.5683977900552488,-0.04981322789018862
1.601767955801105,-0.13711780194762443
1.6351381215469614,-0.2187846357952905
1.6685082872928179,-0.2901747839062427
1.7018784530386741,-0.34612382749398585
1.7352486187845306,-0.3807962298329791
1.768618784530387,-0.38875457164433347
1.8019889502762432,-0.3666763194173019
1.8353591160220997,-0.3148145737185914
1.868729281767956,-0.23757685458754818
1.9020994475138122,-0.1431473157950628
1.9354696132596687,-0.0424203533982142
1.968839779005525,0.05253960413843751
2.0022099447513813,0.13048672934819294
2.0355801104972375,0.1833259518467769
2.0689502762430942,0.208249836804533
2.1023204419889505,0.2087315823746925
2.135690607734807,0.19354272538091633
2.169060773480663,0.17375117043960692
2.2024309392265193,0.1587259921802539
2.235801104972376,0.15287792873374548
2.2691712707182323,0.1547137142235294
2.3025414364640886,0.15875172374346833
2.335911602209945,0.15939229378515385
2.369281767955801,0.15469691680875042
2.402651933701658,0.1478834882958793
2.436022099447514,0.14542956845105998
2.4693922651933704,0.15256172836266094
2.5027624309392267,0.16860500210537513
2.536132596685083,0.1851174660008944
2.5695027624309392,0.18847604135814575
2.602872928176796,0.16612887008164343
2.636243093922652,0.11341074962604432
2.6696132596685085,0.037048583681729724
2.7029834254143648,-0.04708093309578714
2.736353591160221,-0.1213295879441787
2.7697237569060777,-0.175135727288981
2.803093922651934,-0.21046168133883045
2.8364640883977903,-0.24038941091198568
2.8698342541436466,-0.2810714084265623
2.903204419889503,-0.34109103375601396
2.936574585635359,-0.4141572506554397
2.969944751381216,-0.47966497689903037
3.003314917127072,-0.5115000181219597
3.0366850828729284,-0.490725585069765
3.0700552486187846,-0.4151860910661921
3.103425414364641,-0.3003515465864457
3.1367955801104976,-0.17052883216869946
3.170165745856354,-0.045357502690142056
3.20353591160221,0.07015911216260327
3.2369060773480665,0.1853568545522123
3.2702762430939227,0.3126637144368986
3.3036464088397794,0.45198378267402345
3.3370165745856357,0.5811531521151015
3.370386740331492,0.6603362966245837
3.4037569060773483,0.6501281920942187
3.4371270718232045,0.5342307939276739
3.4704972375690613,0.3336078393430234
3.5038674033149175,0.10287957831088095
3.537237569060774,-0.09062699720301977
3.57060773480663,-0.1950314620414089
3.6039779005524863,-0.195072661327329
3.6373480662983426,-0.11597490429644214
3.6707182320441993,-0.008974000580829374
3.7040883977900556,0.07320655855544318
3.737458563535912,0.09832032815696844
3.770828729281768,0.06396875167132268
3.8041988950276244,-0.008211491012444809
3.837569060773481,-0.08825267837865403
3.8709392265193374,-0.15399627963237403
3.9043093922651937,-0.19942487274189125
3.93767955801105,-0.23216278964370254
3.9710497237569062,-0.2631636489778008
4.0044198895027625,-0.2953638875144581
4.037790055248619,-0.31802576571882607
4.071160220994475,-0.31007773820952933
4.104530386740332,-0.2509083841970037
4.1379005524861885,-0.13315185759369702
4.171270718232044,0.02919529202216182
4.204640883977901,0.20195219879125476
4.238011049723757,0.3415256837470759
4.271381215469614,0.410954380768329
4.30475138121547,0.39419215393906376
4.338121546961326,0.3021770538823204
4.371491712707183,0.1679285253434908
4.404861878453039,0.03298917845619405
4.438232044198895,-0.06852722902751826
4.471602209944752,-0.12119277470806704
4.504972375690608,-0.13040528575050492
4.538342541436465,-0.11565348514579878
4.5717127071823205,-0.09926760699783121
4.605082872928177,-0.09647257939157408
4.638453038674034,-0.11088368665715909
4.67182320441989,-0.1361041265351366
4.7051933701657465,-0.1609753808286285
4.738563535911602,-0.17492740075601956
4.771933701657459,-0.17097552334184188
4.805303867403316,-0.14608452539771008
4.8386740331491715,-0.10030229133463912
4.872044198895028,-0.03628177769756413
4.905414364640884,0.04030102734244769
4.938784530386741,0.12033689909274783
4.972154696132597,0.192338102987164
5.005524861878453,0.24560819043311563
5.03889502762431,0.2745010875806556
5.072265193370166,0.28137904444244066
5.105635359116023,0.27593496851335847
5.1390055248618784,0.27029830497609153
5.172375690607735,0.2719400911204647
5.205745856353592,0.2782425925336921
5.239116022099448,0.276323553385702
5.272486187845304,0.2491003309372315
5.30585635359116,0.1849397219606137
5.339226519337017,0.08571779169425915
5.372596685082874,-0.03157550703923473
5.4059668508287295,-0.14128586453795897
5.439337016574586,-0.2206752489936967
5.472707182320442,-0.26054814901905987
5.506077348066299,-0.26901781990198387
5.5394475138121555,-0.26613611718348135
5.572817679558011,-0.27226358834820275
5.606187845303868,-0.2968198068298924
5.639558011049724,-0.33416054141452445
5.672928176795581,-0.36946053630246917
5.706298342541437,-0.3915439377292718
5.739668508287293,-0.4048306701822977
5.77303867403315,-0.4318667463787258
5.806408839779006,-0.5022459533467757
5.839779005524862,-0.6313594704806746
5.873149171270718,-0.799453424237798
5.906519337016575,-0.9437799405535334
5.939889502762432,-0.9720669535000832
5.9732596685082875,-0.7955415061815077
6.006629834254144,-0.3690655061047014
6.04,0.27961230344476046
6.073370165745857,1.0463155455912343
6.1067403314917135,1.7765440715906877
6.140110497237569,2.311934003904662
6.173480662983426,2.538991156900216
6.206850828729282,2.421765040864908
6.240220994475139,2.0077360590032045
6.273591160220995,1.4072036225584117
6.306961325966851,0.7557657354327383
6.340331491712708,0.17391437310316807
6.373701657458564,-0.2631438775376259
6.40707182320442,-0.5372434265729701
6.440441988950277,-0.679249129240539
6.473812154696133,-0.7466090667658599
6.50718232044199,-0.7962937773951813
6.5405524861878455,-0.8637248755734577
6.573922651933702,-0.954930989617913
6.607292817679559,-1.0529058935553675
6.640662983425415,-1.1327349451560724
6.674033149171271,-1.1765742175055607
6.707403314917127,-1.1807411997014146
6.740773480662984,-1.152294504302803
6.774143646408841,-1.0986678987432483
6.8075138121546965,-1.0177468429848686
6.840883977900553,-0.8952113742095107
6.874254143646409,-0.7115166897844121
6.907624309392266,-0.4551599843809935
6.9409944751381225,-0.13505292059858817
6.974364640883978,0.21513922033805924
7.007734806629835,0.5440501717115712
7.041104972375691,0.7988784043627388
7.074475138121548,0.9441098458369063
7.107845303867403,0.97447797731201
7.14121546961326,0.9162740470583219
7.174585635359117,0.816203039825549
7.207955801104973,0.722495866385325
7.241325966850829,0.6663841641333549
7.274696132596685,0.6517577008292598
7.308066298342542,0.6570485146580863
7.341436464088399,0.6479385158770952
7.3748066298342545,0.5948728383491845
7.408176795580111,0.4875749376565651
7.441546961325967,0.3404302072619621
7.474917127071824,0.18681104016463676
7.5082872928176805,0.06518858255012372
7.541657458563536,0.0031380076093053826
7.575027624309393,0.005848080663317241
7.608397790055249,0.053553693189272784
7.641767955801106,0.10859532763502018
7.675138121546962,0.12916846988341152
7.708508287292818,0.08455080772077957
7.741878453038675,-0.03371339384730685
7.775248618784531,-0.2086198907514973
7.808618784530387,-0.40358732344544546
7.841988950276244,-0.5752719584349
7.8753591160221,-0.6886491357990828
7.908729281767957,-0.7288104162614617
7.9420994475138125,-0.7050720939624352
7.975469613259669,-0.6458145184418663
8.008839779005525,-0.5859703935880661
8.042209944751383,-0.551976917892095
8.075580110497238,-0.5501890597906168
8.108950276243094,-0.563648924416186
8.14232044198895,-0.5589508113773933
8.175690607734808,-0.5008157496163164
8.209060773480664,-0.36853601446451356
8.24243093922652,-0.1672460714948896
8.275801104972377,0.07120441952651829
8.309171270718233,0.29868010409584633
8.342541436464089,0.4683531443868689
8.375911602209946,0.5519077827309085
8.409281767955802,0.54882568271132
8.442651933701658,0.48388396888423596
8.476022099447514,0.3945891586328096
8.509392265193371,0.3149430174449726
8.542762430939227,0.2632621022635871
8.576132596685083,0.23914377350087587
8.60950276243094,0.2296482270408972
8.642872928176796,0.2201412983180201
8.676243093922652,0.20342692562320963
8.709613259668508,0.18251664892896566
8.742983425414366,0.16640647543356327
8.776353591160222,0.1621959827750626
8.809723756906077,0.16865907810794092
8.843093922651935,0.1751817696975826
8.87646408839779,0.16669973186946233
8.909834254143647,0.1318359102156574
8.943204419889504,0.06973197259681879
8.97657458563536,-0.00811004878625869
9.009944751381216,-0.0819309891698881
9.043314917127072,-0.131666163625385
9.07668508287293,-0.14486846033113618
9.110055248618785,-0.12099061095038514
9.143425414364641,-0.07040119001083571
9.176795580110499,-0.009103050700399433
9.210165745856354,0.04796552938300671
9.24353591160221,0.0917899661642091
9.276906077348068,0.12025844465300771
9.310276243093924,0.13533557138436958
9.34364640883978,0.13845615176322232
9.377016574585635,0.127032926368332
9.410386740331493,0.09436802209511327
9.443756906077349,0.03344784806617512
9.477127071823205,-0.057116481300454686
9.510497237569062,-0.16832467874616133
9.543867403314918,-0.28056242520400876
9.577237569060774,-0.36943727190401077
9.610607734806631,-0.4160463390830271
9.643977900552487,-0.41707202896565315
9.677348066298343,-0.389071315215734
9.710718232044199,-0.36326729407016145
9.744088397790057,-0.37156208934020096
9.777458563535912,-0.4293515566532761
9.810828729281768,-0.5234416391905266
9.844198895027626,-0.6121368769145991
9.877569060773482,-0.6394490101112703
9.910939226519337,-0.558495445582754
9.944309392265193,-0.353909509820096
9.97767955801105,-0.05246756435477946
10.011049723756907,0.28396501389922296
10.044419889502763,0.5807393318095506
10.07779005524862,0.7780382112397881
10.111160220994476,0.8512693295029332
10.144530386740332,0.8155119148125486
10.17790055248619,0.7133683532039303
10.211270718232045,0.5934702187191911
10.244640883977901,0.4905174132101069
10.278011049723757,0.4156187952432779
10.311381215469615,0.35954183351018815
10.34475138121547,0.3048540355347625
10.378121546961326,0.23923240641272195
10.411491712707184,0.16289889425918064
10.44486187845304,0.08727028462540401
10.478232044198895,0.02693135645969308
10.511602209944753,-0.009728138005068967
10.544972375690609,-0.025857357043252108
10.578342541436465,-0.03491318895760068
10.61171270718232,-0.05408514023478823
10.645082872928178,-0.0962420436366694
10.678453038674034,-0.16448722541730804
10.71182320441989,-0.25144768636612874
10.745193370165747,-0.3427068614306067
10.778563535911603,-0.42196133441671274
10.811933701657459,-0.47538969030821293
10.845303867403315,-0.4940239626491306
10.878674033149172,-0.4744649080792941
10.912044198895028,-0.4189819521408649
10.945414364640884,-0.33556389879539233
10.978784530386742,-0.2374428882570383
11.012154696132598,-0.14103736598509642
11.045524861878453,-0.06181853632002463
11.078895027624311,-0.009064897942262218
11.112265193370167,0.018183826700426307
11.145635359116023,0.031514170355470474
11.179005524861878,0.04882405940959155
11.212375690607736,0.08658422573121174
11.245745856353592,0.15190017644816722
11.279116022099448,0.23804489118904062
11.312486187845305,0.32576396996252
11.345856353591161,0.39010763356380446
11.379226519337017,0.4100345261011079
11.412596685082875,0.3767439555482583
11.44596685082873,0.29722618285649877
11.479337016574586,0.1916218458581049
11.512707182320442,0.08565690747560381
11.5460773480663,0.0014099219669911401
11.579447513812156,-0.04989772948975844
11.612817679558011,-0.07055318283748084
11.646187845303869,-0.07391331323130551
11.679558011049725,-0.07821572774179193
11.71292817679558,-0.09906599593676316
11.746298342541436,-0.14319402708498816
11.779668508287294,-0.2055013062003427
11.81303867403315,-0.2703470126217529
11.846408839779006,-0.31667040274760777
11.879779005524863,-0.3252369189276531
11.91314917127072,-0.2854749732698934
11.946519337016575,-0.199452835485293
11.979889502762433,-0.08162048424841312
12.013259668508288,0.04539997419578852
12.046629834254144,0.1572250603612832
12.08,0.23400701543428246
12.113370165745858,0.26481951757073496
12.146740331491714,0.2494479084178337
12.18011049723757,0.19782427637024236
12.213480662983427,0.1276138808233409
12.246850828729283,0.060263640156881945
12.280220994475139,0.015781990126975808
12.313591160220996,0.007037211312185043
12.346961325966852,0.0351896927909149
12.380331491712708,0.08826291239292504
12.413701657458564,0.144176857742722
12.447071823204421,0.17786686144887814
12.480441988950277,0.17018292763938742
12.513812154696133,0.11517304029363125
12.54718232044199,0.02277927930732853
12.580552486187846,-0.08420240177663933
12.613922651933702,-0.17769893859396368
12.64729281767956,-0.2335307289851446
12.680662983425416,-0.2388523317197146
12.714033149171271,-0.1955124147038861
12.747403314917127,-0.11865850353426381
12.780773480662985,-0.031494386086163804
12.81414364640884,0.04191347247237622
12.847513812154697,0.08358872465342822
12.880883977900554,0.0864344619595499
12.91425414364641,0.0556059606118544
12.947624309392266,0.006146949577393456
12.980994475138122,-0.04238466764426731
13.01436464088398,-0.07263715650956556
13.047734806629835,-0.07532330203536083
13.081104972375691,-0.05212993501536497
13.114475138121549,-0.014485450509180745
13.147845303867404,0.02152177567362618
13.18121546961326,0.04219033488017739
13.214585635359118,0.042303427605598264
13.247955801104974,0.027468490321152627
13.28132596685083,0.011310681262555492
13.314696132596685,0.00843576701486984
13.348066298342543,0.02627532450721934
13.381436464088399,0.059858703413881005
13.414806629834255,0.09250815332560133
13.448176795580112,0.10268851142751972
13.481546961325968,0.07405720116609327
13.514917127071824,0.0038850246748786668
13.548287292817681,-0.09438210988237787
13.581657458563537,-0.19576243694174278
13.615027624309393,-0.27328198326373876
13.648397790055249,-0.3077639171852888
13.681767955801106,-0.2934190244113897
13.715138121546962,-0.23735510816860086
13.748508287292818,-0.15442450910676725
13.781878453038676,-0.060905540462519364
13.815248618784532,0.029710189177292894
13.848618784530387,0.10763836786642983
13.881988950276245,0.16563598290875509
13.9153591160221,0.19807512064977906
13.948729281767957,0.20184829111449384
13.982099447513813,0.1787927955649797
14.01546961325967,0.13765560792137033
14.048839779005526,0.09337485098291641
14.082209944751382,0.0628501202521744
14.11558011049724,0.05856498772507674
14.148950276243095,0.08304429053687759
14.182320441988951,0.12713245041286952
14.215690607734807,0.1733704909784855
14.249060773480664,0.20322443128460474
14.28243093922652,0.2049311647278198
14.315801104972376,0.1783268848359359
14.349171270718234,0.13440525802664696
14.38254143646409,0.08982318964599073
14.415911602209945,0.05894389510044746
14.449281767955803,0.04716879118500881
14.482651933701659,0.048702235297294956
14.516022099447515,0.04975599787200676
14.54939226519337,0.03552210222164836
14.582762430939228,-0.002633576649012944
14.616132596685084,-0.06334865146695456
14.64950276243094,-0.13652814551928902
14.682872928176797,-0.20862327552386578
14.716243093922653,-0.26873462444717544
14.749613259668509,-0.31211531230847805
14.782983425414367,-0.339406947659298
14.816353591160222,-0.35261930617625975
14.849723756906078,-0.35086651308632094
14.883093922651934,-0.32901669943726936
14.916464088397792,-0.280603191951204
14.949834254143648,-0.20361460035226092
14.983204419889503,-0.10571006428989965
15.016574585635361,-0.005245225729502224
15.049944751381217,0.0735551395542361
15.083314917127073,0.10986936624508173
15.116685082872928,0.09601518627139932
15.150055248618786,0.04294266780234964
15.183425414364642,-0.021711768534274607
15.216795580110498,-0.0631031551871227
15.250165745856355,-0.05288933721794542
15.283535911602211,0.018369405471385426
15.316906077348067,0.13569354313700036
15.350276243093925,0.2641384378421696
15.38364640883978,0.36210499046359046
15.417016574585636,0.39822592542908275
15.450386740331492,0.36446603270508243
15.48375690607735,0.27937254612309886
15.517127071823205,0.1797584206380378
15.550497237569061,0.10448684527591967
15.583867403314919,0.07773259572656534
15.617237569060775,0.09921763198005723
15.65060773480663,0.14546335999785706
15.683977900552488,0.18094649050326883
15.717348066298344,0.17378811939736835
15.7507182320442,0.1091224238810131
15.784088397790056,-0.005107205576812076
15.817458563535913,-0.14161329927527283
15.85082872928177,-0.2643996686794799
15.884198895027625,-0.34196585977388166
15.917569060773483,-0.3579586705732199
15.950939226519338,-0.3155264999863422
15.984309392265194,-0.23424050720679893
16.01767955801105,-0.14131758569582675
16.051049723756908,-0.06098839250048022
16.084419889502765,-0.006388168169747172
16.11779005524862,0.022950711895263057
16.151160220994477,0.03752992370244119
16.18453038674033,0.050487353694162636
16.21790055248619,0.07016064501302423
16.251270718232046,0.09605924655232559
16.2846408839779,0.11973650675740077
16.318011049723758,0.12957283898012179
16.351381215469615,0.11675297024575705
16.38475138121547,0.0795190591697586
16.418121546961327,0.024012309463729363
16.451491712707185,-0.038145235325134114
16.48486187845304,-0.09395729561680484
16.518232044198896,-0.13292247256450856
16.551602209944754,-0.14940525511277994
16.584972375690608,-0.14331794922622185
16.618342541436466,-0.11965972017480257
16.651712707182323,-0.08748523001197883
16.685082872928177,-0.05838313589414042
16.718453038674035,-0.04411867142716267
16.751823204419892,-0.05326542751917059
16.785193370165747,-0.08747359051896829
16.818563535911604,-0.13896151355122965
16.851933701657458,-0.19106223132846217
16.885303867403316,-0.22269292773496396
16.918674033149173,-0.2157042023490056
16.952044198895027,-0.16223217504753953
16.985414364640885,-0.06861932627013155
17.018784530386743,0.04625209290334009
17.052154696132597,0.1577923208854454
17.085524861878454,0.24476409429077725
17.118895027624312,0.29655015235313004
17.152265193370166,0.3155308302844994
17.185635359116024,0.3138774368144379
17.21900552486188,0.30667478751010396
17.252375690607735,0.30479138725321625
