Time (s),Filtered Signal
0.0,0.05117551250250274
0.033370165745856356,-0.08035590934083134
0.06674033149171271,-0.1558440242296018
0.10011049723756907,-0.13285402272998967
0.13348066298342542,0.004956238456080944
0.16685082872928178,0.24262982872623295
0.20022099447513814,0.536795360672816
0.2335911602209945,0.8264853758485223
0.26696132596685085,1.0491506209384014
0.30033149171270723,1.1570866647995957
0.33370165745856356,1.1291119902794533
0.3670718232044199,0.9740276535301069
0.4004419889502763,0.7254652954291281
0.43381215469613266,0.4307851017300133
0.467182320441989,0.1383800616299328
0.5005524861878453,-0.11250788907378832
0.5339226519337017,-0.29718388234214516
0.5672928176795581,-0.4062009896067599
0.6006629834254145,-0.44318641958285465
0.6340331491712707,-0.42194000870393217
0.6674033149171271,-0.3639203760149601
0.7007734806629835,-0.2956946573767247
0.7341436464088398,-0.24506605842245013
0.7675138121546962,-0.2351720939372543
0.8008839779005525,-0.277618818452307
0.8342541436464089,-0.36746804081517304
0.8676243093922653,-0.48319447440899127
0.9009944751381216,-0.5929511848867477
0.934364640883978,-0.665372249167368
0.9677348066298344,-0.6804759622450558
1.0011049723756906,-0.6357211496061355
1.0344751381215471,-0.5444411000236677
1.0678453038674034,-0.4276734863295752
1.1012154696132597,-0.3037461486103302
1.1345856353591162,-0.18098690179823243
1.1679558011049724,-0.05702494167401585
1.201325966850829,0.07557630882163205
1.2346961325966852,0.221053274713422
1.2680662983425415,0.37447325023880634
1.301436464088398,0.5214133753666338
1.3348066298342542,0.6432769950831723
1.3681767955801105,0.725089656975834
1.401546961325967,0.7614373228550467
1.4349171270718233,0.7575121148606232
1.4682872928176796,0.7250935473789034
1.501657458563536,0.6759916894247741
1.5350276243093923,0.6165247869906154
1.5683977900552488,0.5455843881479676
1.601767955801105,0.45659781622457923
1.6351381215469614,0.3417352769083921
1.6685082872928179,0.19616856344373704
1.7018784530386741,0.021072038033108195
1.7352486187845306,-0.17469914858505295
1.768618784530387,-0.3739127720773879
1.8019889502762432,-0.5516128687443597
1.8353591160220997,-0.678389104483861
1.868729281767956,-0.7272811359988002
1.9020994475138122,-0.6834212860752749
1.9354696132596687,-0.5528857599426984
1.968839779005525,-0.36581383210677587
2.0022099447513813,-0.17024424579984154
2.0355801104972375,-0.017231854066188487
2.0689502762430942,0.057362214420499276
2.1023204419889505,0.04633612724342952
2.135690607734807,-0.02679644578305816
2.169060773480663,-0.11868331029971407
2.2024309392265193,-0.18516740037088836
2.235801104972376,-0.19961880304067153
2.2691712707182323,-0.16209981354792813
2.3025414364640886,-0.09561145115794822
2.335911602209945,-0.03219546211797117
2.369281767955801,0.003489486710092568
2.402651933701658,0.004858903521030466
2.436022099447514,-0.01620421880240212
2.4693922651933704,-0.03808267640956444
2.5027624309392267,-0.04161898393408873
2.536132596685083,-0.01915823040783686
2.5695027624309392,0.02349787949813277
2.602872928176796,0.07184580235721676
2.636243093922652,0.11043357960630605
2.6696132596685085,0.12922938590103045
2.7029834254143648,0.12607275014233044
2.736353591160221,0.10546240867654129
2.7697237569060777,0.07578255208312316
2.803093922651934,0.04701455083037356
2.8364640883977903,0.02946933192993198
2.8698342541436466,0.03252423426787038
2.903204419889503,0.062100402855148944
2.936574585635359,0.11696598520062051
2.969944751381216,0.18588432256499196
3.003314917127072,0.24849306513848396
3.0366850828729284,0.281494942686982
3.0700552486187846,0.2686318003032515
3.103425414364641,0.2098267461895139
3.1367955801104976,0.12403387729836746
3.170165745856354,0.04283781478265636
3.20353591160221,-0.0032536172268861656
3.2369060773480665,0.0007393310479570307
3.2702762430939227,0.04705836193887257
3.3036464088397794,0.1100931932691258
3.3370165745856357,0.16175660575339626
3.370386740331492,0.18932632191351698
3.4037569060773483,0.2051637809194819
3.4371270718232045,0.2410460016717169
3.4704972375690613,0.32793722512172446
3.5038674033149175,0.47081770125963956
3.537237569060774,0.6326617357627703
3.57060773480663,0.7386538696660703
3.6039779005524863,0.702040847141134
3.6373480662983426,0.46142356487788777
3.6707182320441993,0.012221343436152906
3.7040883977900556,-0.5831464028668025
3.737458563535912,-1.2117062237129952
3.770828729281768,-1.7454844424303935
3.8041988950276244,-2.080232206028831
3.837569060773481,-2.1617261395049323
3.8709392265193374,-1.991983112801717
3.9043093922651937,-1.6178543329821715
3.93767955801105,-1.1110436418345169
3.9710497237569062,-0.5490705310407972
4.0044198895027625,-0.0025287603416067356
4.037790055248619,0.4711911557047816
4.071160220994475,0.8306266558554679
4.104530386740332,1.0523156363861044
4.1379005524861885,1.1330449232250352
4.171270718232044,1.0908436210734846
4.204640883977901,0.962387996319023
4.238011049723757,0.7954949522081375
4.271381215469614,0.6377420656091296
4.30475138121547,0.5245980735899981
4.338121546961326,0.47132442489396187
4.371491712707183,0.47163707435743263
4.404861878453039,0.5032797777111667
4.438232044198895,0.5377871260830164
4.471602209944752,0.5503261615546343
4.504972375690608,0.5261655034898981
4.538342541436465,0.4623862749291539
4.5717127071823205,0.3656156830274923
4.605082872928177,0.24776307299030625
4.638453038674034,0.12172141408782677
4.67182320441989,-0.0017423829033828945
4.7051933701657465,-0.11547565613617702
4.738563535911602,-0.21588489336346134
4.771933701657459,-0.30172520008991016
4.805303867403316,-0.37239649281548665
4.8386740331491715,-0.42659660241072556
4.872044198895028,-0.4620526462503716
4.905414364640884,-0.47649997700317626
4.938784530386741,-0.46933959427418714
4.972154696132597,-0.4429448133714272
5.005524861878453,-0.40274027603447177
5.03889502762431,-0.3558662180366366
5.072265193370166,-0.3090292253510858
5.105635359116023,-0.2665456684555044
5.1390055248618784,-0.22941166624882625
5.172375690607735,-0.1956704620739993
5.205745856353592,-0.16177698135530064
5.239116022099448,-0.12436866820589931
5.272486187845304,-0.08187221209286723
5.30585635359116,-0.03554362413805661
5.339226519337017,0.010310134572203223
5.372596685082874,0.04907151107718392
5.4059668508287295,0.07349778331367782
5.439337016574586,0.07804262300680484
5.472707182320442,0.06114335598900748
5.506077348066299,0.026583439283708415
5.5394475138121555,-0.016811686431179706
5.572817679558011,-0.057313499759098385
5.606187845303868,-0.08364468650071509
5.639558011049724,-0.0883218496422146
5.672928176795581,-0.0696835471991483
5.706298342541437,-0.03184696857930374
5.739668508287293,0.017240215850883082
5.77303867403315,0.06865766425057052
5.806408839779006,0.11499819750030225
5.839779005524862,0.1516098999886154
5.873149171270718,0.176560719987545
5.906519337016575,0.19000616182041444
5.939889502762432,0.19376514065434108
5.9732596685082875,0.19140806409415545
6.006629834254144,0.18845729062047656
6.04,0.19194175295491472
6.073370165745857,0.20879986721753013
6.1067403314917135,0.24331936886869715
6.140110497237569,0.29451248074070363
6.173480662983426,0.35465293472654413
6.206850828729282,0.4099604173239172
6.240220994475139,0.4436650134419818
6.273591160220995,0.4406917184365129
6.306961325966851,0.39239356045611673
6.340331491712708,0.29954637184035815
6.373701657458564,0.17238471401420385
6.40707182320442,0.027610897920470622
6.440441988950277,-0.11646994960710272
6.473812154696133,-0.2448212947303703
6.50718232044199,-0.34880249077144004
6.5405524861878455,-0.42665494377166674
6.573922651933702,-0.48159164445253916
6.607292817679559,-0.5186231134485525
6.640662983425415,-0.5415470560736861
6.674033149171271,-0.5512207389561538
6.707403314917127,-0.5455674799954998
6.740773480662984,-0.5210513560378573
6.774143646408841,-0.47482930640114956
6.8075138121546965,-0.4065998493397032
6.840883977900553,-0.3193649100801137
6.874254143646409,-0.21884793953317036
6.907624309392266,-0.11196451134498964
6.9409944751381225,-0.005206758158199154
6.974364640883978,0.09619275740628709
7.007734806629835,0.18795040412335112
7.041104972375691,0.26565050334353946
7.074475138121548,0.3238397615002066
7.107845303867403,0.3562967965740224
7.14121546961326,0.3579310348153258
7.174585635359117,0.3278284214161902
7.207955801104973,0.2720572155567734
7.241325966850829,0.20446874506022383
7.274696132596685,0.14422394039455783
7.308066298342542,0.11012067678618245
7.341436464088399,0.11348176734765159
7.3748066298342545,0.15255107356072595
7.408176795580111,0.21127006542276447
7.441546961325967,0.2637408638149686
7.474917127071824,0.28318454872725335
7.5082872928176805,0.2519570207817373
7.541657458563536,0.1684139097385331
7.575027624309393,0.047672699640221985
7.608397790055249,-0.083934296042487
7.641767955801106,-0.19809849147715772
7.675138121546962,-0.27342515987897603
7.708508287292818,-0.3005741035481244
7.741878453038675,-0.282419522594493
7.775248618784531,-0.23037717259781318
7.808618784530387,-0.15938099203316827
7.841988950276244,-0.08380165675355802
7.8753591160221,-0.01532870567904491
7.908729281767957,0.0375590674382156
7.9420994475138125,0.06959642485922611
7.975469613259669,0.07899308807835227
8.008839779005525,0.0679017674169524
8.042209944751383,0.04236087823118356
8.075580110497238,0.010989808304381512
8.108950276243094,-0.017579578257667358
8.14232044198895,-0.03763678348884654
8.175690607734808,-0.04830244779040555
8.209060773480664,-0.05332782532649379
8.24243093922652,-0.05868787532000688
8.275801104972377,-0.06903684487882089
8.309171270718233,-0.08480226114752733
8.342541436464089,-0.10151826189424765
8.375911602209946,-0.11194701336347664
8.409281767955802,-0.11006869751170573
8.442651933701658,-0.09487405028777561
8.476022099447514,-0.0717428308224513
8.509392265193371,-0.05026921681349806
8.542762430939227,-0.039275254728822186
8.576132596685083,-0.04147727924097853
8.60950276243094,-0.05081833187789173
8.642872928176796,-0.05436732122314696
8.676243093922652,-0.038332541252120086
8.709613259668508,0.004651531755374675
8.742983425414366,0.07084854999793218
8.776353591160222,0.146181100031792
8.809723756906077,0.21248143716109572
8.843093922651935,0.2562266582534046
8.87646408839779,0.2751295088317571
8.909834254143647,0.2788055702195213
8.943204419889504,0.2827570301179433
8.97657458563536,0.2985496680384818
9.009944751381216,0.3253366317454025
9.043314917127072,0.34749761077794283
9.07668508287293,0.3402175607746264
9.110055248618785,0.2807921677820781
9.143425414364641,0.16038704971789122
9.176795580110499,-0.009500402838368912
9.210165745856354,-0.19921808140841318
9.24353591160221,-0.3710039987472727
9.276906077348068,-0.49240177303915345
9.310276243093924,-0.5470989582981709
9.34364640883978,-0.5387186275778904
9.377016574585635,-0.48658798682377863
9.410386740331493,-0.41612686155030804
9.443756906077349,-0.3484930962879723
9.477127071823205,-0.2937847494193107
9.510497237569062,-0.24995453977293347
9.543867403314918,-0.20689694156762983
9.577237569060774,-0.15316491237890387
9.610607734806631,-0.08214729944191883
9.643977900552487,0.00472308330435306
9.677348066298343,0.09858749276117597
9.710718232044199,0.18679302381191376
9.744088397790057,0.2576177844470787
9.777458563535912,0.3039923926308839
9.810828729281768,0.32485073107026047
9.844198895027626,0.3239795148007147
9.877569060773482,0.30737318363430527
9.910939226519337,0.28060681331432713
9.944309392265193,0.24742438862895122
9.97767955801105,0.2098526637053094
10.011049723756907,0.16924220798824594
10.044419889502763,0.12723450715764362
10.07779005524862,0.08593997231894382
10.111160220994476,0.04732169372174572
10.144530386740332,0.012398989060855622
10.17790055248619,-0.0189965085308427
10.211270718232045,-0.047607025198624024
10.244640883977901,-0.07362441626488708
10.278011049723757,-0.09582168881218771
10.311381215469615,-0.11160150915454649
10.34475138121547,-0.11806102748993913
10.378121546961326,-0.1135222278300812
10.411491712707184,-0.09865369511727963
10.44486187845304,-0.07650789796102997
10.478232044198895,-0.05139249718293334
10.511602209944753,-0.027138840810819808
10.544972375690609,-0.005666592907695947
10.578342541436465,0.013405284599788904
10.61171270718232,0.03188862287848044
10.645082872928178,0.05131466548103118
10.678453038674034,0.0712073342662688
10.71182320441989,0.08819117262112912
10.745193370165747,0.09645466071636379
10.778563535911603,0.08956324234799475
10.811933701657459,0.06307882771843493
10.845303867403315,0.01705653731220009
10.878674033149172,-0.04261695262375117
10.912044198895028,-0.10482413956228333
10.945414364640884,-0.1559261928699152
10.978784530386742,-0.1839324085038072
11.012154696132598,-0.1827556887288537
11.045524861878453,-0.1549032858434314
11.078895027624311,-0.11134512434260976
11.112265193370167,-0.06829271987518588
11.145635359116023,-0.04183313071538687
11.179005524861878,-0.04227674461100463
11.212375690607736,-0.07028583272111386
11.245745856353592,-0.11625110604983371
11.279116022099448,-0.16322353034151302
11.312486187845305,-0.19244942185906955
11.345856353591161,-0.18965130850554993
11.379226519337017,-0.1499241272285316
11.412596685082875,-0.07953987575508929
11.44596685082873,0.006045527275852003
11.479337016574586,0.08738973074542397
11.512707182320442,0.14768967367808442
11.5460773480663,0.1784560206916631
11.579447513812156,0.18214470313741402
11.612817679558011,0.17078558167264557
11.646187845303869,0.16116610539780463
11.679558011049725,0.16837217716032168
11.71292817679558,0.1999588194532548
11.746298342541436,0.2526409784587085
11.779668508287294,0.31247567369092644
11.81303867403315,0.3584846574311971
11.846408839779006,0.36880668015843565
11.879779005524863,0.32780450737821165
11.91314917127072,0.23208131483503577
11.946519337016575,0.09327073218816488
11.979889502762433,-0.06390059116752149
12.013259668508288,-0.20826670424789132
12.046629834254144,-0.3116080188957822
12.08,-0.35731826896942537
12.113370165745858,-0.3449050398555442
12.146740331491714,-0.28857803187785097
12.18011049723757,-0.21078963253937444
12.213480662983427,-0.13374506474702808
12.246850828729283,-0.07250489041854889
12.280220994475139,-0.03217334557595598
12.313591160220996,-0.00952680574109664
12.346961325966852,0.0025735733270980153
12.380331491712708,0.01059152622880211
12.413701657458564,0.01773231889477206
12.447071823204421,0.024128330240621696
12.480441988950277,0.028945410525436328
12.513812154696133,0.03260301727011906
12.54718232044199,0.03745187255539051
12.580552486187846,0.04637521165139151
12.613922651933702,0.060213373853981796
12.64729281767956,0.07581255621390325
12.680662983425416,0.08629451195749722
12.714033149171271,0.0838813263942783
12.747403314917127,0.06398378840313566
12.780773480662985,0.028261107208424664
12.81414364640884,-0.015320929265970472
12.847513812154697,-0.055832862246125735
12.880883977900554,-0.0845533167428244
12.91425414364641,-0.09919566389892809
12.947624309392266,-0.10475734117603823
12.980994475138122,-0.11033039136899109
13.01436464088398,-0.12344980986476457
13.047734806629835,-0.14500624244834992
13.081104972375691,-0.16758916109733774
13.114475138121549,-0.17842208319232963
13.147845303867404,-0.16568847806440642
13.18121546961326,-0.125226247699254
13.214585635359118,-0.06419241144733913
13.247955801104974,0.0004319826440859714
13.28132596685083,0.048271674617716705
13.314696132596685,0.06431115554297377
13.348066298342543,0.046049102946131605
13.381436464088399,0.00556475689201189
13.414806629834255,-0.034879823547008255
13.448176795580112,-0.05213517431490431
13.481546961325968,-0.03233761052391748
13.514917127071824,0.022793663170928586
13.548287292817681,0.09676865863249712
13.581657458563537,0.16622838310617577
13.615027624309393,0.21239109801935782
13.648397790055249,0.2304597545602998
13.681767955801106,0.2320318237097592
13.715138121546962,0.23875257198560668
13.748508287292818,0.26981446243149737
13.781878453038676,0.3293152249155008
13.815248618784532,0.4001429113857032
13.848618784530387,0.44837651093336356
13.881988950276245,0.43720811426007516
13.9153591160221,0.34441904715582095
13.948729281767957,0.17505367288390086
13.982099447513813,-0.037354728468438174
14.01546961325967,-0.2423664829367494
14.048839779005526,-0.39206813098333176
14.082209944751382,-0.459376526270408
14.11558011049724,-0.4467678819214474
14.148950276243095,-0.38184718070390183
14.182320441988951,-0.30271434487220356
14.215690607734807,-0.24077594263969168
14.249060773480664,-0.20915376187544066
14.28243093922652,-0.2012481080321201
14.315801104972376,-0.19858534093922497
14.349171270718234,-0.1827798163903375
14.38254143646409,-0.14526597024095972
14.415911602209945,-0.09052551919726698
14.449281767955803,-0.03232627889786476
14.482651933701659,0.014105472428282145
14.516022099447515,0.03958793544454536
14.54939226519337,0.04460028918885369
14.582762430939228,0.037819016479336796
14.616132596685084,0.030956601048637074
14.64950276243094,0.032852788724691266
14.682872928176797,0.045738457071188884
14.716243093922653,0.06517957314297869
14.749613259668509,0.08324582470601388
14.782983425414367,0.09293688353878127
14.816353591160222,0.09151689324591447
14.849723756906078,0.08121427490626036
14.883093922651934,0.06722434928642544
14.916464088397792,0.05433557013896862
14.949834254143648,0.04413894733123159
14.983204419889503,0.03440584636533118
15.016574585635361,0.021021295954358588
15.049944751381217,0.0014115441611780898
15.083314917127073,-0.02255729274610361
15.116685082872928,-0.04414396462415372
15.150055248618786,-0.05448526108045896
15.183425414364642,-0.047469452262545245
15.216795580110498,-0.024220481100144405
15.250165745856355,0.005538293523495023
15.283535911602211,0.02667542243683308
15.316906077348067,0.025538901512710935
15.350276243093925,-0.002461768236351479
15.38364640883978,-0.04838771097660658
15.417016574585636,-0.09113903410648427
15.450386740331492,-0.1048117877060157
15.48375690607735,-0.06933621252278963
15.517127071823205,0.020081094124982487
15.550497237569061,0.14897554253394193
15.583867403314919,0.28718789483294066
15.617237569060775,0.39883643973795885
15.65060773480663,0.45473474238942463
15.683977900552488,0.44216346447289473
15.717348066298344,0.3680453528194898
15.7507182320442,0.25450873918588146
15.784088397790056,0.12920288010215583
15.817458563535913,0.014929649887596647
15.85082872928177,-0.07688530689152484
15.884198895027625,-0.14656591250889978
15.917569060773483,-0.20125674724019466
15.950939226519338,-0.248007722840254
15.984309392265194,-0.2887319327897987
16.01767955801105,-0.31940089766129165
16.051049723756908,-0.333277395853977
16.084419889502765,-0.32581756801076134
16.11779005524862,-0.29822694641889536
16.151160220994477,-0.25772283988695543
16.18453038674033,-0.21456814570735902
16.21790055248619,-0.17768649395432776
16.251270718232046,-0.15121926535418692
16.2846408839779,-0.13359328933664247
16.318011049723758,-0.11915589025812164
16.351381215469615,-0.10114452232545806
16.38475138121547,-0.07437299660302504
16.418121546961327,-0.03658932394245203
16.451491712707185,0.011535973182728306
16.48486187845304,0.06710772285233522
16.518232044198896,0.12567255018247683
16.551602209944754,0.18165712000910147
16.584972375690608,0.22892468219507298
16.618342541436466,0.2618629502855568
16.651712707182323,0.2769316421307915
16.685082872928177,0.27396752329512264
16.718453038674035,0.25633023526085774
16.751823204419892,0.22944608270498193
16.785193370165747,0.19823521999852206
16.818563535911604,0.16471072196974612
16.851933701657458,0.1271768469171655
16.885303867403316,0.08175761500204509
16.918674033149173,0.025749313798195242
16.952044198895027,-0.03886530800126688
16.985414364640885,-0.1038139382336708
17.018784530386743,-0.1562210893381068
17.052154696132597,-0.18336389048189972
17.085524861878454,-0.17853144833747714
17.118895027624312,-0.14510096421986265
17.152265193370166,-0.09648984058347143
17.185635359116024,-0.0515272497686621
