Time (s),Filtered Signal
0.0,-0.04375307420190496
0.033370165745856356,-0.5337758855096635
0.06674033149171271,-0.8473993576553359
0.10011049723756907,-0.865528600329536
0.13348066298342542,-0.5610670089935761
0.16685082872928178,-0.002612795127307409
0.20022099447513814,0.673497561230099
0.2335911602209945,1.3103213829912668
0.26696132596685085,1.7779649851473227
0.30033149171270723,2.005034576538847
0.33370165745856356,1.9857506522892132
0.3670718232044199,1.7653939625453632
0.4004419889502763,1.4146181357084369
0.43381215469613266,1.0049623952478977
0.467182320441989,0.5939110210710032
0.5005524861878453,0.2211613888652315
0.5339226519337017,-0.0878075587766294
0.5672928176795581,-0.3168019497584194
0.6006629834254145,-0.45692585187192963
0.6340331491712707,-0.5083062472365492
0.6674033149171271,-0.4831324173971873
0.7007734806629835,-0.40646916245933634
0.7341436464088398,-0.31249724920294103
0.7675138121546962,-0.2364374508128984
0.8008839779005525,-0.20490611143097556
0.8342541436464089,-0.2285413420171368
0.8676243093922653,-0.2999477268822661
0.9009944751381216,-0.3977797342265998
0.934364640883978,-0.4952038243971221
0.9677348066298344,-0.5692379178675236
1.0011049723756906,-0.6073157809707701
1.0344751381215471,-0.6088563505555837
1.0678453038674034,-0.581927454510897
1.1012154696132597,-0.5372353018641881
1.1345856353591162,-0.4827106359991298
1.1679558011049724,-0.4214286761406336
1.201325966850829,-0.35367905851620424
1.2346961325966852,-0.28153626712661683
1.2680662983425415,-0.21251754872766027
1.301436464088398,-0.1589785820540098
1.3348066298342542,-0.13212203880629678
1.3681767955801105,-0.13298179181798161
1.401546961325967,-0.14557530006738698
1.4349171270718233,-0.13762915218208105
1.4682872928176796,-0.0711521563818489
1.501657458563536,0.08012359124128973
1.5350276243093923,0.31405839814017983
1.5683977900552488,0.5930244215035895
1.601767955801105,0.8518288457901001
1.6351381215469614,1.0191780577126641
1.6685082872928179,1.0442917285646187
1.7018784530386741,0.9170354367232256
1.7352486187845306,0.6723988064741911
1.768618784530387,0.3772586551320842
1.8019889502762432,0.10549007272142492
1.8353591160220997,-0.08756301994249556
1.868729281767956,-0.18081002522196815
1.9020994475138122,-0.18823448164153214
1.9354696132596687,-0.14674187233872021
1.968839779005525,-0.09809127425707713
2.0022099447513813,-0.0731181272392364
2.0355801104972375,-0.08381335592240596
2.0689502762430942,-0.124319163408713
2.1023204419889505,-0.17794963811149528
2.135690607734807,-0.22563310288969596
2.169060773480663,-0.25201509496307284
2.2024309392265193,-0.2478732742992362
2.235801104972376,-0.20988026806669413
2.2691712707182323,-0.13980180863293093
2.3025414364640886,-0.044583732289015056
2.335911602209945,0.06285150714662638
2.369281767955801,0.16367717789228076
2.402651933701658,0.23582520884530542
2.436022099447514,0.2596451471082543
2.4693922651933704,0.22493358795761487
2.5027624309392267,0.13623337509715774
2.536132596685083,0.01341840694610373
2.5695027624309392,-0.11356829225634277
2.602872928176796,-0.21425106856841217
2.636243093922652,-0.2677130735191259
2.6696132596685085,-0.26906057031799646
2.7029834254143648,-0.22955384874510856
2.736353591160221,-0.17043065157154041
2.7697237569060777,-0.1132107441119988
2.803093922651934,-0.07084351807203623
2.8364640883977903,-0.04370932625583553
2.8698342541436466,-0.022266503957921055
2.903204419889503,0.005047847864627456
2.936574585635359,0.042750755222741264
2.969944751381216,0.08299994014547463
3.003314917127072,0.10734623632598506
3.0366850828729284,0.09542951962309089
3.0700552486187846,0.03681991652662394
3.103425414364641,-0.05990014431885283
3.1367955801104976,-0.16608071267597876
3.170165745856354,-0.2418942621848128
3.20353591160221,-0.25233378287393265
3.2369060773480665,-0.18347308694630704
3.2702762430939227,-0.05101850918596992
3.3036464088397794,0.10400979086105898
3.3370165745856357,0.23172914323989283
3.370386740331492,0.2949360905454938
3.4037569060773483,0.2853575413222639
3.4371270718232045,0.22608978372752564
3.4704972375690613,0.15837037981288205
3.5038674033149175,0.11912064748436557
3.537237569060774,0.12111215091493222
3.57060773480663,0.14678517832063662
3.6039779005524863,0.15957307369323895
3.6373480662983426,0.12667155096197907
3.6707182320441993,0.04015461384311209
3.7040883977900556,-0.07634608794755728
3.737458563535912,-0.1800714096507587
3.770828729281768,-0.23380821333022508
3.8041988950276244,-0.2279412841670142
3.837569060773481,-0.18590729532877334
3.8709392265193374,-0.14889698442697152
3.9043093922651937,-0.14864601838883174
3.93767955801105,-0.18512820621948667
3.9710497237569062,-0.2235749657441005
4.0044198895027625,-0.21367231643733223
4.037790055248619,-0.12016186708739561
4.071160220994475,0.05309896840976814
4.104530386740332,0.25989191228508834
4.1379005524861885,0.4313891428281759
4.171270718232044,0.5080282952009157
4.204640883977901,0.46632314037578426
4.238011049723757,0.3271359389621209
4.271381215469614,0.14287185905375294
4.30475138121547,-0.027627876911962335
4.338121546961326,-0.14252524409518166
4.371491712707183,-0.18800550354963425
4.404861878453039,-0.17477398463384847
4.438232044198895,-0.12607723717465497
4.471602209944752,-0.06611335798106274
4.504972375690608,-0.014430238543733816
4.538342541436465,0.014091603187238054
4.5717127071823205,0.008152754627213937
4.605082872928177,-0.038114803179762825
4.638453038674034,-0.12027025178490146
4.67182320441989,-0.21957151667947744
4.7051933701657465,-0.30465497225877747
4.738563535911602,-0.3407172130070726
4.771933701657459,-0.30326433998662217
4.805303867403316,-0.19006882915258502
4.8386740331491715,-0.025035189635997598
4.872044198895028,0.14879758976151108
4.905414364640884,0.28478287934422086
4.938784530386741,0.35024412515482567
4.972154696132597,0.33840851332914
5.005524861878453,0.26934246596505085
5.03889502762431,0.17948068508970141
5.072265193370166,0.10465658101151475
5.105635359116023,0.06462748635591058
5.1390055248618784,0.056285324598363176
5.172375690607735,0.05835282238409281
5.205745856353592,0.044628218547017554
5.239116022099448,-0.0012507844552560425
5.272486187845304,-0.07693880183557018
5.30585635359116,-0.16248799070744827
5.339226519337017,-0.2303609012324
5.372596685082874,-0.2590138823590469
5.4059668508287295,-0.2433128104050319
5.439337016574586,-0.19692811001280056
5.472707182320442,-0.14586376344830074
5.506077348066299,-0.11639072842157182
5.5394475138121555,-0.12300179378066524
5.572817679558011,-0.16164763490939008
5.606187845303868,-0.2108229611172243
5.639558011049724,-0.23951622334026434
5.672928176795581,-0.21841226628145463
5.706298342541437,-0.13014607414390694
5.739668508287293,0.024361382471964087
5.77303867403315,0.22460525378452226
5.806408839779006,0.4340615207443643
5.839779005524862,0.6079353855379127
5.873149171270718,0.7040304303611634
5.906519337016575,0.6947091821063442
5.939889502762432,0.5765479940114825
5.9732596685082875,0.37366528510686714
6.006629834254144,0.13203182955473514
6.04,-0.09453919912559239
6.073370165745857,-0.2620178402386368
6.1067403314917135,-0.35032337813198783
6.140110497237569,-0.36785025970208196
6.173480662983426,-0.34422405298428743
6.206850828729282,-0.31449091766378406
6.240220994475139,-0.3019448859368993
6.273591160220995,-0.30748468196965995
6.306961325966851,-0.31038263774579944
6.340331491712708,-0.2800109640159353
6.373701657458564,-0.19288903230291804
6.40707182320442,-0.0468529545783577
6.440441988950277,0.1345226270496009
6.473812154696133,0.30948950993675406
6.50718232044199,0.43420972691435594
6.5405524861878455,0.4798936680499514
6.573922651933702,0.4431771567170008
6.607292817679559,0.34531944661553404
6.640662983425415,0.22120132092068975
6.674033149171271,0.10382494961940712
6.707403314917127,0.011803752240955236
6.740773480662984,-0.05458603468906027
6.774143646408841,-0.10777504574311082
6.8075138121546965,-0.161516164203253
6.840883977900553,-0.2202530561405193
6.874254143646409,-0.2749931439681853
6.907624309392266,-0.3077665288871959
6.9409944751381225,-0.3021580463567132
6.974364640883978,-0.25422840611149367
7.007734806629835,-0.17789756340705665
7.041104972375691,-0.10155560538578048
7.074475138121548,-0.0569255922463756
7.107845303867403,-0.06500369163843858
7.14121546961326,-0.12548750658310315
7.174585635359117,-0.21474364625602663
7.207955801104973,-0.2936653829606858
7.241325966850829,-0.32239626719257514
7.274696132596685,-0.27582072878351954
7.308066298342542,-0.15334206729434033
7.341436464088399,0.021033494809432805
7.3748066298342545,0.2080353774692067
7.408176795580111,0.3675625709333688
7.441546961325967,0.4719078030794855
7.474917127071824,0.5124536372448264
7.5082872928176805,0.4978973259501936
7.541657458563536,0.4460813971375645
7.575027624309393,0.3741938967111195
7.608397790055249,0.2922711990649611
7.641767955801106,0.20272249991254335
7.675138121546962,0.10524291767548269
7.708508287292818,0.0036439663554683555
7.741878453038675,-0.08987856933386393
7.775248618784531,-0.15621815695629138
7.808618784530387,-0.1766808191555025
7.841988950276244,-0.14285154031223576
7.8753591160221,-0.0637264549968762
7.908729281767957,0.03440386365469214
7.9420994475138125,0.11640715240130638
7.975469613259669,0.1517597361079334
8.008839779005525,0.12672366391768197
8.042209944751383,0.049369177273527465
8.075580110497238,-0.05481269603632621
8.108950276243094,-0.1541617836767977
8.14232044198895,-0.22321572232149262
8.175690607734808,-0.25055382500676565
8.209060773480664,-0.2395348201044653
8.24243093922652,-0.20327637409897872
8.275801104972377,-0.1576994008816701
8.309171270718233,-0.11632974506458996
8.342541436464089,-0.08837958175201928
8.375911602209946,-0.07912572604602605
8.409281767955802,-0.09042799408694094
8.442651933701658,-0.11999722920941484
8.476022099447514,-0.1599754364104612
8.509392265193371,-0.19693991018772347
8.542762430939227,-0.21522758643937898
8.576132596685083,-0.20334746898368272
8.60950276243094,-0.1605224839493633
8.642872928176796,-0.09908903367001841
8.676243093922652,-0.03992275788605546
8.709613259668508,-0.0018567645521511476
8.742983425414366,0.009891342651162306
8.776353591160222,0.00957780627142802
8.809723756906077,0.026502558297753248
8.843093922651935,0.09092587646307883
8.87646408839779,0.21656097289921458
8.909834254143647,0.388661752283028
8.943204419889504,0.5648422835776649
8.97657458563536,0.6898069704689828
9.009944751381216,0.7180318446682796
9.043314917127072,0.6338696168314172
9.07668508287293,0.4591760227961687
9.110055248618785,0.24435626392392357
9.143425414364641,0.04687847110757408
9.176795580110499,-0.0924545369927962
9.210165745856354,-0.16419456348435427
9.24353591160221,-0.18940279109068295
9.276906077348068,-0.20470479463415334
9.310276243093924,-0.24151330725668135
9.34364640883978,-0.3099692624781632
9.377016574585635,-0.395026392969734
9.410386740331493,-0.46554812912341414
9.443756906077349,-0.4908443024348515
9.477127071823205,-0.4559305684979924
9.510497237569062,-0.36820665065029357
9.543867403314918,-0.2531081545659427
9.577237569060774,-0.141865122700803
9.610607734806631,-0.05796101651884688
9.643977900552487,-0.00873158753329487
9.677348066298343,0.014720412316512898
9.710718232044199,0.030448116119932547
9.744088397790057,0.05567230447221479
9.777458563535912,0.09872640259696296
9.810828729281768,0.15609854157665212
9.844198895027626,0.21503392028645021
9.877569060773482,0.2598036360471576
9.910939226519337,0.27855778934819697
9.944309392265193,0.26783880214779154
9.97767955801105,0.2330745925257017
10.011049723756907,0.1851890867906308
10.044419889502763,0.13517589463950008
10.07779005524862,0.0893560007858966
10.111160220994476,0.047627862453550315
10.144530386740332,0.0054622845210270865
10.17790055248619,-0.04154301980098813
10.211270718232045,-0.09307063137391745
10.244640883977901,-0.14204340570958496
10.278011049723757,-0.17649005821930125
10.311381215469615,-0.1846846474577251
10.34475138121547,-0.16112992443574964
10.378121546961326,-0.11028335115525885
10.411491712707184,-0.04586230614742843
10.44486187845304,0.0142448379173201
10.478232044198895,0.0551320470071669
10.511602209944753,0.07065119649508246
10.544972375690609,0.06508694069136174
10.578342541436465,0.05011919910624808
10.61171270718232,0.03875562479077479
10.645082872928178,0.03919630310542098
10.678453038674034,0.05134697453742827
10.71182320441989,0.06725981275715048
10.745193370165747,0.0749981808727801
10.778563535911603,0.06412351418308547
10.811933701657459,0.030606630582677794
10.845303867403315,-0.020605635599994357
10.878674033149172,-0.07625387699472827
10.912044198895028,-0.11856243727500404
10.945414364640884,-0.1311634227829713
10.978784530386742,-0.10537572101121108
11.012154696132598,-0.04460497905270231
11.045524861878453,0.0351803711142906
11.078895027624311,0.10980336779361029
11.112265193370167,0.1550290549422845
11.145635359116023,0.1555247722380754
11.179005524861878,0.11079899103345749
11.212375690607736,0.03529282592345501
11.245745856353592,-0.04759804421707347
11.279116022099448,-0.11486425130596747
11.312486187845305,-0.1522423630405343
11.345856353591161,-0.15787242490761522
11.379226519337017,-0.14008693695777494
11.412596685082875,-0.11119245971156605
11.44596685082873,-0.08092152994267843
11.479337016574586,-0.052944563819575345
11.512707182320442,-0.02578949296340346
11.5460773480663,0.0030248576918848404
11.579447513812156,0.03251118427147256
11.612817679558011,0.056289610823447515
11.646187845303869,0.06458434619967487
11.679558011049725,0.04925309948092883
11.71292817679558,0.009154096468991272
11.746298342541436,-0.04723932900358715
11.779668508287294,-0.10378565853053091
11.81303867403315,-0.14265259512443915
11.846408839779006,-0.1516053808658174
11.879779005524863,-0.1290226525713876
11.91314917127072,-0.08402682692637196
11.946519337016575,-0.03149126794318101
11.979889502762433,0.015697213894727446
12.013259668508288,0.053217508239641
12.046629834254144,0.08723944858343582
12.08,0.13043255403029266
12.113370165745858,0.1937946637272445
12.146740331491714,0.27828743146496543
12.18011049723757,0.37058731983032606
12.213480662983427,0.44545647989459364
12.246850828729283,0.4742004124602639
12.280220994475139,0.4358786346431381
12.313591160220996,0.3266282824095872
12.346961325966852,0.16312749644824343
12.380331491712708,-0.02150852510583903
12.413701657458564,-0.18816591142352038
12.447071823204421,-0.3047437621984259
12.480441988950277,-0.3567931215755831
12.513812154696133,-0.35152262298349013
12.54718232044199,-0.31336772079928954
12.580552486187846,-0.27272555389316294
12.613922651933702,-0.25243582033557743
12.64729281767956,-0.2577528731020846
12.680662983425416,-0.27422385228475743
12.714033149171271,-0.27455158797766455
12.747403314917127,-0.23166812637223946
12.780773480662985,-0.13258805143466468
12.81414364640884,0.012782853238247701
12.847513812154697,0.1718163757347112
12.880883977900554,0.29888040817415856
12.91425414364641,0.3515366909409145
12.947624309392266,0.30741999217899385
12.980994475138122,0.17518674314030377
13.01436464088398,-0.0054392437129434845
13.047734806629835,-0.1756564857354132
13.081104972375691,-0.2779313806551192
13.114475138121549,-0.2771722221182354
13.147845303867404,-0.1742022503259715
13.18121546961326,-0.005695262313982768
13.214585635359118,0.1697259173364396
13.247955801104974,0.29355464691225885
13.28132596685083,0.3284240830722365
13.314696132596685,0.26959786711008615
13.348066298342543,0.14304326809017645
13.381436464088399,-0.007685275212452356
13.414806629834255,-0.13899531111539026
13.448176795580112,-0.2215931231065871
13.481546961325968,-0.2466791220408922
13.514917127071824,-0.22349484593123659
13.548287292817681,-0.17136908230738931
13.581657458563537,-0.11070934537518744
13.615027624309393,-0.05634797256473737
13.648397790055249,-0.0145510451655915
13.681767955801106,0.016701670061214625
13.715138121546962,0.04516515213191784
13.748508287292818,0.08034522340260183
13.781878453038676,0.12879783793380456
13.815248618784532,0.18981303816111827
13.848618784530387,0.2531863170811584
13.881988950276245,0.3007829187914505
13.9153591160221,0.3123989636203965
13.948729281767957,0.2742705644039206
13.982099447513813,0.18663938925316798
14.01546961325967,0.06643311551269185
14.048839779005526,-0.05703223242540984
14.082209944751382,-0.15212024427405393
14.11558011049724,-0.19651254839962223
14.148950276243095,-0.18524324745227172
14.182320441988951,-0.13158966155802226
14.215690607734807,-0.06065288367750148
14.249060773480664,0.0012059817298723963
14.28243093922652,0.03626611604398953
14.315801104972376,0.04058350771325848
14.349171270718234,0.022760496961228366
14.38254143646409,-0.002313587146004628
14.415911602209945,-0.0213979592013286
14.449281767955803,-0.028830158468630268
14.482651933701659,-0.02804942178116262
14.516022099447515,-0.028481451853161834
14.54939226519337,-0.039625741780532645
14.582762430939228,-0.06532026991697443
14.616132596685084,-0.1009416574506142
14.64950276243094,-0.13488336558811478
14.682872928176797,-0.15367243723805765
14.716243093922653,-0.14838645423216604
14.749613259668509,-0.11934693645944995
14.782983425414367,-0.07672019456143832
14.816353591160222,-0.03643380617212931
14.849723756906078,-0.012999420976313772
14.883093922651934,-0.012453153329709716
14.916464088397792,-0.02887144465080392
14.949834254143648,-0.04653800882420653
14.983204419889503,-0.04730771480313842
15.016574585635361,-0.020100279617467774
15.049944751381217,0.032007008905803415
15.083314917127073,0.09104809474539341
15.116685082872928,0.13108407450670534
15.150055248618786,0.13025427122545524
15.183425414364642,0.08235136561051472
15.216795580110498,0.0017756012984119795
15.250165745856355,-0.08146068759875946
15.283535911602211,-0.13492242608956304
15.316906077348067,-0.1387014287360226
15.350276243093925,-0.09425436720362496
15.38364640883978,-0.022244129116200762
15.417016574585636,0.049502594319676255
15.450386740331492,0.10117075029264677
15.48375690607735,0.13061589963529033
15.517127071823205,0.15199681408431184
15.550497237569061,0.18434610157623732
15.583867403314919,0.23704411236393486
15.617237569060775,0.3010486878354037
15.65060773480663,0.35131555235673384
15.683977900552488,0.35918480889914794
15.717348066298344,0.3076616109890942
15.7507182320442,0.20097256851447556
15.784088397790056,0.0632993250823402
15.817458563535913,-0.07214107309565156
15.85082872928177,-0.17730392068429435
15.884198895027625,-0.23925150900212638
15.917569060773483,-0.2614086309223362
15.950939226519338,-0.2570079420780715
15.984309392265194,-0.2397166079729085
16.01767955801105,-0.21714429888063527
16.051049723756908,-0.19024650028333856
16.084419889502765,-0.1576008836034787
16.11779005524862,-0.12072938426416431
16.151160220994477,-0.08654351032844103
16.18453038674033,-0.06525880589492082
16.21790055248619,-0.06508813457822231
16.251270718232046,-0.08689250247350791
16.2846408839779,-0.1218707540687303
16.318011049723758,-0.1536541777214715
16.351381215469615,-0.16395979426091986
16.38475138121547,-0.13938303312123201
16.418121546961327,-0.07657396364248333
16.451491712707185,0.016121861113588317
16.48486187845304,0.12098807937837291
16.518232044198896,0.21619384982577317
16.551602209944754,0.28206603040931183
16.584972375690608,0.30639635421231837
16.618342541436466,0.28739885293244605
16.651712707182323,0.23378077370419179
16.685082872928177,0.16211440786064457
16.718453038674035,0.09217951198738297
16.751823204419892,0.04130216025797094
16.785193370165747,0.019065079264547244
16.818563535911604,0.02401526403633921
16.851933701657458,0.04383755129249115
16.885303867403316,0.0595955698185799
16.918674033149173,0.0530988082441981
16.952044198895027,0.014807964724067013
16.985414364640885,-0.0511238945531612
17.018784530386743,-0.12732473062889366
17.052154696132597,-0.18959011846327425
17.085524861878454,-0.21682828251793318
17.118895027624312,-0.20035960143158726
17.152265193370166,-0.14841233312887944
