Time (s),Filtered Signal
0.0,-0.004514003363549254
0.033370165745856356,-0.18299975713882502
0.06674033149171271,-0.3343723653666868
0.10011049723756907,-0.4360721459403422
0.13348066298342542,-0.47337912693931544
0.16685082872928178,-0.4420932127580274
0.20022099447513814,-0.3495292507434714
0.2335911602209945,-0.2133021344000435
0.26696132596685085,-0.057854653750817435
0.30033149171270723,0.09066166524015049
0.33370165745856356,0.2099677496479308
0.3670718232044199,0.28626668802186317
0.4004419889502763,0.31664130300223226
0.43381215469613266,0.30858310380087733
0.467182320441989,0.27679610012830663
0.5005524861878453,0.23821154566125916
0.5339226519337017,0.20671901464895778
0.5672928176795581,0.18927556616360028
0.6006629834254145,0.1846713983941492
0.6340331491712707,0.1853343187679643
0.6674033149171271,0.18140991081015181
0.7007734806629835,0.16542103455295554
0.7341436464088398,0.1355489828184564
0.7675138121546962,0.09617939542181488
0.8008839779005525,0.055582151463480285
0.8342541436464089,0.021870817344466383
0.8676243093922653,-0.0008918523668606989
0.9009944751381216,-0.01471674012529839
0.934364640883978,-0.02698960417943788
0.9677348066298344,-0.04737142599393235
1.0011049723756906,-0.08358179584836967
1.0344751381215471,-0.13775510217442657
1.0678453038674034,-0.20480798887723903
1.1012154696132597,-0.2734890834555698
1.1345856353591162,-0.3297988601091103
1.1679558011049724,-0.3616104154338547
1.201325966850829,-0.36286347102758304
1.2346961325966852,-0.33578775913841247
1.2680662983425415,-0.29024059662476837
1.301436464088398,-0.2402675496691648
1.3348066298342542,-0.19909277543793957
1.3681767955801105,-0.17446216020488448
1.401546961325967,-0.16618958777265544
1.4349171270718233,-0.16680916335945506
1.4682872928176796,-0.1648218627882417
1.501657458563536,-0.14889603326761788
1.5350276243093923,-0.11117682678068429
1.5683977900552488,-0.04865375434853658
1.601767955801105,0.037234554769351426
1.6351381215469614,0.14171449383830237
1.6685082872928179,0.2574479493159452
1.7018784530386741,0.37459946514775855
1.7352486187845306,0.48069985814220406
1.768618784530387,0.5612416052252933
1.8019889502762432,0.6017034678712008
1.8353591160220997,0.590944075853624
1.868729281767956,0.5250289937121877
1.9020994475138122,0.40999428068861615
1.9354696132596687,0.26209481431006826
1.968839779005525,0.10480749217068738
2.0022099447513813,-0.03692775456961315
2.0355801104972375,-0.143478412386931
2.0689502762430942,-0.20582005511607374
2.1023204419889505,-0.2271891030532607
2.135690607734807,-0.22030549606369318
2.169060773480663,-0.2013166160635672
2.2024309392265193,-0.18312730291438026
2.235801104972376,-0.17104764930185168
2.2691712707182323,-0.1625185251463707
2.3025414364640886,-0.1506423274379045
2.335911602209945,-0.12939420635784984
2.369281767955801,-0.09766987999740619
2.402651933701658,-0.060108270477947215
2.436022099447514,-0.024492088246892398
2.4693922651933704,0.0025340013343565465
2.5027624309392267,0.018764828022730214
2.536132596685083,0.02673912190304441
2.5695027624309392,0.030915921091298548
2.602872928176796,0.03363128235033047
2.636243093922652,0.03268346821514398
2.6696132596685085,0.022552091233675867
2.7029834254143648,-0.0010232262777397562
2.736353591160221,-0.03582857916772813
2.7697237569060777,-0.07113043668042175
2.803093922651934,-0.09138224300261769
2.8364640883977903,-0.08505463062980492
2.8698342541436466,-0.05434859299484341
2.903204419889503,-0.019707263173649053
2.936574585635359,-0.014533653183490815
2.969944751381216,-0.07022060065711479
3.003314917127072,-0.19738158422431923
3.0366850828729284,-0.3728038640310111
3.0700552486187846,-0.5405606004080902
3.103425414364641,-0.6297009324700974
3.1367955801104976,-0.5826168165042086
3.170165745856354,-0.38186077628493836
3.20353591160221,-0.06252799293301375
3.2369060773480665,0.29678264786878933
3.2702762430939227,0.6015639228514573
3.3036464088397794,0.7758278881802965
3.3370165745856357,0.7884264559189899
3.370386740331492,0.6604685924754127
3.4037569060773483,0.4522348332020036
3.4371270718232045,0.23724461912038602
3.4704972375690613,0.07574564627850618
3.5038674033149175,-0.0018517461383113236
3.537237569060774,0.0026999883373775694
3.57060773480663,0.06483479206702907
3.6039779005524863,0.15149342898837664
3.6373480662983426,0.2335368353117945
3.6707182320441993,0.2922110752151745
3.7040883977900556,0.31937860644112626
3.737458563535912,0.313966457187604
3.770828729281768,0.2778649360141035
3.8041988950276244,0.21356336527739628
3.837569060773481,0.12408339111486558
3.8709392265193374,0.014299009150862182
3.9043093922651937,-0.10786559953202438
3.93767955801105,-0.23154250366391058
3.9710497237569062,-0.3446297271997324
4.0044198895027625,-0.4364827586881226
4.037790055248619,-0.5004382017472476
4.071160220994475,-0.5350785304785473
4.104530386740332,-0.5437126839176241
4.1379005524861885,-0.5323325853358585
4.171270718232044,-0.5069569111274643
4.204640883977901,-0.4715207292781724
4.238011049723757,-0.427218526095245
4.271381215469614,-0.37355309029478745
4.30475138121547,-0.31053026257068156
4.338121546961326,-0.2408058256463013
4.371491712707183,-0.17046050297376536
4.404861878453039,-0.10761461384720018
4.438232044198895,-0.059153142997998925
4.471602209944752,-0.026951103826140722
4.504972375690608,-0.005565976966206729
4.538342541436465,0.017019284685410172
4.5717127071823205,0.055315706255875965
4.605082872928177,0.12027241668307988
4.638453038674034,0.21378472024698827
4.67182320441989,0.3263492721468683
4.7051933701657465,0.43923291803518183
4.738563535911602,0.5305539752787622
4.771933701657459,0.582875261941685
4.805303867403316,0.5891587572290184
4.8386740331491715,0.5546267531248054
4.872044198895028,0.49390054612858
4.905414364640884,0.4248656233096719
4.938784530386741,0.36204525328459525
4.972154696132597,0.31225574794260885
5.005524861878453,0.2740588647129506
5.03889502762431,0.24070751503055085
5.072265193370166,0.204792617480435
5.105635359116023,0.16229371788862693
5.1390055248618784,0.11434611371863956
5.172375690607735,0.0663558775802922
5.205745856353592,0.025396229335444564
5.239116022099448,-0.0025719703342370025
5.272486187845304,-0.014460559669271478
5.30585635359116,-0.010587776279649548
5.339226519337017,0.00533036636848338
5.372596685082874,0.025940810008411277
5.4059668508287295,0.03978972244096003
5.439337016574586,0.03177266253636114
5.472707182320442,-0.01397616638575768
5.506077348066299,-0.10827466146924519
5.5394475138121555,-0.24988348798344948
5.572817679558011,-0.4210714985119462
5.606187845303868,-0.5898092429877332
5.639558011049724,-0.7202626043657564
5.672928176795581,-0.7888591453050946
5.706298342541437,-0.7988988764827639
5.739668508287293,-0.7851213288735777
5.77303867403315,-0.8025550433989329
5.806408839779006,-0.9009641925857781
5.839779005524862,-1.0944250309887213
5.873149171270718,-1.340711680856289
5.906519337016575,-1.5435830518146219
5.939889502762432,-1.5820141397400838
5.9732596685082875,-1.357300682938973
6.006629834254144,-0.8382995553780879
6.04,-0.08327044548561474
6.073370165745857,0.7737769409250399
6.1067403314917135,1.567604097028627
6.140110497237569,2.1573113358299207
6.173480662983426,2.4681216954134846
6.206850828729282,2.502674654241093
6.240220994475139,2.3214649012132234
6.273591160220995,2.006955328331362
6.306961325966851,1.6311622611949737
6.340331491712708,1.2404225204973374
6.373701657458564,0.8587472370510633
6.40707182320442,0.500719508615507
6.440441988950277,0.18201699540183397
6.473812154696133,-0.07943546537992952
6.50718232044199,-0.27049115682718805
6.5405524861878455,-0.39105847573807156
6.573922651933702,-0.4565709694146674
6.607292817679559,-0.4921579344843501
6.640662983425415,-0.5216574424237139
6.674033149171271,-0.5577039027518046
6.707403314917127,-0.598215931994027
6.740773480662984,-0.6307825196745228
6.774143646408841,-0.6421470235734804
6.8075138121546965,-0.6274829072484289
6.840883977900553,-0.5944974688519953
6.874254143646409,-0.5602138490627921
6.907624309392266,-0.5421096492981371
6.9409944751381225,-0.5482592989968175
6.974364640883978,-0.5717597154733628
7.007734806629835,-0.592642041518468
7.041104972375691,-0.586669935967869
7.074475138121548,-0.5368173548587231
7.107845303867403,-0.44171344887867287
7.14121546961326,-0.3168122058231452
7.174585635359117,-0.1877810858603312
7.207955801104973,-0.07960721603987654
7.241325966850829,-0.006976026434833464
7.274696132596685,0.02955043483537578
7.308066298342542,0.04047799638554883
7.341436464088399,0.04015677153323123
7.3748066298342545,0.03999412765902658
7.408176795580111,0.04571767626222916
7.441546961325967,0.05924053629381345
7.474917127071824,0.08260468465881704
7.5082872928176805,0.12034681156768445
7.541657458563536,0.1780817971797479
7.575027624309393,0.258079299954924
7.608397790055249,0.3550729497624352
7.641767955801106,0.455768090272178
7.675138121546962,0.5432441331736011
7.708508287292818,0.6041178763151053
7.741878453038675,0.6341910753385572
7.775248618784531,0.6389112066622556
7.808618784530387,0.6280962470443484
7.841988950276244,0.6080642863599661
7.8753591160221,0.5761595559302632
7.908729281767957,0.5213992409698903
7.9420994475138125,0.43128521819610277
7.975469613259669,0.3009891885242074
8.008839779005525,0.1395072239485021
8.042209944751383,-0.031018252447186714
8.075580110497238,-0.18279634587261887
8.108950276243094,-0.29297262426236526
8.14232044198895,-0.3520644419047564
8.175690607734808,-0.3663895671254435
8.209060773480664,-0.3538641058994264
8.24243093922652,-0.3357150040147706
8.275801104972377,-0.3281545813158884
8.309171270718233,-0.3374242708202072
8.342541436464089,-0.35953160543277174
8.375911602209946,-0.38376835088534794
8.409281767955802,-0.39780637701833793
8.442651933701658,-0.39218897971408884
8.476022099447514,-0.36295934021550247
8.509392265193371,-0.3122164846393944
8.542762430939227,-0.24698457643422658
8.576132596685083,-0.1768844073945698
8.60950276243094,-0.11108774760729592
8.642872928176796,-0.05526332193730357
8.676243093922652,-0.009607921954264336
8.709613259668508,0.030884481423229238
8.742983425414366,0.07346484913373179
8.776353591160222,0.12289252772500088
8.809723756906077,0.1771205285939545
8.843093922651935,0.22590840337385673
8.87646408839779,0.25374659738042454
8.909834254143647,0.2463427167836114
8.943204419889504,0.1978786464315611
8.97657458563536,0.1154683935973442
9.009944751381216,0.018279761766217435
9.043314917127072,-0.06878860574322239
9.07668508287293,-0.12434822036664767
9.110055248618785,-0.1386445554471687
9.143425414364641,-0.11692020035647088
9.176795580110499,-0.0764905033835023
9.210165745856354,-0.038834650734743646
9.24353591160221,-0.02021994483337305
9.276906077348068,-0.024970560079442566
9.310276243093924,-0.04423378003173506
9.34364640883978,-0.06060912169485722
9.377016574585635,-0.05644456381426338
9.410386740331493,-0.02210221690774099
9.443756906077349,0.039354613280928964
9.477127071823205,0.1129757571578103
9.510497237569062,0.17784917176074513
9.543867403314918,0.2157204800324593
9.577237569060774,0.21888395572158342
9.610607734806631,0.19419037364752675
9.643977900552487,0.16137546929001292
9.677348066298343,0.14590086597431895
9.710718232044199,0.16853762892332752
9.744088397790057,0.23539833048138237
9.777458563535912,0.3324697820088279
9.810828729281768,0.4275536234060485
9.844198895027626,0.4799729306007891
9.877569060773482,0.4551830602251025
9.910939226519337,0.3388433652467174
9.944309392265193,0.1443615926595498
9.97767955801105,-0.0898832450519769
10.011049723756907,-0.3131346527131336
10.044419889502763,-0.4796884495491842
10.07779005524862,-0.5638384737156336
10.111160220994476,-0.5661713082158294
10.144530386740332,-0.509184313251116
10.17790055248619,-0.4251711498171483
10.211270718232045,-0.34254412228203124
10.244640883977901,-0.276724771972752
10.278011049723757,-0.2287451789014911
10.311381215469615,-0.19058370676591063
10.34475138121547,-0.15322186131648813
10.378121546961326,-0.11284198164272781
10.411491712707184,-0.07241319320630664
10.44486187845304,-0.03881558489142804
10.478232044198895,-0.01794114680233295
10.511602209944753,-0.010800100165871034
10.544972375690609,-0.012570882329630724
10.578342541436465,-0.014672393578757012
10.61171270718232,-0.008430421258762007
10.645082872928178,0.01156835377978355
10.678453038674034,0.04581283958373488
10.71182320441989,0.09025396120293837
10.745193370165747,0.13819467122903625
10.778563535911603,0.18270365388318016
10.811933701657459,0.21863258715446718
10.845303867403315,0.2436681417834115
10.878674033149172,0.25826147872422034
10.912044198895028,0.26461878062820704
10.945414364640884,0.26518016342304995
10.978784530386742,0.2611615896890462
11.012154696132598,0.2517460860057643
11.045524861878453,0.23432016158778263
11.078895027624311,0.20574534653216317
11.112265193370167,0.16415231050242216
11.145635359116023,0.11039632325258589
11.179005524861878,0.048376149711610306
11.212375690607736,-0.016038803420317074
11.245745856353592,-0.07695939041361233
11.279116022099448,-0.13027336340675466
11.312486187845305,-0.1743615674865656
11.345856353591161,-0.20949395117010175
11.379226519337017,-0.2364602190452
11.412596685082875,-0.2553484629228482
11.44596685082873,-0.26511819777332496
11.479337016574586,-0.2640059727563768
11.512707182320442,-0.2503298880306977
11.5460773480663,-0.22319784790321356
11.579447513812156,-0.1828826209559601
11.612817679558011,-0.1309139060297352
11.646187845303869,-0.0700406054185223
11.679558011049725,-0.004136612841267821
11.71292817679558,0.06199646067167176
11.746298342541436,0.12301089393252507
11.779668508287294,0.17359511931227967
11.81303867403315,0.20917866632485496
11.846408839779006,0.22662659599400933
11.879779005524863,0.2247842895011356
11.91314917127072,0.20474494087238104
11.946519337016575,0.16972681135873072
11.979889502762433,0.12450213964705285
12.013259668508288,0.07446003291092826
12.046629834254144,0.024576970196575884
12.08,-0.021329905866049367
12.113370165745858,-0.06081362974433246
12.146740331491714,-0.09252825750834277
12.18011049723757,-0.11580430195465095
12.213480662983427,-0.13039812202816506
12.246850828729283,-0.1364907824976783
12.280220994475139,-0.13474407117174456
12.313591160220996,-0.12619146159513223
12.346961325966852,-0.11196520653882616
12.380331491712708,-0.09310152501591029
12.413701657458564,-0.0706614938156836
12.447071823204421,-0.04611813281372397
12.480441988950277,-0.02162847006767461
12.513812154696133,0.0002483557612186374
12.54718232044199,0.01748801814130585
12.580552486187846,0.029761708318320534
12.613922651933702,0.039052871554160665
12.64729281767956,0.04911121771943682
12.680662983425416,0.06372896029472483
12.714033149171271,0.08454215222238198
12.747403314917127,0.10946199542127372
12.780773480662985,0.13267106746411314
12.81414364640884,0.1464346907177941
12.847513812154697,0.14410548175958873
12.880883977900554,0.12306656961406914
12.91425414364641,0.08628985864690215
12.947624309392266,0.041743907338754466
12.980994475138122,-0.00017420008371085377
13.01436464088398,-0.030143413182117884
13.047734806629835,-0.042964862570644205
13.081104972375691,-0.03907131894315074
13.114475138121549,-0.02418923199859688
13.147845303867404,-0.007590667280056008
13.18121546961326,0.0003067826246586262
13.214585635359118,-0.009595305757779993
13.247955801104974,-0.04278187978805624
13.28132596685083,-0.09911445214070798
13.314696132596685,-0.1714763825066889
13.348066298342543,-0.2458076189443606
13.381436464088399,-0.30326320972072995
13.414806629834255,-0.3246105925518419
13.448176795580112,-0.2959438873227393
13.481546961325968,-0.213882933150893
13.514917127071824,-0.08817896163871237
13.548287292817681,0.05970055751863048
13.581657458563537,0.2020598314349652
13.615027624309393,0.3129807408651508
13.648397790055249,0.3760960975986906
13.681767955801106,0.3891610125378264
13.715138121546962,0.3634657033089167
13.748508287292818,0.3181292433515073
13.781878453038676,0.27153282526121597
13.815248618784532,0.233569994791338
13.848618784530387,0.20220477785046914
13.881988950276245,0.16593878682712612
13.9153591160221,0.11099033623010697
13.948729281767957,0.02965838061999481
13.982099447513813,-0.07427030667317512
14.01546961325967,-0.18571730192836158
14.048839779005526,-0.2839092892306928
14.082209944751382,-0.3504989977006753
14.11558011049724,-0.3762687168476336
14.148950276243095,-0.3635065001395643
14.182320441988951,-0.3235522786204065
14.215690607734807,-0.271359682452547
14.249060773480664,-0.21997224253135567
14.28243093922652,-0.17722749377210464
14.315801104972376,-0.14539555715651217
14.349171270718234,-0.12288720311018764
14.38254143646409,-0.10644713687672844
14.415911602209945,-0.09255342602713044
14.449281767955803,-0.07765275843081829
14.482651933701659,-0.05773333858797268
14.516022099447515,-0.02811248727616667
14.54939226519337,0.015896466873711372
14.582762430939228,0.07735855731586049
14.616132596685084,0.15568286072965984
14.64950276243094,0.24512641901328613
14.682872928176797,0.33478566852416647
14.716243093922653,0.41058551507309415
14.749613259668509,0.45897778593745164
14.782983425414367,0.4711612724524414
14.816353591160222,0.44606748911378286
14.849723756906078,0.3905664884403281
14.883093922651934,0.3164828188294365
14.916464088397792,0.23565510512327273
14.949834254143648,0.15551307986512816
14.983204419889503,0.07758889232045475
15.016574585635361,-0.00018671306156974924
15.049944751381217,-0.07884619774840983
15.083314917127073,-0.15446618869607529
15.116685082872928,-0.21783913742432623
15.150055248618786,-0.25855267992277214
15.183425414364642,-0.2715184854648132
15.216795580110498,-0.26215941877421545
15.250165745856355,-0.24672634373658836
15.283535911602211,-0.24653488404345344
15.316906077348067,-0.27811621523953894
15.350276243093925,-0.3437278280928505
15.38364640883978,-0.4270896770953262
15.417016574585636,-0.49724769812682157
15.450386740331492,-0.5198607360906065
15.48375690607735,-0.47153190616958957
15.517127071823205,-0.3508462078194755
15.550497237569061,-0.18070378589339847
15.583867403314919,-0.00021940312100737273
15.617237569060775,0.15067878276551017
15.65060773480663,0.24714275118156362
15.683977900552488,0.2884615060041218
15.717348066298344,0.29603545014723454
15.7507182320442,0.3012856486345265
15.784088397790056,0.32934613910685234
15.817458563535913,0.38635546313480024
15.85082872928177,0.4563084049020207
15.884198895027625,0.5087377725153484
15.917569060773483,0.5133335184139705
15.950939226519338,0.45446565151130885
15.984309392265194,0.3388604021241805
16.01767955801105,0.19310327546563122
16.051049723756908,0.05247184452095156
16.084419889502765,-0.05347997469390899
16.11779005524862,-0.11194757588748952
16.151160220994477,-0.12979643105006589
16.18453038674033,-0.12765860691264574
16.21790055248619,-0.12856703754551152
16.251270718232046,-0.14675725973445525
16.2846408839779,-0.18179253398152262
16.318011049723758,-0.22035233041271612
16.351381215469615,-0.24430736140900397
16.38475138121547,-0.24083934525291978
16.418121546961327,-0.20960816126849596
16.451491712707185,-0.16356044591452126
16.48486187845304,-0.12308111360169312
16.518232044198896,-0.10633131603900556
16.551602209944754,-0.12035132329927715
16.584972375690608,-0.15708685673517297
16.618342541436466,-0.19618516328224578
16.651712707182323,-0.21331651853611602
16.685082872928177,-0.19033393767057566
16.718453038674035,-0.12286940328009426
16.751823204419892,-0.022231399739948754
16.785193370165747,0.08895325646693852
16.818563535911604,0.18526037375967738
16.851933701657458,0.24751764125962974
16.885303867403316,0.26886536213316864
16.918674033149173,0.25582012787309233
16.952044198895027,0.22440412122972286
16.985414364640885,0.19314739679230586
17.018784530386743,0.17564517627466214
17.052154696132597,0.17527061684098227
17.085524861878454,0.18382031045606553
17.118895027624312,0.18460109339935857
17.152265193370166,0.15903724474261885
17.185635359116024,0.09461096363801191
