Frequency (Hz),Amplitude
0.0,2.2147167119014473
0.019867549668874173,2.2140704363864856
0.039735099337748346,2.2121330563909294
0.059602649006622516,2.208908913953167
0.07947019867549669,2.204405253785684
0.09933774834437085,2.198632235295281
0.11920529801324503,2.1916029495045635
0.13907284768211922,2.183333440963804
0.15894039735099338,2.1738427347617213
0.17880794701986755,2.163152868757753
0.1986754966887417,2.151288931166244
0.2185430463576159,2.13827910362121
0.23841059602649006,2.1241547098380207
0.2582781456953642,2.108950269960897
0.27814569536423844,2.0927035606397637
0.2980132450331126,2.0754556808120044
0.31788079470198677,2.057251123067869
0.33774834437086093,2.0381378503472534
0.3576158940397351,2.0181673775416082
0.3774834437086093,1.99739485734909
0.3973509933774834,1.9758791694439901
0.4172185430463576,1.9536830116601476
0.4370860927152318,1.9308729914411091
0.45695364238410596,1.907519715262534
0.4768211920529801,1.8836978730720928
0.49668874172185434,1.8594863140056
0.5165562913907285,1.8349681087156995
0.5364238410596026,1.8102305925853135
0.5562913907284769,1.7853653828949025
0.5761589403973509,1.760468361684275
0.5960264900662252,1.7356396146269377
0.6158940397350993,1.7109833147709592
0.6357615894039735,1.6866075385773278
0.6556291390728477,1.6626240004218533
0.6754966887417219,1.6391476907788773
0.695364238410596,1.6162964028751114
0.7152317880794702,1.5941901329339254
0.7350993377483444,1.572950340497218
0.7549668874172186,1.5526990579988103
0.7748344370860927,1.5335578430313799
0.7947019867549668,1.5156465727872113
0.8145695364238411,1.4990820880209978
0.8344370860927152,1.483976703440509
0.8543046357615894,1.470436612280268
0.8741721854304636,1.458560224258954
0.8940397350993378,1.448436487170937
0.9139072847682119,1.4401432517894253
0.9337748344370861,1.433745746230068
0.9536423841059603,1.4292952281904765
0.9735099337748344,1.4268278806077994
0.9933774834437087,1.426364007859712
1.0132450331125828,1.4279075759609983
1.033112582781457,1.4314461222989536
1.0529801324503312,1.436951039963282
1.0728476821192052,1.444378220721161
1.0927152317880795,1.4536690213103007
1.1125827814569538,1.464751501857013
1.1324503311258278,1.477541874218788
1.1523178807947019,1.491946092540662
1.1721854304635762,1.5078615182147783
1.1920529801324504,1.5251785960362054
1.2119205298013245,1.5437824865272445
1.2317880794701985,1.5635546098374882
1.2516556291390728,1.5843740680203626
1.271523178807947,1.6061189237228763
1.2913907284768211,1.6286673235644353
1.3112582781456954,1.65189846318465
1.3311258278145695,1.675693397853728
1.3509933774834437,1.699935707634301
1.370860927152318,1.724512029495576
1.390728476821192,1.7493124707428789
1.410596026490066,1.7742309189172976
1.4304635761589404,1.799165263222018
1.4503311258278146,1.8240175418049378
1.4701986754966887,1.8486940280923434
1.4900662251655628,1.873105268004898
1.5099337748344372,1.8971660784317812
1.5298013245033113,1.9207955158888044
1.5496688741721854,1.9439168229089312
1.5695364238410596,1.9664573584487504
1.5894039735099337,1.9883485174635307
1.609271523178808,2.009525643814389
1.6291390728476822,2.029927939820913
1.6490066225165563,2.0494983750540157
1.6688741721854303,2.0681835963644004
1.6887417218543048,2.0859338406490733
1.7086092715231789,2.102702851457918
1.728476821192053,2.1184478002215745
1.7483443708609272,2.1331292126280683
1.7682119205298013,2.146710900478579
1.7880794701986755,2.1591598992021557
1.8079470198675496,2.170446411096881
1.8278145695364238,2.180543754284364
1.847682119205298,2.189428317308588
1.8675496688741722,2.1970795192749883
1.8874172185430464,2.2034797754065525
1.9072847682119205,2.2086144678872883
1.9271523178807946,2.2124719218672215
1.9470198675496688,2.215043386514399
1.9668874172185429,2.216323021016694
1.9867549668874174,2.216307885457979
2.0066225165562916,2.2149979365175896
2.0264900662251657,2.212396027969065
2.0463576158940397,2.2085079159814573
2.066225165562914,2.203342269254183
2.086092715231788,2.196910684043323
2.1059602649006623,2.189227704161664
2.1258278145695364,2.180310846057138
2.1456953642384105,2.170180629091366
2.165562913907285,2.1588606111518027
2.185430463576159,2.1463774297349993
2.205298013245033,2.132760848632195
2.2251655629139075,2.118043810329517
2.2450331125827816,2.102262494199894
2.2649006622516556,2.0854563805078192
2.2847682119205297,2.067668320167038
2.3046357615894038,2.0489446100781064
2.324503311258278,2.029335073721
2.3443708609271523,2.008893146478892
2.364238410596027,1.9876759649128373
2.384105960264901,1.9657444588822048
2.403973509933775,1.943163445000558
2.423841059602649,1.920001719416435
2.443708609271523,1.8963321473007162
2.463576158940397,1.8722317456919544
2.4834437086092715,1.8477817554873754
2.5033112582781456,1.823067697360621
2.52317880794702,1.7981794052360438
2.543046357615894,1.773211029660785
2.562913907284768,1.7482610020109506
2.5827814569536423,1.7234319489890648
2.6026490066225163,1.6988305453834578
2.622516556291391,1.6745672916670444
2.642384105960265,1.6507562018523738
2.662251655629139,1.6275143862753332
2.6821192052980134,1.604961513878607
2.7019867549668874,1.5832191393743247
2.7218543046357615,1.562409882672388
2.741721854304636,1.5426564514517673
2.76158940397351,1.524080502966103
2.781456953642384,1.5068013482484575
2.801324503311258,1.490934510782512
2.821192052980132,1.476590162171823
2.8410596026490067,1.46387146880872
2.8609271523178808,1.4528728951529233
2.8807947019867552,1.4436785198279776
2.9006622516556293,1.4363604289991654
2.9205298013245033,1.4309772560605298
2.9403973509933774,1.4275729363850391
2.9602649006622515,1.4261757400765163
2.9801324503311255,1.4267976342400905
3.0,1.4294340099454064
3.0198675496688745,1.4340637891970198
3.0397350993377485,1.44064990579995
3.0596026490066226,1.4491401332131306
3.0794701986754967,1.4594682144178572
3.0993377483443707,1.4715552351598349
3.119205298013245,1.4853111736580638
3.1390728476821192,1.5006365572637417
3.1589403973509933,1.5174241591475848
3.1788079470198674,1.5355606749108186
3.198675496688742,1.5549283287636502
3.218543046357616,1.5754063702320305
3.23841059602649,1.5968724339968585
3.2582781456953644,1.619203746443778
3.2781456953642385,1.64227817211757
3.2980132450331126,1.6659751011463797
3.3178807947019866,1.6901761847038745
3.3377483443708607,1.7147659297838547
3.3576158940397347,1.7396321671747415
3.3774834437086096,1.7646664078117567
3.3973509933774837,1.7897641029429394
3.4172185430463577,1.8148248230508306
3.437086092715232,1.8397523694685465
3.456953642384106,1.864454831319883
3.47682119205298,1.8888445989559202
3.4966887417218544,1.9128383435709564
3.5165562913907285,1.9363569712405246
3.5364238410596025,1.9593255582837847
3.556291390728477,1.9816732736429383
3.576158940397351,2.0033332929046743
3.596026490066225,2.024242707665508
3.615894039735099,2.0443424331575732
3.6357615894039736,2.063577116393221
3.6556291390728477,2.081895046542681
3.6754966887417218,2.099248068815047
3.695364238410596,2.1155915027553736
3.7152317880794703,2.130884065586486
3.7350993377483444,2.1450878010019028
3.754966887417219,2.1581680136453976
3.774834437086093,2.1700932093841057
3.794701986754967,2.1808350413881463
3.814569536423841,2.1903682619638607
3.834437086092715,2.19867068004431
3.854304635761589,2.2057231242155946
3.8741721854304636,2.211509411146297
3.8940397350993377,2.2160163192878017
3.9139072847682117,2.2192335677220676
3.9337748344370858,2.2211538000492412
3.9536423841059607,2.221772573228084
3.9735099337748347,2.2210883513066166
3.993377483443709,2.21910250400718
4.013245033112583,2.2158193101585066
4.033112582781457,2.211245965995904
4.052980132450331,2.2053925983794884
4.072847682119205,2.198272283007004
4.0927152317880795,2.1899010677227904
4.112582781456953,2.180298001045267
4.132450331125828,2.1694851660516994
4.152317880794702,2.1574877197682394
4.172185430463576,2.1443339382139475
4.19205298013245,2.1300552672369215
4.211920529801325,2.1146863792553727
4.231788079470199,2.098265235973177
4.251655629139073,2.080833157072725
4.271523178807947,2.0624348947930087
4.291390728476821,2.043118714169981
4.311258278145695,2.022936478542437
4.33112582781457,2.001943739699292
4.3509933774834435,1.98019983175387
4.370860927152318,1.9577679674637876
4.390728476821192,1.9347153352589324
4.410596026490066,1.911113194680141
4.43046357615894,1.8870369672521967
4.450331125827815,1.8625663190039268
4.470198675496689,1.8377852298928126
4.490066225165563,1.8127820442856761
4.509933774834438,1.7876494953912487
4.529801324503311,1.7624846951477706
4.549668874172186,1.7373890795697622
4.569536423841059,1.7124682980060169
4.589403973509934,1.6878320332403602
4.6092715231788075,1.663593737999278
4.629139072847682,1.6398702723818919
4.649006622516556,1.616781426209985
4.66887417218543,1.594449310566991
4.688741721854305,1.5729976041471845
4.708609271523179,1.5525506427760585
4.728476821192054,1.5332323448737653
4.748344370860927,1.515164971926234
4.768211920529802,1.4984677312742032
4.788079470198675,1.4832552385904478
4.80794701986755,1.469635868873293
4.827814569536423,1.4577100369014038
4.847682119205298,1.4475684598120706
4.867549668874172,1.4392904644674736
4.887417218543046,1.4329424091281
4.9072847682119205,1.428576291319648
4.927152317880794,1.4262286106575388
4.947019867549669,1.425919546359443
4.966887417218543,1.4276524945576556
4.986754966887418,1.4314139914383233
5.006622516556291,1.437174026484042
5.026490066225166,1.4448867279060054
5.04635761589404,1.4544913820169003
5.066225165562914,1.4659137318136028
5.086092715231788,1.4790674888072612
5.105960264900662,1.4938559867846772
5.125827814569536,1.5101739065560926
5.14569536423841,1.527909006031647
5.1655629139072845,1.5469437989318864
5.185430463576159,1.5671571366516344
5.205298013245033,1.588425659884399
5.225165562913908,1.6106250984093542
5.245033112582782,1.6336314080832348
5.264900662251656,1.657321743031394
5.28476821192053,1.681575268058452
5.304635761589404,1.7062738214001643
5.324503311258278,1.7313024412797753
5.344370860927152,1.7565497715763834
5.364238410596027,1.7819083625620116
5.3841059602649,1.807274882417981
5.403973509933775,1.8325502543722298
5.4238410596026485,1.8576397330366605
5.443708609271523,1.8824529320506433
5.463576158940397,1.9069038135902683
5.483443708609272,1.930910648781136
5.503311258278146,1.954395956618983
5.52317880794702,1.9772864276963364
5.543046357615895,1.9995128378728055
5.562913907284768,2.021009956017456
5.582781456953643,2.041716449088954
5.602649006622516,2.061574787093424
5.622516556291391,2.0805311498578285
5.642384105960264,2.098535337063765
5.662251655629139,2.115540682588284
5.682119205298013,2.1315039738807937
5.701986754966887,2.1463853768558447
5.7218543046357615,2.160148366588859
5.741721854304636,2.172759663956029
5.7615894039735105,2.184189178252216
5.781456953642384,2.194409955744275
5.801324503311259,2.203398134065926
5.821192052980132,2.211132902329068
5.841059602649007,2.2175964668112056
5.860927152317881,2.2227740220756287
5.880794701986755,2.226653727388335
5.900662251655629,2.2292266883100638
5.920529801324503,2.230486943362014
5.940397350993377,2.230431455688615
5.960264900662251,2.229060109668067
5.980132450331126,2.2263757124508383
6.0,2.222384000436816
6.0198675496688745,2.2170936507322963
6.039735099337749,2.2105162976576844
6.059602649006623,2.2026665544048014
6.079470198675497,2.1935620399677105
6.099337748344371,2.1832234114918774
6.119205298013245,2.171674402201921
6.139072847682119,2.1589418650757324
6.158940397350993,2.145055822430661
6.178807947019867,2.130049521572586
6.198675496688741,2.1139594966273765
6.218543046357616,2.096825636622464
6.23841059602649,2.078691259808616
6.258278145695365,2.0596031941019186
6.2781456953642385,2.0396118633761584
6.298013245033113,2.0187713791371604
6.317880794701987,1.9971396368522594
6.337748344370861,1.9747784158785977
6.357615894039735,1.9517534815189497
6.377483443708609,1.928134687219089
6.397350993377484,1.9039960742900026
6.417218543046357,1.8794159657764717
6.437086092715232,1.854477050185667
6.456953642384105,1.8292664497247242
6.47682119205298,1.8038757664696452
6.496688741721854,1.7784010985042857
6.516556291390729,1.7529430165465651
6.5364238410596025,1.7276064899612646
6.556291390728477,1.7025007494117153
6.5761589403973515,1.677739071832486
6.596026490066225,1.6534384720584714
6.6158940397351,1.6297192845202788
6.635761589403973,1.6067046181590132
6.655629139072848,1.5845196684199532
6.675496688741721,1.5632908721772634
6.695364238410596,1.5431448950471736
6.715231788079469,1.5242074460433297
6.735099337748344,1.506601922088627
6.754966887417219,1.4904478945104946
6.774834437086093,1.4758594610385112
6.794701986754967,1.4629434993953605
6.814569536423841,1.4517978713701556
6.8344370860927155,1.4425096380068607
6.854304635761589,1.4351533557351752
6.874172185430464,1.429789528391831
6.894039735099337,1.4264632898294922
6.913907284768212,1.4252033853903403
6.933774834437086,1.4260215078643736
6.95364238410596,1.428912025445595
6.973509933774834,1.4338521172482046
6.993377483443709,1.440802308363903
7.013245033112583,1.4497073737131758
7.033112582781457,1.4604975604072188
7.052980132450331,1.4730900638218776
7.072847682119205,1.4873906841458544
7.0927152317880795,1.5032955879999885
7.112582781456954,1.5206931032439588
7.132450331125828,1.5394654831247225
7.152317880794702,1.5594905869962956
7.172185430463576,1.5806434374284408
7.19205298013245,1.6027976262589283
7.211920529801324,1.6258265539697248
7.231788079470198,1.649604496971372
7.251655629139073,1.674007505591417
7.271523178807947,1.6989141416967442
7.291390728476822,1.7242060690569074
7.311258278145695,1.7497685120291493
7.33112582781457,1.7754905992299304
7.3509933774834435,1.8012656088813639
7.370860927152318,1.8269911317872898
7.390728476821192,1.852569166666242
7.410596026490066,1.877906161060244
7.430463576158941,1.902913009410761
7.450331125827814,1.9275050182646762
7.470198675496689,1.9516018470220802
7.490066225165562,1.9751274312126084
7.509933774834438,1.9980098940144453
7.52980132450331,2.0201814506173594
7.549668874172186,2.0415783090779724
7.569536423841059,2.0621405705105844
7.589403973509934,2.0818121307881983
7.6092715231788075,2.1005405853798513
7.629139072847682,2.1182771385062664
7.649006622516557,2.1349765174415545
7.66887417218543,2.1505968925095753
7.6887417218543055,2.16509980310764
7.708609271523178,2.1784500899262484
7.728476821192054,2.190615833412039
7.748344370860927,2.201568298434359
7.768211920529802,2.211281885056713
7.788079470198675,2.219734085277591
7.80794701986755,2.2269054455860045
7.827814569536423,2.232779535171842
7.847682119205298,2.2373429196368217
7.8675496688741715,2.2405851400659063
7.887417218543046,2.2424986973395074
7.907284768211921,2.2430790415921913
7.927152317880795,2.2423245667522895
7.9470198675496695,2.2402366101282096
7.966887417218543,2.2368194570396827
7.986754966887418,2.232080350525404
8.006622516556291,2.2260295061914213
8.026490066225167,2.2186801322962797
8.046357615894038,2.210048455198367
8.066225165562914,2.200153750317085
8.086092715231787,2.1890183787809545
8.105960264900663,2.176667829950805
8.125827814569536,2.163130770012755
8.14569536423841,2.1484390968311824
8.165562913907285,2.1326280012330567
8.185430463576159,2.1157360348578274
8.205298013245034,2.097805184646807
8.225165562913906,2.0788809539562396
8.245033112582782,2.0590124501524683
8.264900662251655,2.038252478376389
8.28476821192053,2.0166576409380337
8.304635761589404,1.9942884415083169
8.324503311258278,1.9712093929003973
8.344370860927151,1.9474891267619294
8.364238410596027,1.9232005029154298
8.3841059602649,1.8984207153694785
8.403973509933774,1.8732313911611393
8.42384105960265,1.8477186771649259
8.443708609271523,1.8219733088047065
8.463576158940398,1.7960906532291232
8.483443708609272,1.770170717967541
8.503311258278146,1.7443181143999358
8.52317880794702,1.7186419636032793
8.543046357615895,1.6932557303661722
8.562913907284768,1.6682769695222028
8.582781456953642,1.643826967421225
8.602649006622515,1.6200302605731267
8.62251655629139,1.5970140135529403
8.642384105960264,1.574907239488005
8.66225165562914,1.5538398492205305
8.682119205298013,1.5339415198977542
8.701986754966887,1.5153403805593686
8.721854304635762,1.4981615213859525
8.741721854304636,1.4825253445222426
8.76158940397351,1.4685457873496448
8.781456953642383,1.456328462924221
8.801324503311259,1.4459687758009758
8.821192052980132,1.4375500830941836
8.841059602649008,1.4311419786832906
8.86092715231788,1.426798781365834
8.880794701986755,1.424558304281354
8.90066225165563,1.424440972574908
8.920529801324504,1.4264493394266287
8.940397350993377,1.4305680285906215
8.960264900662251,1.4367641066203507
8.980132450331126,1.4449878626586803
9.0,1.4551739507433286
9.019867549668875,1.4672428313334296
9.039735099337747,1.4811024367596013
9.059602649006623,1.4966499801607054
9.079470198675496,1.5137738288884686
9.099337748344372,1.5323553702781398
9.119205298013245,1.552270808570125
9.139072847682119,1.5733928449306234
9.158940397350994,1.5955922063680466
9.178807947019868,1.6187390025735622
9.198675496688743,1.6427039014055675
9.218543046357615,1.667359123356512
9.23841059602649,1.6925792626936391
9.258278145695364,1.7182419481220685
9.27814569536424,1.744228359019377
9.298013245033111,1.7704236148691246
9.317880794701987,1.7967170558375927
9.33774834437086,1.8230024318394702
9.357615894039736,1.8491780162282319
9.37748344370861,1.8751466586746697
9.397350993377483,1.9008157900556013
9.417218543046358,1.926097390405399
9.437086092715232,1.950907929281378
9.456953642384107,1.9751682863213325
9.47682119205298,1.9988036583602666
9.496688741721854,2.021743458236666
9.516556291390728,2.043921209356782
9.536423841059603,2.0652744391879776
9.556291390728477,2.085744574106152
9.57615894039735,2.105276837409897
9.596026490066224,2.12382015181865
9.6158940397351,2.141327047376456
9.635761589403973,2.157753575371707
9.655629139072847,2.17305922864217
9.675496688741722,2.1872068684515082
9.695364238410596,2.2001626579878404
9.715231788079471,2.2118960024375696
9.735099337748345,2.2223794955212632
9.754966887417218,2.2315888723365744
9.774834437086092,2.2395029683308896
9.794701986754967,2.2461036842196203
9.814569536423841,2.2513759566709086
9.834437086092716,2.255307734592133
9.854304635761588,2.2578899608748872
9.874172185430464,2.2591165594820697
9.894039735099337,2.2589844277914057
9.913907284768213,2.2574934341434627
9.933774834437086,2.254646420577467
9.95364238410596,2.25044921077475
9.973509933774835,2.244910623266083
9.993377483443709,2.2380424899951525
10.013245033112582,2.2298596803646973
10.033112582781456,2.220380130923557
10.052980132450331,2.2096248808811834
10.072847682119205,2.1976181136585033
10.09271523178808,2.1843872047000494
10.112582781456952,2.169962775778175
10.132450331125828,2.154378756014051
10.152317880794701,2.137672449817693
10.172185430463577,2.1198846119066324
10.192052980132452,2.1010595294933143
10.211920529801324,2.081245111629625
10.2317880794702,2.06049298555287
10.251655629139073,2.038858599683087
10.271523178807948,2.016401332663291
10.29139072847682,1.9931846074993647
10.311258278145695,1.9692760094286343
10.331125827814569,1.9447474056082956
10.350993377483444,1.91967506404734
10.370860927152318,1.8941397683889236
10.390728476821192,1.868226924164904
10.410596026490065,1.8420266509737941
10.43046357615894,1.815633853666784
10.450331125827816,1.7891482640629355
10.470198675496688,1.762674442967837
10.490066225165563,1.7363217303784955
10.509933774834437,1.7102041297884283
10.529801324503312,1.6844401105724902
10.549668874172186,1.659152310692173
10.56953642384106,1.6344671206414465
10.589403973509933,1.610514128938838
10.609271523178808,1.5874254099118246
10.629139072847682,1.5653346364117018
10.649006622516556,1.544376003851106
10.66887417218543,1.524682957942109
10.688741721854305,1.506386726985449
10.70860927152318,1.4896146705628122
10.728476821192054,1.474488469742922
10.748344370860927,1.4611221987519323
