Frequency (Hz),Amplitude
0.0,0.9214276372352037
0.01978021978021978,0.9209756185215898
0.03956043956043956,0.9196200105400645
0.05934065934065934,0.917362157356652
0.07912087912087912,0.9142042977092001
0.0989010989010989,0.9101495629528018
0.11868131868131868,0.9052019741910164
0.13846153846153844,0.899366438600644
0.15824175824175823,0.8926487449603275
0.17802197802197803,0.8850555583960892
0.1978021978021978,0.8765944143598455
0.21758241758241756,0.8672737118606058
0.23736263736263735,0.8571027059719115
0.2571428571428572,0.846091499644001
0.2769230769230769,0.8342510348545077
0.2967032967032967,0.8215930831387669
0.31648351648351647,0.8081302355486335
0.3362637362637363,0.7938758920993687
0.35604395604395606,0.7788442507769271
0.3758241758241758,0.7630502961943747
0.3956043956043956,0.7465097880071478
0.4153846153846154,0.7292392492240019
0.4351648351648351,0.7112559545860103
0.45494505494505494,0.6925779192329755
0.4747252747252747,0.6732238879392912
0.4945054945054945,0.6532133252862193
0.5142857142857143,0.6325664072534163
0.5340659340659341,0.6113040148729695
0.5538461538461538,0.5894477308140961
0.5736263736263736,0.5670198400861433
0.5934065934065934,0.5440433365080076
0.6131868131868132,0.5205419372669109
0.6329670329670329,0.4965401088943748
0.6527472527472528,0.47206310951341723
0.6725274725274726,0.44713705457475245
0.6923076923076923,0.42178901704627425
0.7120879120879121,0.3960471791056232
0.7318681318681318,0.3699410625507389
0.7516483516483516,0.343501882656399
0.7714285714285715,0.31676310145630376
0.7912087912087912,0.2897613144629535
0.810989010989011,0.2625377176412485
0.8307692307692308,0.23514063262109805
0.8505494505494506,0.20763007206368844
0.8703296703296702,0.18008650874866852
0.8901098901098901,0.1526290343771964
0.9098901098901099,0.12545667073028163
0.9296703296703297,0.0989540755995076
0.9494505494505494,0.07400258476852699
0.9692307692307692,0.053005034409039975
0.989010989010989,0.04244536881498489
1.0087912087912088,0.04956134191411845
1.0285714285714287,0.06907140357567547
1.0483516483516484,0.09346575396363524
1.0681318681318681,0.11973069177589393
1.087912087912088,0.1467901509539517
1.1076923076923075,0.17419227672226148
1.1274725274725275,0.20171114018680975
1.1472527472527472,0.22921540996651762
1.1670329670329669,0.2566184543881843
1.1868131868131868,0.28385690418200304
1.2065934065934065,0.3108804871900192
1.2263736263736265,0.3376468128671005
1.2461538461538462,0.36411852128720446
1.2659340659340659,0.3902616426478593
1.2857142857142858,0.41604461325006825
1.3054945054945055,0.44143766520938765
1.3252747252747252,0.4664124379102668
1.3450549450549452,0.49094172577688094
1.3648351648351649,0.5149993124502119
1.3846153846153846,0.5385598612056283
1.4043956043956045,0.5615988428238318
1.4241758241758242,0.5840924888980946
1.443956043956044,0.6060177627043973
1.4637362637362636,0.627352342362883
1.4835164835164834,0.6480746126906769
1.5032967032967033,0.6681636632427134
1.523076923076923,0.6875992907702841
1.542857142857143,0.7063620048259238
1.5626373626373626,0.7244330355880434
1.5824175824175823,0.7417943432207065
1.6021978021978023,0.7584286282561061
1.621978021978022,0.7743193426114711
1.6417582417582417,0.7894507009425418
1.6615384615384616,0.8038076921026941
1.6813186813186813,0.817376090526684
1.7010989010989013,0.8301424673956018
1.720879120879121,0.8420942014682811
1.7406593406593405,0.8532194894867092
1.7604395604395604,0.8635073560799664
1.7802197802197801,0.8729476631049976
1.7999999999999998,0.8815311183731899
1.8197802197802198,0.8892492837203866
1.8395604395604395,0.8960945823851304
1.8593406593406594,0.9020603056657054
1.879120879120879,0.9071406188313308
1.8989010989010988,0.9113305662671166
1.9186813186813187,0.9146260758358266
1.9384615384615385,0.9170239624426298
1.9582417582417584,0.9185219307917012
1.978021978021978,0.9191185773261035
1.9978021978021978,0.91881339134449
2.0175824175824175,0.91760675529045
2.0373626373626372,0.9154999442121932
2.0571428571428574,0.912495124392323
2.076923076923077,0.9085953511492407
2.096703296703297,0.9038045658138463
2.1164835164835165,0.8981275918869869
2.1362637362637362,0.8915701303853765
2.1560439560439564,0.8841387543857455
2.175824175824176,0.8758409027796091
2.195604395604396,0.8666848732535206
2.215384615384615,0.8566798145128252
2.2351648351648348,0.8458357177704539
2.254945054945055,0.8341634075261701
2.2747252747252746,0.8216745316667897
2.2945054945054943,0.8083815509235569
2.314285714285714,0.7942977277299884
2.3340659340659338,0.7794371145325468
2.353846153846154,0.7638145416174326
2.3736263736263736,0.7474456045310461
2.3934065934065933,0.730346651189916
2.413186813186813,0.7125347687995582
2.4329670329670328,0.6940277707329807
2.452747252747253,0.6748441835610642
2.4725274725274726,0.6550032344831368
2.4923076923076923,0.6345248394822376
2.512087912087912,0.6134295926349188
2.5318681318681318,0.5917387571524878
2.5516483516483515,0.5694742589391664
2.5714285714285716,0.5466586837522607
2.5912087912087913,0.5233152794875067
2.610989010989011,0.49946796576298613
2.6307692307692307,0.4751413539598804
2.6505494505494505,0.45036078239879523
2.6703296703296706,0.4251523737320957
2.6901098901098903,0.39954312552047166
2.70989010989011,0.3735610514310936
2.7296703296703297,0.34723540159602795
2.7494505494505495,0.3205970103958117
2.769230769230769,0.293678856401914
2.7890109890109893,0.2665169897795818
2.808791208791209,0.23915212642361594
2.8285714285714287,0.2116325206809181
2.8483516483516484,0.18401945938861186
2.8681318681318677,0.15639858921837296
2.887912087912088,0.12890562724917864
2.9076923076923076,0.10179248781328812
2.9274725274725273,0.07562759150352699
2.947252747252747,0.05203499308817572
2.9670329670329667,0.03656679359117107
2.986813186813187,0.04015767764730863
3.0065934065934066,0.05943339011433685
3.0263736263736263,0.08418961835291693
3.046153846153846,0.11074563011285159
3.0659340659340657,0.13799031929464672
3.085714285714286,0.1655013548293228
3.1054945054945056,0.19307805268450576
3.1252747252747253,0.22060603529016898
3.145054945054945,0.24800980942225184
3.1648351648351647,0.2752334662983227
3.184615384615385,0.30223187597250545
3.2043956043956046,0.3289662985208001
3.2241758241758243,0.35540203929081254
3.243956043956044,0.38150712522660585
3.2637362637362637,0.4072515242059141
3.2835164835164834,0.4326066686051751
3.3032967032967036,0.45754515696868936
3.3230769230769233,0.48204056391967404
3.342857142857143,0.5060673179948552
3.3626373626373627,0.5296006232887457
3.3824175824175824,0.55261641002411
3.4021978021978025,0.5750913046026114
3.4219780219780223,0.5970026129882358
3.441758241758242,0.6183283133319215
3.4615384615384617,0.6390470550569441
3.481318681318681,0.6591381624801412
3.501098901098901,0.6785816416123331
3.520879120879121,0.6973581891665758
3.5406593406593405,0.7154492030677113
3.5604395604395602,0.732836793941919
3.58021978021978,0.7495037971963617
3.5999999999999996,0.76543378539335
3.61978021978022,0.7806110806922222
3.6395604395604395,0.7950207671825128
3.659340659340659,0.8086487029700465
3.679120879120879,0.8214815319056822
3.6989010989010986,0.833506694868333
3.718681318681319,0.8447124405304063
3.7384615384615385,0.855087835547086
3.758241758241758,0.8646227741207732
3.7780219780219784,0.8733079869006377
3.7978021978021976,0.8811350491833774
3.8175824175824173,0.8880963883871307
3.8373626373626375,0.8941852907746312
3.8571428571428568,0.8993959074056187
3.876923076923077,0.9037232593017346
3.896703296703296,0.9071632418097981
3.916483516483517,0.9097126281519279
3.936263736263736,0.9113690721529467
3.956043956043956,0.9121311101376386
3.9758241758241755,0.911998161992161
3.9956043956043956,0.9109705313853932
4.015384615384615,0.9090494051479143
4.035164835164835,0.9062368518073511
4.054945054945055,0.9025358192807125
4.0747252747252745,0.8979501317253321
4.094505494505494,0.8924844855517414
4.114285714285715,0.8861444446028713
4.134065934065934,0.8789364345058419
4.153846153846154,0.870867736203496
4.173626373626373,0.8619464786749469
4.193406593406594,0.8521816308554557
4.213186813186813,0.8415829927683384
4.232967032967033,0.8301611858830275
4.252747252747253,0.8179276427158847
4.2725274725274724,0.8048945956928366
4.292307692307692,0.7910750652957516
4.312087912087913,0.7764828475181641
4.331868131868132,0.7611325006598557
4.351648351648352,0.745039331495386
4.371428571428571,0.7282193808580453
4.391208791208792,0.7106894086889216
4.410989010989011,0.6924668786118242
4.43076923076923,0.6735699421089505
4.450549450549451,0.6540174223908126
4.4703296703296695,0.6338287980798155
4.49010989010989,0.6130241868616986
4.50989010989011,0.5916243293074934
4.52967032967033,0.5696505731374069
4.549450549450549,0.5471248582958106
4.569230769230769,0.5240697033492603
4.589010989010989,0.5005081939305698
4.608791208791209,0.47646397427015774
4.628571428571428,0.4519612433459385
4.648351648351649,0.4270247579538853
4.6681318681318675,0.4016798462445971
4.687912087912088,0.37595243733253486
4.707692307692308,0.34986911610710447
4.7274725274725276,0.32345721860980015
4.747252747252747,0.29674499482126604
4.767032967032967,0.2697618878287077
4.786813186813187,0.2425390233248797
4.806593406593407,0.21511010078701337
4.826373626373626,0.18751310520981396
4.846153846153847,0.15979384177865275
4.8659340659340655,0.13201397954751296
4.885714285714286,0.10427195843153865
4.905494505494506,0.07676869514832886
4.9252747252747255,0.050083628598110906
4.945054945054945,0.02700900236356403
4.964835164835165,0.023717049291269707
4.984615384615385,0.04479718897055435
5.004395604395604,0.07110139055439987
5.024175824175824,0.09846375577496133
5.043956043956045,0.12612061552982343
5.0637362637362635,0.15382994344715706
5.083516483516483,0.18148037531399352
5.103296703296703,0.2090052499305589
5.123076923076923,0.2363565853495931
5.142857142857143,0.2634953975356035
5.162637362637362,0.29038754700182345
5.182417582417583,0.3170017627200743
5.2021978021978015,0.3433086266483762
5.221978021978022,0.3692800210979723
5.241758241758242,0.39488881534900044
5.2615384615384615,0.4201086832363512
5.281318681318681,0.44491399591446024
5.301098901098901,0.4692797595155052
5.320879120879121,0.4931815805132505
5.340659340659341,0.516595648654554
5.36043956043956,0.5394987312734736
5.380219780219781,0.5618681750996224
5.3999999999999995,0.5836819130497098
5.41978021978022,0.6049184743404169
5.43956043956044,0.6255569967980336
5.4593406593406595,0.6455772405875572
5.479120879120879,0.6649596028135702
5.498901098901099,0.6836851325996377
5.518681318681319,0.7017355463587972
5.538461538461538,0.7190932430414257
5.558241758241758,0.7357413191987877
5.578021978021979,0.7516635837381239
5.5978021978021975,0.7668445722722385
5.617582417582418,0.7812695609866737
5.637362637362637,0.7949245799626699
5.6571428571428575,0.8077964259054132
5.676923076923077,0.8198726742359923
5.696703296703297,0.8311416905122634
5.716483516483517,0.8415926411493094
5.736263736263735,0.8512155034145363
5.756043956043956,0.860001074676142
5.775824175824176,0.8679409808865293
5.795604395604395,0.8750276842849483
5.815384615384615,0.8812544903057211
5.835164835164835,0.8866155536803294
5.854945054945055,0.8911058837234325
5.874725274725275,0.8947213487943236
5.894505494505494,0.8974586799268139
5.914285714285715,0.8993154736217893
5.934065934065933,0.9002901937979577
5.953846153846154,0.90038217289744
5.973626373626374,0.8995916121440022
5.993406593406593,0.8979195809526325
6.013186813186813,0.8953680154905144
6.032967032967033,0.8919397163900672
6.052747252747253,0.8876383456160031
6.072527472527473,0.8824684224890295
6.092307692307692,0.8764353188700766
6.112087912087913,0.869545253509482
6.131868131868131,0.8618052855667261
6.151648351648352,0.8532233073071062
6.171428571428572,0.8438080359824905
6.191208791208791,0.8335690049044251
6.210989010989011,0.8225165537182819
6.230769230769231,0.8106618178884896
6.2505494505494505,0.7980167174051557
6.270329670329671,0.784593944723639
6.29010989010989,0.7704069519491269
6.309890109890111,0.7554699372792547
6.329670329670329,0.7397978307183681
6.349450549450549,0.7234062790780292
6.36923076923077,0.7063116302788882
6.3890109890109885,0.6885309169700284
6.408791208791209,0.6700818394824181
6.428571428571428,0.6509827481340547
6.4483516483516485,0.6312526249051158
6.468131868131868,0.6109110645022071
6.487912087912088,0.589978254831702
6.507692307692308,0.5684749569032373
6.527472527472527,0.5464224841854044
6.547252747252747,0.5238426814371244
6.567032967032967,0.5007579030399079
6.5868131868131865,0.4771909908584505
6.606593406593407,0.45316525166032584
6.626373626373626,0.42870443413014514
6.6461538461538465,0.40383270552105
6.665934065934065,0.3785746279979805
6.685714285714286,0.3529551347467694
6.705494505494506,0.32699950595713595
6.725274725274725,0.3007333448489442
6.745054945054945,0.27418255402826897
6.764835164835165,0.24737331269303658
6.7846153846153845,0.22033205570615394
6.804395604395605,0.19308545669440863
6.824175824175824,0.16566042019485333
6.8439560439560445,0.138084095927571
6.863736263736263,0.1103839546419051
6.883516483516484,0.08258807150678264
6.903296703296704,0.05472635843523029
6.923076923076923,0.02683965362933952
6.942857142857143,0.0020177111454452576
6.962637362637362,0.0291045654471918
6.9824175824175825,0.05695837464440689
7.002197802197802,0.08476084622463335
7.021978021978022,0.11247336803688159
7.041758241758242,0.14006645498890827
7.061538461538461,0.16751231033201536
7.081318681318681,0.19478374654374842
7.101098901098901,0.2218539308968074
7.1208791208791204,0.2486963171462273
7.140659340659341,0.2752846334372127
7.16043956043956,0.30159289062786376
7.1802197802197805,0.3275953989916089
7.199999999999999,0.35326678863159494
7.21978021978022,0.3785820315846977
7.23956043956044,0.40351646465561386
7.259340659340659,0.42804581248834406
7.279120879120879,0.4521462106027605
7.298901098901099,0.4757942282346176
7.318681318681318,0.4989668908760853
7.338461538461539,0.5216417024462051
7.358241758241758,0.5437966670396335
7.3780219780219785,0.5654103102132613
7.397802197802197,0.586461699777505
7.417582417582418,0.6069304660636949
7.437362637362638,0.6267968216422378
7.457142857142857,0.6460415804684404
7.476923076923077,0.6646461764347773
7.496703296703297,0.6825926813096697
7.516483516483516,0.6998638220440705
7.536263736263736,0.7164429974281832
7.556043956043957,0.7323142940815877
7.575824175824176,0.7474625017608368
7.595604395604395,0.7618731279696198
7.615384615384615,0.7755324118572151
7.635164835164835,0.7884273373919245
7.654945054945055,0.8005456457968297
7.674725274725275,0.8118758472362612
7.694505494505494,0.8224072317418771
7.7142857142857135,0.8321298793684144
7.734065934065935,0.8410346695696833
7.753846153846154,0.8491132897865008
7.7736263736263735,0.85635824323893
7.793406593406592,0.8627628559161433
7.813186813186814,0.8683212827580792
7.832967032967034,0.8730285130240908
7.852747252747252,0.8768803748444349
7.872527472527472,0.8798735389517549
7.892307692307693,0.8820055215903336
7.912087912087912,0.8832746866021981
7.931868131868132,0.8836802466898385
7.951648351648351,0.8832222638567991
7.971428571428572,0.8819016490280358
7.991208791208791,0.8797201608534977
8.010989010989011,0.8766804036993233
8.03076923076923,0.87278582483252
8.05054945054945,0.8680407108062781
8.07032967032967,0.8624501830545901
8.09010989010989,0.8560201927065527
8.10989010989011,0.8487575146324258
8.129670329670331,0.8406697407356616
8.149450549450549,0.8317652725073611
8.169230769230769,0.8220533128622853
8.189010989010988,0.8115438572785947
8.20879120879121,0.8002476842671915
8.22857142857143,0.7881763452009158
8.248351648351647,0.7753421535390442
8.268131868131867,0.7617581734891045
8.287912087912087,0.7474382081561225
8.307692307692308,0.7323967872395581
8.327472527472528,0.7166491543510859
8.347252747252746,0.7002112540431151
8.367032967032966,0.6830997186595014
8.386813186813187,0.6653318551485221
8.406593406593407,0.6469256320159814
8.426373626373627,0.6278996666474532
8.446153846153845,0.6082732132979592
8.465934065934066,0.5880661521432556
8.485714285714286,0.5672989799201692
8.505494505494505,0.5459928028726723
8.525274725274725,0.5241693329910814
8.545054945054945,0.5018508889273801
8.564835164835165,0.47906040355527624
8.584615384615384,0.4558214410283537
8.604395604395604,0.43215822755243144
8.624175824175826,0.4080957022339509
8.643956043956043,0.38365959782871156
8.663736263736263,0.3588765669556906
8.683516483516483,0.3337743791510571
8.703296703296704,0.30838223148915755
8.723076923076924,0.28273124740620115
8.742857142857142,0.2568552997295776
8.762637362637362,0.2307924182238358
8.782417582417583,0.2045873095863302
8.802197802197803,0.17829613727739468
8.821978021978023,0.15199627347467298
8.84175824175824,0.12580813677944935
8.86153846153846,0.09995037488284914
8.881318681318682,0.0749032372783621
8.901098901098901,0.051996892964510155
8.920879120879121,0.03575736778012976
8.940659340659339,0.036584144455635535
8.96043956043956,0.053670017917111144
8.98021978021978,0.07678788585237951
9.0,0.10184279713074872
9.01978021978022,0.1276218809891513
9.03956043956044,0.15367853990260225
9.05934065934066,0.17980616400357957
9.079120879120879,0.20588958821170017
9.098901098901099,0.2318541875893489
9.11868131868132,0.2576455076574164
9.138461538461538,0.2832200900576786
9.158241758241758,0.3085409455781325
9.178021978021977,0.333575154506066
9.197802197802199,0.3582925202365608
9.217582417582419,0.38266477890263395
9.237362637362637,0.40666511860312865
9.257142857142856,0.43026787892825996
9.276923076923078,0.453448359565163
9.296703296703297,0.4761826970848785
9.316483516483517,0.49844778555464825
9.336263736263735,0.5202212260001894
9.356043956043957,0.5414812952459573
9.375824175824176,0.5622069279886528
9.395604395604396,0.582377708025477
9.415384615384616,0.6019738658735416
9.435164835164835,0.6209762808717272
9.454945054945055,0.639366486423506
9.474725274725275,0.6571266774224821
9.494505494505495,0.6742397191656093
9.514285714285714,0.6906891572427122
9.534065934065934,0.706459228021056
9.553846153846154,0.7215348694369502
9.573626373626373,0.7359017318742763
9.593406593406593,0.7495461889597528
9.613186813186815,0.7624553481418753
9.632967032967032,0.7746170609487001
9.652747252747252,0.7860199328407964
9.672527472527472,0.7966533325923486
9.692307692307693,0.8065074011463431
9.712087912087913,0.8155730598997694
9.731868131868131,0.8238420183832937
9.75164835164835,0.8313067813062222
9.771428571428572,0.8379606549434246
9.791208791208792,0.843797752845325
9.810989010989012,0.8488130008563077
9.83076923076923,0.853002141430208
9.850549450549451,0.856361737235008
9.87032967032967,0.858889174041571
9.89010989010989,0.8605826628942187
9.90989010989011,0.8614412415635084
9.92967032967033,0.8614647752843944
9.94945054945055,0.8606539567856232
9.96923076923077,0.8590103056190914
9.989010989010989,0.8565361668010081
10.008791208791209,0.8532347087799099
10.028571428571428,0.8491099207504115
10.048351648351648,0.844166609335618
10.068131868131868,0.8384103946658379
10.08791208791209,0.8318477058868399
10.107692307692307,0.8244857761371561
10.127472527472527,0.8163326370416325
10.147252747252747,0.8073971127774859
10.167032967032966,0.7976888137800618
10.186813186813188,0.787218130168904
10.206593406593406,0.7759962249910782
10.226373626373626,0.7640350273990522
10.246153846153845,0.7513472259058136
10.265934065934067,0.7379462618917267
10.285714285714286,0.7238463235780298
10.305494505494504,0.7090623407336614
10.325274725274724,0.6936099804482767
10.345054945054946,0.6775056443910046
10.364835164835165,0.6607664680871076
10.384615384615385,0.6434103228941614
10.404395604395603,0.6254558215581932
10.424175824175824,0.6069223284978423
10.443956043956044,0.5878299763286793
10.463736263736264,0.5681996906399589
10.483516483516484,0.5480532257315966
10.503296703296703,0.5274132149983444
10.523076923076923,0.506303241044322
