Time (s),Filtered Signal
0.0,-0.01836436330775824
0.03337000366703337,0.09281166774143502
0.06674000733406674,0.21985529729679354
0.1001100110011001,0.36407666578263775
0.13348001466813347,0.5045569821726914
0.16685001833516683,0.6010783042813775
0.2002200220022002,0.607808764550114
0.2335900256692336,0.4929226180279862
0.26696002933626695,0.2558562866642682
0.3003300330033003,-0.06612890695422974
0.33370003667033366,-0.4062711930040322
0.36707004033736707,-0.6890073382001474
0.4004400440044004,-0.8546378901372879
0.4338100476714338,-0.8777019430727773
0.4671800513384672,-0.7720224005431456
0.5005500550055005,-0.5817842812272997
0.5339200586725339,-0.36403867689494385
0.5672900623395672,-0.17067564520477324
0.6006600660066006,-0.03636802528880174
0.634030069673634,0.02523017819079686
0.6674000733406673,0.018970038817396364
0.7007700770077008,-0.03670684965582802
0.7341400806747341,-0.11412532350488122
0.7675100843417675,-0.1799611697335089
0.8008800880088008,-0.2001103213550016
0.8342500916758342,-0.14773639238552225
0.8676200953428675,-0.01353723373957272
0.9009900990099009,0.18634592350157617
0.9343601026769344,0.4107089901239803
0.9677301063439677,0.6050426721915686
1.001100110011001,0.7216363536483209
1.0344701136780343,0.7392381134779431
1.0678401173450678,0.6721250528694608
1.1012101210121013,0.5630447044165822
1.1345801246791345,0.46279033975506634
1.167950128346168,0.40637960999818235
1.2013201320132012,0.39767302385987124
1.2346901356802347,0.4097718545666521
1.268060139347268,0.4003501332644942
1.3014301430143014,0.33374140287145754
1.3348001466813346,0.19880394651920946
1.368170150348368,0.014315911644009817
1.4015401540154016,-0.1799277331260353
1.4349101576824348,-0.3413868194685461
1.4682801613494683,-0.4435004992441063
1.5016501650165015,-0.4862561856669787
1.535020168683535,-0.4940995825301693
1.5683901723505682,-0.5025392692989893
1.6017601760176017,-0.5398129409907004
1.6351301796846351,-0.6120746626534005
1.6685001833516684,-0.6989242894505214
1.7018701870187019,-0.7614507618854187
1.735240190685735,-0.7592875690718248
1.7686101943527686,-0.6690043423777273
1.8019801980198018,-0.49548081625939294
1.8353502016868353,-0.27117205442114795
1.8687202053538687,-0.043853102871821224
1.902090209020902,0.14131666382876965
1.9354602126879354,0.25738705650738725
1.9688302163549687,0.30266810747156736
2.002200220022002,0.29758477075192885
2.0355702236890356,0.27430306650110237
2.0689402273560686,0.2644303398083923
2.102310231023102,0.2894502903287072
2.1356802346901356,0.3560939768887783
2.169050238357169,0.4564680683542255
2.2024202420242025,0.5716276996527281
2.2357902456912355,0.6772161517388268
2.269160249358269,0.7499013164418195
2.3025302530253025,0.773105359762502
2.335900256692336,0.7403029567770402
2.369270260359369,0.654683330528677
2.4026402640264024,0.525449048815216
2.436010267693436,0.36276336419331984
2.4693802713604693,0.17419267429498014
2.502750275027503,-0.035309738122600916
2.536120278694536,-0.25994871444965545
2.5694902823615693,-0.4884419995993903
2.6028602860286028,-0.7014385683312149
2.636230289695636,-0.8733821129493528
2.6696002933626692,-0.9789219994315442
2.7029702970297027,-1.0014523801645159
2.736340300696736,-0.9398633972866612
2.7697103043637696,-0.8099353330833915
2.803080308030803,-0.639036181344928
2.836450311697836,-0.4560452848833519
2.8698203153648696,-0.28117245513453987
2.903190319031903,-0.12093987493562447
2.9365603226989365,0.02874863960522487
2.96993032636597,0.17300240916222792
3.003300330033003,0.3076113323963236
3.0366703337000365,0.4150857438078524
3.07004033736707,0.4711050758023936
3.1034103410341034,0.4591977879303536
3.1367803447011364,0.38559548024305346
3.17015034836817,0.2844882417238382
3.2035203520352034,0.20806261766221523
3.236890355702237,0.20394178446494682
3.2702603593692703,0.2904546011859273
3.3036303630363033,0.4428522301768306
3.3370003667033368,0.5991342399023398
3.3703703703703702,0.6845161151182413
3.4037403740374037,0.6438125508437286
3.4371103777044367,0.4664835742886756
3.47048038137147,0.19240573771840355
3.5038503850385037,-0.10412243518451188
3.537220388705537,-0.34415759821515546
3.5705903923725706,-0.4737223598426041
3.6039603960396036,-0.4806248033183976
3.637330399706637,-0.3930953535469896
3.6707004033736705,-0.26361457295373236
3.704070407040704,-0.1470341350179649
3.7374404107077375,-0.08256119408012749
3.7708104143747705,-0.08527434264107252
3.804180418041804,-0.14746107138067605
3.8375504217088374,-0.24615300560463918
3.870920425375871,-0.3522396195984525
3.904290429042904,-0.43802414561921327
3.9376604327099374,-0.48239262342464445
3.971030436376971,-0.4742226474796255
4.004400440044004,-0.41455666303964095
4.037770443711038,-0.3169501684437362
4.071140447378071,-0.20456825219342945
4.104510451045105,-0.10315186680744275
4.137880454712137,-0.031037308282476347
4.171250458379171,0.010071729988673927
4.204620462046204,0.0386425134165225
4.237990465713238,0.08763594885183376
4.271360469380271,0.19013092804880322
4.304730473047305,0.36167919405008947
4.338100476714338,0.5878037834326285
4.3714704803813715,0.8238740270554586
4.404840484048405,1.0091446074720265
4.438210487715438,1.0895430555127998
4.471580491382471,1.0387789268856018
4.5049504950495045,0.8676333652048617
4.538320498716538,0.6170984754442295
4.571690502383571,0.3393265679034055
4.605060506050605,0.07645948546305376
4.638430509717638,-0.15214073078677567
4.671800513384672,-0.34906610091186774
4.705170517051705,-0.5270178453115054
4.738540520718738,-0.6940637290609248
4.771910524385771,-0.8444303210758809
4.805280528052805,-0.9588220107656461
4.838650531719838,-1.0124461875250181
4.872020535386872,-0.9854601138690192
4.905390539053905,-0.8709223052944739
4.938760542720939,-0.6781237773192711
4.972130546387972,-0.43171154222538016
5.005500550055006,-0.16769649094177244
5.038870553722038,0.07318466867596966
5.072240557389072,0.2544594383084515
5.105610561056105,0.353705802018253
5.138980564723139,0.36974525525694873
5.172350568390172,0.32342144295973013
5.2057205720572055,0.25031444538551983
5.239090575724239,0.1876564460361888
5.272460579391272,0.16093676511737093
5.305830583058306,0.1760305504746747
5.3392005867253385,0.21987463458876189
5.372570590392372,0.2685194090471311
5.405940594059405,0.2982762799881237
5.439310597726439,0.2951153331012799
5.472680601393472,0.25914464896157785
5.506050605060506,0.2034655338526918
5.539420608727539,0.1486098838000986
5.572790612394573,0.11472913480960976
5.606160616061606,0.11404936136810172
5.63953061972864,0.14608077163823902
5.672900623395672,0.19740874124564756
5.706270627062706,0.246287628389698
5.739640630729739,0.27013546274573613
5.773010634396773,0.2526206539586621
5.806380638063806,0.1874401275406073
5.83975064173084,0.07800008967106042
5.873120645397873,-0.06538643039167313
5.9064906490649065,-0.2281401030475131
5.93986065273194,-0.3922496001179833
5.9732306563989725,-0.5358997086264825
6.006600660066006,-0.6343131523342632
6.0399706637330395,-0.6641544089925417
6.073340667400073,-0.6115812044053958
6.106710671067106,-0.4808105908724461
6.14008067473414,-0.29809781777421757
6.173450678401173,-0.10708927777057368
6.206820682068207,0.04444534606951882
6.24019068573524,0.12163567979709139
6.273560689402273,0.11573836395708238
6.306930693069306,0.04733102387957939
6.34030069673634,-0.042074581269778415
6.373670700403373,-0.10611315618934482
6.407040704070407,-0.11022249174915658
6.44041070773744,-0.04219509556620265
6.473780711404474,0.08664880069598037
6.507150715071507,0.2486732738893241
6.540520718738541,0.4114598035054436
6.573890722405573,0.54866101646052
6.607260726072607,0.6461618133032723
6.64063072973964,0.701751620697796
6.6740007334066735,0.7192627837128145
6.707370737073707,0.7006190184398673
6.7407407407407405,0.640395236338367
6.774110744407774,0.5264079770333293
6.807480748074807,0.34667032566014655
6.840850751741841,0.09932225574334455
6.8742207554088735,-0.19989377719490412
6.907590759075907,-0.5170305350558515
6.94096076274294,-0.8070810949354809
6.974330766409974,-1.025799191556876
7.007700770077007,-1.1410938916224536
7.041070773744041,-1.1397638952934483
7.074440777411074,-1.0281893626509786
7.107810781078108,-0.8284403050973924
7.141180784745141,-0.5724837299118671
7.174550788412174,-0.29656474431401675
7.207920792079207,-0.036413649814815416
7.241290795746241,0.17707273484246758
7.274660799413274,0.322049274100077
7.308030803080308,0.3895205622026852
7.341400806747341,0.38564404507287064
7.3747708104143745,0.3312005237978677
7.408140814081408,0.2573754647098087
7.4415108177484415,0.1981623398583119
7.474880821415475,0.18117838757719895
7.5082508250825075,0.2198021431756429
7.541620828749541,0.3095707769958673
7.5749908324165744,0.4303847446667883
7.608360836083608,0.5537056423150172
7.641730839750641,0.6517454384933086
7.675100843417675,0.7048602305900364
7.708470847084708,0.7044992960325335
7.741840850751742,0.6515176926139895
7.775210854418775,0.5520201619070748
7.808580858085808,0.41379958757451957
7.841950861752841,0.24540351856200804
7.875320865419875,0.05762732783527112
7.908690869086908,-0.13475856643227052
7.942060872753942,-0.3136780311806375
7.975430876420975,-0.4619386974387388
8.008800880088009,-0.5694257237545955
8.042170883755041,-0.6376665434868924
8.075540887422076,-0.6791257424148515
8.108910891089108,-0.710160306964576
8.142280894756142,-0.7405126791423144
8.175650898423175,-0.7651489941386092
8.20902090209021,-0.7639976649682555
8.242390905757242,-0.7112867741515816
8.275760909424275,-0.5905932848170752
8.309130913091309,-0.40767302487966967
8.342500916758341,-0.19336205698763712
8.375870920425376,0.006324780683307161
8.409240924092408,0.14884003849933355
8.442610927759443,0.21342422602459304
8.475980931426475,0.20996791167458995
8.50935093509351,0.17422898272268264
8.542720938760542,0.15220467282364014
8.576090942427575,0.1814379525001242
8.60946094609461,0.2774854025260847
8.642830949761642,0.4301071475015973
8.676200953428676,0.6086856950500934
8.709570957095709,0.7729098473453849
8.742940960762743,0.8841822421363645
8.776310964429776,0.9147333167190524
8.80968096809681,0.8532578598911505
8.843050971763843,0.706804941655839
8.876420975430875,0.49874706010144565
8.90979097909791,0.2628689935779668
8.943160982764942,0.034613903260655304
8.976530986431976,-0.1580332704745316
9.009900990099009,-0.3007687578556733
9.043270993766043,-0.39388893455205215
9.076640997433076,-0.4478750947706226
9.11001100110011,-0.47625001361101793
9.143381004767143,-0.4895270527560517
9.176751008434175,-0.49300408710126803
9.21012101210121,-0.4884756306793102
9.243491015768242,-0.47745203834273703
9.276861019435277,-0.4628442060701672
9.31023102310231,-0.44762460988745534
9.343601026769344,-0.4315114094557729
9.376971030436376,-0.40842151390332865
9.41034103410341,-0.36716025526646234
9.443711037770443,-0.29583163526310363
9.477081041437476,-0.18813081877560503
9.51045104510451,-0.04844437725345125
9.543821048771543,0.10689173709951098
9.577191052438577,0.253162669634085
9.61056105610561,0.3646523051183836
9.643931059772644,0.42324559533083395
9.677301063439677,0.4250339786728683
9.710671067106711,0.3822033525729812
9.744041070773743,0.31907770787212764
9.777411074440776,0.2634298637381224
9.81078107810781,0.23619723620223088
9.844151081774843,0.24361099123490995
9.877521085441877,0.2749446160513753
9.91089108910891,0.30686736694536826
9.944261092775944,0.31269306299966626
9.977631096442977,0.27282990914797256
10.011001100110011,0.18233380335189345
10.044371103777044,0.052799378095385645
10.077741107444076,-0.09175877090437941
10.11111111111111,-0.22301811440810915
10.144481114778143,-0.31716563448025625
10.177851118445178,-0.36134788341180185
10.21122112211221,-0.3559986244361776
10.244591125779245,-0.31291019964997807
10.277961129446277,-0.25017978820349496
10.311331133113312,-0.1858578783301563
10.344701136780344,-0.13235189298661093
10.378071140447377,-0.093452982692147
10.411441144114411,-0.06512784173785725
10.444811147781444,-0.039846743948353594
10.478181151448478,-0.012504044437421653
10.51155115511551,0.015230065080795014
10.544921158782545,0.03500025130325455
10.578291162449577,0.03699778687055579
10.611661166116612,0.017848110839872283
10.645031169783644,-0.013600468628076783
10.678401173450677,-0.03692786203301166
10.711771177117711,-0.028253490458975485
10.745141180784744,0.02763769786775586
10.778511184451778,0.1274652900687688
10.81188118811881,0.24757042810586635
10.845251191785845,0.35166868912311383
10.878621195452878,0.40492755840443406
10.911991199119912,0.38786450651217147
10.945361202786945,0.30383132170638116
10.978731206453979,0.17716217581230267
11.012101210121012,0.04341160933647738
11.045471213788044,-0.06373959117139642
11.078841217455079,-0.12361589096971425
11.112211221122111,-0.13398496091681436
11.145581224789145,-0.10978877987313025
11.178951228456178,-0.07668088802115247
11.212321232123212,-0.06227461525964188
11.245691235790245,-0.08801036485832249
11.27906123945728,-0.16355477015370498
11.312431243124312,-0.28438430471225506
11.345801246791344,-0.4323374219942557
11.379171250458379,-0.5786797810085331
11.412541254125411,-0.6893524002333541
11.445911257792446,-0.7320369680059499
11.479281261459478,-0.6841242456302309
11.512651265126513,-0.5397736752682868
11.546021268793545,-0.31364810672316806
11.57939127246058,-0.03928635724275198
11.612761276127612,0.23835864730257497
11.646131279794645,0.4744652349870097
11.67950128346168,0.6363769550912629
11.712871287128712,0.7120379552139035
11.746241290795746,0.7119228816405493
11.779611294462779,0.6638733093110408
11.812981298129813,0.6026714861902607
11.846351301796846,0.5577979769275268
11.87972130546388,0.5432807470782127
11.913091309130913,0.5529534574673773
11.946461312797945,0.5629873631792759
11.97983131646498,0.5413659972565027
12.013201320132012,0.46137334373911915
12.046571323799046,0.31405299830534
12.079941327466079,0.11420838369987195
12.113311331133113,-0.10336786820027297
12.146681334800146,-0.2966168542419482
12.18005133846718,-0.43275399951449134
12.213421342134213,-0.5012668185893346
12.246791345801245,-0.5172805248543226
12.28016134946828,-0.5135801175972531
12.313531353135312,-0.5249497633935409
12.346901356802347,-0.5721190789584016
12.38027136046938,-0.6526343494958764
12.413641364136414,-0.742448499624654
12.447011367803446,-0.8068364954797536
12.48038137147048,-0.8150434306791712
12.513751375137513,-0.7518472570987363
12.547121378804546,-0.6213304073118029
12.58049138247158,-0.44229735971912104
12.613861386138613,-0.23874704323523954
12.647231389805647,-0.030665366599595362
12.68060139347268,0.17057834434586108
12.713971397139714,0.36096243955420176
12.747341400806746,0.5386469628739629
12.78071140447378,0.6986165596040435
12.814081408140813,0.830341849917425
12.847451411807846,0.9195497067271385
12.88082141547488,0.9528564785076885
12.914191419141913,0.9227459748577913
12.947561422808947,0.8306134566569916
12.98093142647598,0.6868759060405308
13.014301430143014,0.508559621901697
13.047671433810047,0.3156098213101061
13.081041437477081,0.1272519428260665
13.114411441144114,-0.04067696439432106
13.147781444811146,-0.1770829117445432
13.18115144847818,-0.27584638444706383
13.214521452145213,-0.33549185760861544
13.247891455812248,-0.35891314277691366
13.28126145947928,-0.3534110836749176
13.314631463146315,-0.33066023875344114
13.348001466813347,-0.305727153376973
13.381371470480381,-0.29437741739808954
13.414741474147414,-0.3087606989769697
13.448111477814447,-0.3527598909031774
13.481481481481481,-0.41909087500590575
13.514851485148514,-0.4899939088364879
13.548221488815548,-0.5419566483530458
13.58159149248258,-0.5529641491884716
13.614961496149615,-0.509364577339739
13.648331499816647,-0.4094900742956027
13.681701503483682,-0.2627864958855939
13.715071507150714,-0.08550754223676608
13.748441510817747,0.10433160272624349
13.781811514484781,0.290046759116594
13.815181518151814,0.45637845788365516
13.848551521818848,0.5878669258204068
13.88192152548588,0.6683462670714831
13.915291529152915,0.6840368850324648
13.948661532819948,0.6302955158692306
13.982031536486982,0.5187965279246969
14.015401540154015,0.37990461879491466
14.048771543821047,0.25612805050770615
14.082141547488082,0.1869552952091067
14.115511551155114,0.1908976766904064
14.148881554822148,0.25373960321284417
14.182251558489181,0.33034338878617475
14.215621562156215,0.3611600998281153
14.248991565823248,0.2970095647779932
14.282361569490282,0.12093644131492777
14.315731573157315,-0.14315543352512117
14.349101576824348,-0.43911633566378355
14.382471580491382,-0.7000818653348728
14.415841584158414,-0.8726329956584726
14.449211587825449,-0.9328353690278909
14.482581591492481,-0.8883970413991702
14.515951595159516,-0.7685452335083597
14.549321598826548,-0.6087882529026604
14.582691602493583,-0.4387207775121792
14.616061606160615,-0.2775343105431586
14.649431609827648,-0.13651627839623107
14.682801613494682,-0.02390913916610813
14.716171617161715,0.052877838306891814
14.749541620828749,0.08981882854281946
14.782911624495782,0.09169176114121581
14.816281628162816,0.07593887939985347
14.849651631829849,0.07096242174538095
14.883021635496883,0.10790878293424433
14.916391639163916,0.20884170895140414
14.94976164283095,0.3765717098280894
14.983131646497982,0.5909119318657144
15.016501650165015,0.8130916116551068
15.04987165383205,0.9962945881151328
15.083241657499082,1.0979474636431117
15.116611661166116,1.0895563893885474
15.149981664833149,0.9619971097063049
15.183351668500183,0.7264829977921832
15.216721672167216,0.41244905799034753
15.25009167583425,0.06307962946273578
15.283461679501283,-0.27170099547259746
15.316831683168315,-0.5448586509779397
15.35020168683535,-0.7230787839538995
15.383571690502382,-0.795482105048735
15.416941694169417,-0.7763033259581399
15.45031169783645,-0.6992909837421513
15.483681701503484,-0.6050771315406954
15.517051705170516,-0.5262920472896215
15.55042170883755,-0.47672733341735635
15.583791712504583,-0.44930204651770683
15.617161716171616,-0.4235327786514847
15.65053171983865,-0.37864449543953166
15.683901723505683,-0.30575025685737156
15.717271727172717,-0.21311742815070128
15.75064173083975,-0.1221404231557844
15.784011734506784,-0.0563770155735068
15.817381738173816,-0.02940483604792832
15.85075174184085,-0.037579242593993804
15.884121745507883,-0.060961094021649995
15.917491749174916,-0.07137573827084472
15.95086175284195,-0.04318432126747576
15.984231756508983,0.038300492272556275
16.017601760176017,0.17362811832447622
16.05097176384305,0.35073085948788557
16.084341767510082,0.5483434450998143
16.117711771177117,0.738745596072246
16.15108177484415,0.8895466787242746
16.184451778511182,0.9666100099383997
16.217821782178216,0.9405851970239368
16.25119178584525,0.7971759650147162
16.284561789512285,0.5475214274171145
16.317931793179316,0.23254426649798485
16.35130179684635,-0.08386995360085463
16.384671800513384,-0.3331507185642286
16.41804180418042,-0.4656714830190772
16.45141180784745,-0.46944393332087625
16.484781811514484,-0.3745651619123945
16.51815181518152,-0.24032495939590234
16.55152181884855,-0.130276724583631
16.584891822515583,-0.08660647787975827
16.618261826182618,-0.11544714746281451
16.651631829849652,-0.18918994031191444
16.685001833516683,-0.26341531174060673
16.718371837183717,-0.29933323770484055
16.75174184085075,-0.2809550129623915
16.785111844517782,-0.21998279621088923
16.818481848184817,-0.14800638422572854
16.85185185185185,-0.10129528459995614
16.885221855518886,-0.10564922827898325
16.918591859185916,-0.16717146418826373
16.95196186285295,-0.2711754429410988
16.985331866519985,-0.38796703614551264
17.01870187018702,-0.4823690782777746
17.05207187385405,-0.5236796558353752
17.085441877521085,-0.4935294353522948
17.11881188118812,-0.39003222334437115
17.15218188485515,-0.22742204532632782
17.185551888522184,-0.031241252513165712
17.21892189218922,0.16967680839434165
17.252291895856253,0.35188443748557013
17.285661899523284,0.5033612167438578
17.319031903190318,0.6242087921615961
