Frequency (Hz),Amplitude
0.0,1.1493433919992113
0.019867549668874173,1.1496430275947622
0.039735099337748346,1.1505402976578403
0.059602649006622516,1.1520303093100632
0.07947019867549669,1.1541049649663322
0.09933774834437085,1.1567530466720282
0.11920529801324503,1.159960331283832
0.13907284768211922,1.1637097337626146
0.15894039735099338,1.1679814752820152
0.17880794701986755,1.1727532724315053
0.1986754966887417,1.17800054351799
0.2185430463576159,1.183696627846857
0.23841059602649006,1.1898130138835366
0.2582781456953642,1.1963195723461746
0.27814569536423844,1.2031847905380415
0.2980132450331126,1.2103760045731473
0.31788079470198677,1.2178596265534811
0.33774834437086093,1.225601364199545
0.3576158940397351,1.233566430892767
0.3774834437086093,1.2417197445412154
0.3973509933774834,1.2500261141117137
0.4172185430463576,1.2584504130701188
0.4370860927152318,1.2669577393286364
0.45695364238410596,1.2755135616094577
0.4768211920529801,1.284083852395628
0.49668874172185434,1.2926352078533565
0.5165562913907285,1.301134955277038
0.5364238410596026,1.3095512487329877
0.5562913907284769,1.3178531536647318
0.5761589403973509,1.326010721276202
0.5960264900662252,1.333995053535442
0.6158940397350993,1.341778359644142
0.6357615894039735,1.349334004803257
0.6556291390728477,1.3566365520756667
0.6754966887417219,1.3636617981070513
0.695364238410596,1.3703868034196593
0.7152317880794702,1.3767899179420213
0.7350993377483444,1.3828508023843513
0.7549668874172186,1.3885504460149616
0.7748344370860927,1.3938711813396476
0.7947019867549668,1.3987966961339622
0.8145695364238411,1.4033120432292367
0.8344370860927152,1.407403648406089
0.8543046357615894,1.41105931670608
0.8741721854304636,1.4142682374313464
0.8940397350993378,1.4170209880648914
0.9139072847682119,1.4193095373098485
0.9337748344370861,1.4211272474140253
0.9536423841059603,1.4224688759173187
0.9735099337748344,1.4233305769319862
0.9933774834437087,1.4237099020406778
1.0132450331125828,1.4236058008733514
1.033112582781457,1.423018621401071
1.0529801324503312,1.4219501099629215
1.0728476821192052,1.4204034110199417
1.0927152317880795,1.4183830666085409
1.1125827814569538,1.4158950154427812
1.1324503311258278,1.4129465915922288
1.1523178807947019,1.4095465226368828
1.1721854304635762,1.405704927174768
1.1920529801324504,1.4014333115294941
1.2119205298013245,1.3967445654745703
1.2317880794701985,1.3916529567580174
1.2516556291390728,1.386174124175022
1.271523178807947,1.38032506889709
1.2913907284768211,1.3741241437243197
1.3112582781456954,1.3675910398818356
1.3311258278145695,1.3607467709333407
1.3509933774834437,1.353613653333952
1.370860927152318,1.3462152830914167
1.390728476821192,1.3385765079507517
1.410596026490066,1.3307233944632588
1.4304635761589404,1.3226831892479411
1.4503311258278146,1.3144842737041835
1.4701986754966887,1.3061561113909097
1.4900662251655628,1.2977291872530228
1.5099337748344372,1.2892349378529657
1.5298013245033113,1.2807056717595147
1.5496688741721854,1.2721744792599554
1.5695364238410596,1.2636751306018552
1.5894039735099337,1.2552419620410284
1.609271523178808,1.2469097490786558
1.6291390728476822,1.2387135664169162
1.6490066225165563,1.2306886343535308
1.6688741721854303,1.222870151574818
1.6887417218543048,1.215293114593833
1.7086092715231789,1.2079921244164566
1.728476821192053,1.2010011813980355
1.7483443708609272,1.1943534696711815
1.7682119205298013,1.1880811329701797
1.7880794701986755,1.182215044135277
1.8079470198675496,1.1767845710328764
1.8278145695364238,1.1718173420543567
1.847682119205298,1.167339014733189
1.8675496688741722,1.163373051322604
1.8874172185430464,1.15994050538061
1.9072847682119205,1.1570598234929321
1.9271523178807946,1.1547466662116193
1.9470198675496688,1.1530137520843542
1.9668874172185429,1.1518707282961467
1.9867549668874174,1.15132407094452
2.0066225165562916,1.1513770173380482
2.0264900662251657,1.1520295319693128
2.0463576158940397,1.1532783069988823
2.066225165562914,1.1551167972331446
2.086092715231788,1.1575352887265105
2.1059602649006623,1.160520999326293
2.1258278145695364,1.1640582087442282
2.1456953642384105,1.1681284151125004
2.165562913907285,1.1727105144882246
2.185430463576159,1.1777809994229589
2.205298013245033,1.1833141725184293
2.2251655629139075,1.1892823708423226
2.2450331125827816,1.1956561971675808
2.2649006622516556,1.2024047542073109
2.2847682119205297,1.209495878323482
2.3046357615894038,1.2168963695664163
2.324503311258278,1.224572215330046
2.3443708609271523,1.232488805360349
2.364238410596027,1.2406111363115158
2.384105960264901,1.2489040044877415
2.403973509933775,1.2573321858242088
2.423841059602649,1.2658606025387162
2.443708609271523,1.274454476218621
2.463576158940397,1.2830794673929036
2.4834437086092715,1.2917018018754804
2.5033112582781456,1.3002883843549193
2.52317880794702,1.3088068998503297
2.543046357615894,1.3172259037576277
2.562913907284768,1.3255149012795642
2.5827814569536423,1.33364441707161
2.6026490066225163,1.3415860559493622
2.622516556291391,1.3493125554962644
2.642384105960265,1.3567978313874849
2.662251655629139,1.3640170162108574
2.6821192052980134,1.3709464925221402
2.7019867549668874,1.3775639208225818
2.7218543046357615,1.3838482630940936
2.741721854304636,1.389779802473284
2.76158940397351,1.3953401595916812
2.781456953642384,1.4005123060567877
2.801324503311258,1.4052805754980304
2.821192052980132,1.409630672553532
2.8410596026490067,1.4135496801288323
2.8609271523178808,1.4170260652165174
2.8807947019867552,1.420049683526995
2.9006622516556293,1.422611783144841
2.9205298013245033,1.4247050073921697
2.9403973509933774,1.4263233970499962
2.9602649006622515,1.4274623920605791
2.9801324503311255,1.4281188328074257
3.0,1.428290961045155
3.0198675496688745,1.4279784205280777
3.0397350993377485,1.4271822573638338
3.0596026490066226,1.425904920096368
3.0794701986754967,1.424150259500714
3.0993377483443707,1.421923528049578
3.119205298013245,1.4192313789889892
3.1390728476821192,1.4160818649359403
3.1589403973509933,1.4124844358856632
3.1788079470198674,1.4084499364887315
3.198675496688742,1.4039906024286184
3.218543046357616,1.3991200556983454
3.23841059602649,1.3938532985403198
3.2582781456953644,1.388206705775292
3.2781456953642385,1.3821980152060556
3.2980132450331126,1.375846315737116
3.3178807947019866,1.3691720328047452
3.3377483443708607,1.362196910661981
3.3576158940397347,1.3549439910108212
3.3774834437086096,1.3474375874201105
3.3973509933774837,1.3397032549131993
3.4172185430463577,1.3317677540554125
3.437086092715232,1.323659008820349
3.456953642384106,1.3154060574671025
3.47682119205298,1.307038995621253
3.4966887417218544,1.2985889107238238
3.5165562913907285,1.2900878069977983
3.5364238410596025,1.2815685200860831
3.556291390728477,1.2730646205422207
3.576158940397351,1.2646103054106343
3.596026490066225,1.2562402772224859
3.615894039735099,1.247989609860321
3.6357615894039736,1.239893600914979
3.6556291390728477,1.231987610374862
3.6754966887417218,1.2243068857527828
3.695364238410596,1.216886374069705
3.7152317880794703,1.2097605214753895
3.7350993377483444,1.2029630616879232
3.754966887417219,1.1965267948687828
3.774834437086093,1.190483359004673
3.794701986754967,1.1848629963260733
3.814569536423841,1.179694317735135
3.834437086092715,1.1750040686197054
3.854304635761589,1.1708168997721091
3.8741721854304636,1.1671551473854977
3.8940397350993377,1.164038626244501
3.9139072847682117,1.1614844402407576
3.9337748344370858,1.1595068142131255
3.9536423841059607,1.158116950830147
3.9735099337748347,1.1573229157997629
3.993377483443709,1.157129554118962
4.013245033112583,1.1575384393841412
4.033112582781457,1.1585478573989323
4.052980132450331,1.1601528244753703
4.072847682119205,1.1623451399650218
4.0927152317880795,1.1651134717192444
4.112582781456953,1.1684434724009014
4.132450331125828,1.172317923887433
4.152317880794702,1.1767169064447067
4.172185430463576,1.181617988931562
4.19205298013245,1.1869964360258851
4.211920529801325,1.192825428345187
4.231788079470199,1.1990762913600983
4.251655629139073,1.2057187291528988
4.271523178807947,1.2127210593351003
4.291390728476821,1.2200504457853072
4.311258278145695,1.2276731262758025
4.33112582781457,1.2355546324999263
4.3509933774834435,1.2436600004701313
4.370860927152318,1.251953969708549
4.390728476821192,1.2604011700830924
4.410596026490066,1.2689662955395793
4.43046357615894,1.2776142643361785
4.450331125827815,1.2863103656956205
4.470198675496689,1.2950203930507516
4.490066225165563,1.3037107642712649
4.509933774834438,1.3123486294251774
4.529801324503311,1.320901966752624
4.549668874172186,1.3293396676152587
4.569536423841059,1.3376316112378
4.589403973509934,1.3457487300836666
4.6092715231788075,1.3536630667092733
4.629139072847682,1.3613478229261002
4.649006622516556,1.3687774020702244
4.66887417218543,1.3759274451393022
4.688741721854305,1.3827748615102204
4.708609271523179,1.3892978548993262
4.728476821192054,1.3954759451736867
4.748344370860927,1.401289986567677
4.768211920529802,1.4067221828056444
4.788079470198675,1.411756099579922
4.80794701986755,1.4163766747838136
4.827814569536423,1.420570226852906
4.847682119205298,1.4243244615243047
4.867549668874172,1.4276284772831012
4.887417218543046,1.4304727697281174
4.9072847682119205,1.4328492350543902
4.927152317880794,1.4347511728182938
4.947019867549669,1.4361732881218345
4.966887417218543,1.4371116933254793
4.986754966887418,1.4375639093735395
5.006622516556291,1.4375288667920312
5.026490066225166,1.437006906395987
5.04635761589404,1.435999779720879
5.066225165562914,1.4345106491707138
5.086092715231788,1.4325440878531068
5.105960264900662,1.4301060790489193
5.125827814569536,1.427204015240324
5.14569536423841,1.4238466965962628
5.1655629139072845,1.4200443287875604
5.185430463576159,1.4158085199752855
5.205298013245033,1.4111522767849418
5.225165562913908,1.4060899990455298
5.245033112582782,1.4006374730356814
5.264900662251656,1.3948118629398272
5.28476821192053,1.3886317001742607
5.304635761589404,1.382116870197262
5.324503311258278,1.3752885963684913
5.344370860927152,1.368169420371491
5.364238410596027,1.3607831786595994
5.3841059602649,1.353154974330935
5.403973509933775,1.3453111437837437
5.4238410596026485,1.3372792174501107
5.443708609271523,1.3290878738569434
5.463576158940397,1.3207668862197433
5.483443708609272,1.3123470607403664
5.503311258278146,1.3038601657585938
5.52317880794702,1.2953388509019956
5.543046357615895,1.2868165553950106
5.562913907284768,1.278327404730043
5.582781456953643,1.2699060949768768
5.602649006622516,1.2615877641158897
5.622516556291391,1.253407849931241
5.642384105960264,1.2454019341956415
5.662251655629139,1.237605573121598
5.682119205298013,1.2300541143470023
5.701986754966887,1.222782501063512
5.7218543046357615,1.2158250642814752
5.741721854304636,1.2092153046475367
5.7615894039735105,1.2029856656800553
5.781456953642384,1.197167300748246
5.801324503311259,1.1917898365756492
5.821192052980132,1.1868811364754719
5.841059602649007,1.1824670669010462
5.860927152317881,1.1785712711941851
5.880794701986755,1.1752149546137258
5.900662251655629,1.172416684804246
5.920529801324503,1.1701922118036905
5.940397350993377,1.1685543114777444
5.960264900662251,1.1675126559055156
5.980132450331126,1.167073713731383
6.0,1.1672406828576458
6.0198675496688745,1.1680134571059422
6.039735099337749,1.1693886276541852
6.059602649006623,1.1713595191976303
6.079470198675497,1.1739162599268573
6.099337748344371,1.1770458836025885
6.119205298013245,1.1807324612732761
6.139072847682119,1.1849572595574962
6.158940397350993,1.189698921922611
6.178807947019867,1.194933669047831
6.198675496688741,1.2006355141690022
6.218543046357616,1.2067764892598132
6.23841059602649,1.2133268779980961
6.258278145695365,1.2202554516788304
6.2781456953642385,1.2275297045448674
6.298013245033113,1.2351160853884313
6.317880794701987,1.2429802227064957
6.337748344370861,1.2510871411475755
6.357615894039735,1.2594014674456404
6.377483443708609,1.2678876244811208
6.397350993377484,1.2765100125250866
6.417218543046357,1.2852331771007501
6.437086092715232,1.294021963229684
6.456953642384105,1.3028416561152836
6.47682119205298,1.3116581085521215
6.496688741721854,1.3204378555387606
6.516556291390729,1.3291482167160276
6.5364238410596025,1.33775738735709
6.556291390728477,1.346234518704753
6.5761589403973515,1.3545497884900477
6.596026490066225,1.36267446247959
6.6158940397351,1.3705809478924618
6.635761589403973,1.3782428395042048
6.655629139072848,1.3856349592206394
6.675496688741721,1.392733389860593
6.695364238410596,1.3995155038371632
6.715231788079469,1.4059599873746311
6.735099337748344,1.4120468608437828
6.754966887417219,1.4177574957446608
6.774834437086093,1.4230746288127454
6.794701986754967,1.4279823736741442
6.814569536423841,1.4324662304268916
6.8344370860927155,1.4365130934806933
6.854304635761589,1.440111257944999
6.874172185430464,1.4432504248165743
6.894039735099337,1.4459217051816253
6.913907284768212,1.448117623614338
6.933774834437086,1.449832120923196
6.95364238410596,1.4510605563679875
6.973509933774834,1.451799709444009
6.993377483443709,1.452047781305195
7.013245033112583,1.4518043958742057
7.033112582781457,1.451070600664679
7.052980132450331,1.4498488673185692
7.072847682119205,1.448143091838919
7.0927152317880795,1.445958594476056
7.112582781456954,1.4433021192013031
7.132450331125828,1.4401818326781755
7.152317880794702,1.4366073226144918
7.172185430463576,1.4325895953511838
7.19205298013245,1.4281410725131607
7.211920529801324,1.4232755865149598
7.231788079470198,1.4180083746782732
7.251655629139073,1.4123560716800305
7.271523178807947,1.406336700007732
7.291390728476822,1.3999696580541803
7.311258278145695,1.3932757054354432
7.33112582781457,1.3862769450653427
7.3509933774834435,1.3789968014665452
7.370860927152318,1.371459994743723
7.390728476821192,1.3636925095888104
7.410596026490066,1.3557215586343614
7.430463576158941,1.3475755394188618
7.450331125827814,1.3392839841813406
7.470198675496689,1.3308775016634486
7.490066225165562,1.3223877100688979
7.509933774834438,1.313847160317168
7.52980132450331,1.3052892487340726
7.549668874172186,1.2967481183515315
7.569536423841059,1.2882585480478577
7.589403973509934,1.2798558288525235
7.6092715231788075,1.2715756268717893
7.629139072847682,1.2634538324666682
7.649006622516557,1.2555263955380909
7.66887417218543,1.2478291470457064
7.6887417218543055,1.240397607208221
7.708609271523178,1.2332667812014113
7.728476821192054,1.2264709435791923
7.748344370860927,1.2200434130846436
7.768211920529802,1.2140163199790326
7.788079470198675,1.2084203684799708
7.80794701986755,1.2032845973462867
7.827814569536423,1.198636142052581
7.847682119205298,1.1945000023373733
7.8675496688741715,1.1908988191598566
7.887417218543046,1.1878526652384833
7.907284768211921,1.1853788533505007
7.927152317880795,1.1834917664310425
7.9470198675496695,1.1822027132164654
7.966887417218543,1.1815198127316007
7.986754966887418,1.1814479103356315
8.006622516556291,1.181988527336303
8.026490066225167,1.1831398453868602
8.046357615894038,1.184896726028637
8.066225165562914,1.1872507648745039
8.086092715231787,1.1901903790848996
8.105960264900663,1.1937009260066174
8.125827814569536,1.1977648501609113
8.14569536423841,1.202361855206552
8.165562913907285,1.2074690970860418
8.185430463576159,1.2130613942973851
8.205298013245034,1.2191114511201195
8.225165562913906,1.2255900896546437
8.245033112582782,1.2324664866929356
8.264900662251655,1.2397084117058355
8.28476821192053,1.2472824625843548
8.304635761589404,1.2551542961845588
8.324503311258278,1.2632888511734621
8.344370860927151,1.271650561134945
8.364238410596027,1.2802035563502512
8.3841059602649,1.2889118531013906
8.403973509933774,1.2977395297458811
8.42384105960265,1.3066508891689748
8.443708609271523,1.315610607530267
8.463576158940398,1.3245838694832834
8.483443708609272,1.333536490259585
8.503311258278146,1.342435025175883
8.52317880794702,1.3512468672469464
8.543046357615895,1.3599403336735194
8.562913907284768,1.368484742027742
8.582781456953642,1.3768504769844414
8.602649006622515,1.3850090484490074
8.62251655629139,1.392933141917445
8.642384105960264,1.4005966618742898
8.66225165562914,1.407974768994499
8.682119205298013,1.4150439118682088
8.701986754966887,1.4217818539158629
8.721854304635762,1.4281676961072791
8.741721854304636,1.4341818960438317
8.76158940397351,1.439806283909041
8.781456953642383,1.445024075740935
8.801324503311259,1.4498198844296786
8.821192052980132,1.4541797287970912
8.841059602649008,1.4580910410708106
8.86092715231788,1.4615426730249532
8.880794701986755,1.4645249010216137
8.90066225165563,1.4670294301524531
8.920529801324504,1.4690493976478067
8.940397350993377,1.470579375690837
8.960264900662251,1.47161537374677
8.980132450331126,1.47215484049133
9.0,1.4721966653980678
9.019867549668875,1.4717411800208382
9.039735099337747,1.4707901589847
9.059602649006623,1.4693468206760134
9.079470198675496,1.4674158275995177
9.099337748344372,1.4650032863469267
9.119205298013245,1.4621167470969867
9.139072847682119,1.4587652025413547
9.158940397350994,1.4549590861030217
9.178807947019868,1.4507102692844396
9.198675496688743,1.4460320579505292
9.218543046357615,1.4409391873168564
9.23841059602649,1.4354478153755874
9.258278145695364,1.4295755144510274
9.27814569536424,1.4233412605322169
9.298013245033111,1.4167654199829811
9.317880794701987,1.4098697331794001
9.33774834437086,1.4026772945718098
9.357615894039736,1.395212528613453
9.37748344370861,1.387501160942125
9.397350993377483,1.3795701841451258
9.417218543046358,1.3714478173839475
9.437086092715232,1.3631634591049828
9.456953642384107,1.354747632018857
9.47682119205298,1.346231919496919
9.496688741721854,1.337648892512397
9.516556291390728,1.3290320262503446
9.536423841059603,1.3204156055287617
9.556291390728477,1.3118346182188165
9.57615894039735,1.3033246359297068
9.596026490066224,1.2949216813387214
9.6158940397351,1.2866620817043677
9.635761589403973,1.2785823083039265
9.655629139072847,1.2707188017894542
9.675496688741722,1.2631077837593
9.695364238410596,1.255785055193953
9.715231788079471,1.248785782801698
9.735099337748345,1.2421442747538045
9.754966887417218,1.2358937477487106
9.774834437086092,1.2300660878159482
9.794701986754967,1.2246916077333707
9.814569536423841,1.2197988043647205
9.834437086092716,1.2154141196034263
9.854304635761588,1.2115617089083406
9.874172185430464,1.2082632216132598
9.894039735099337,1.205537597262248
9.913907284768213,1.203400882150971
9.933774834437086,1.2018660700290795
9.95364238410596,1.2009429705383254
9.973509933774835,1.2006381084325675
9.993377483443709,1.2009546559653008
10.013245033112582,1.2018924000635771
10.033112582781456,1.2034477450663283
10.052980132450331,1.2056137509292926
10.072847682119205,1.2083802059276825
10.09271523178808,1.211733732062495
10.112582781456952,1.215657920633704
10.132450331125828,1.2201334948141485
10.152317880794701,1.2251384955654872
10.172185430463577,1.2306484868954148
10.192052980132452,1.236636776268158
10.211920529801324,1.2430746459437814
10.2317880794702,1.249931591123245
10.251655629139073,1.2571755609977375
10.271523178807948,1.2647731991193423
10.29139072847682,1.2726900799014622
10.311258278145695,1.2808909384963505
10.331125827814569,1.289339891760159
10.350993377483444,1.2980006484817685
10.370860927152318,1.3068367075028662
10.390728476821192,1.3158115427787949
10.410596026490065,1.3248887748131006
10.43046357615894,1.334032328235907
10.450331125827816,1.343206575584929
10.470198675496688,1.3523764675868406
10.490066225165563,1.3615076504273724
10.509933774834437,1.3705665706445986
10.529801324503312,1.3795205683850638
10.549668874172186,1.3883379598319139
10.56953642384106,1.396988109653129
10.589403973509933,1.4054414943311988
10.609271523178808,1.4136697572284882
10.629139072847682,1.421645756218959
10.649006622516556,1.429343604681411
10.66887417218543,1.4367387066049055
10.688741721854305,1.4438077865071652
10.70860927152318,1.4505289148129707
