Frequency (Hz),Amplitude
0.0,7.60377732427598
0.020066889632107024,7.600213950416122
0.04013377926421405,7.5895278632659835
0.060200668896321065,7.571731167451863
0.0802675585284281,7.546844041914647
0.10033444816053512,7.514894747122848
0.12040133779264213,7.475919635917538
0.14046822742474915,7.429963168764075
0.1605351170568562,7.377077934448728
0.1806020066889632,7.317324677555796
0.20066889632107024,7.250772334402593
0.22073578595317725,7.177498079510119
0.24080267558528426,7.09758738516063
0.2608695652173913,7.011134097161417
0.2809364548494983,6.918240530620037
0.3010033444816054,6.819017590373265
0.3210702341137124,6.713584921739582
0.34113712374581934,6.60207109853588
0.3612040133779264,6.484613856879556
0.3812709030100334,6.361360385276412
0.4013377926421405,6.232467683985343
0.42140468227424743,6.098103009805183
0.4414715719063545,5.958444426444968
0.4615384615384615,5.813681485781592
0.4816053511705685,5.66401607193125
0.5016722408026756,5.509663448636515
0.5217391304347826,5.350853561637443
0.5418060200668896,5.187832662313137
0.5618729096989966,5.020865338116735
0.5819397993311036,4.85023706076079
0.6020066889632107,4.67625739688006
0.6220735785953176,4.4992640708838705
0.6421404682274248,4.31962812974826
0.6622073578595318,4.1377605396136
0.6822742474916387,3.9541206505991213
0.7023411371237458,3.769227106761282
0.7224080267558528,3.583671960392925
0.7424749163879598,3.3981389791032846
0.7625418060200668,3.213427406020686
0.7826086956521738,3.030482718443121
0.802675585284281,2.850436140244929
0.8227424749163879,2.674654585723489
0.8428093645484949,2.504801889579348
0.862876254180602,2.3429097153922096
0.882943143812709,2.1914508887072754
0.903010033444816,2.053396917371762
0.923076923076923,1.9322235343264473
0.9431438127090299,1.831806102861467
0.963210702341137,1.7561356822292193
0.983277591973244,1.7088186383417854
1.0033444816053512,1.6924278550947516
1.0234113712374582,1.7079201935853174
1.0434782608695652,1.7543938837542534
1.0635451505016722,1.8293178199553433
1.0836120401337792,1.9291077445724776
1.1036789297658862,2.04977677280955
1.1237458193979932,2.1874418237084594
1.1438127090301002,2.3386137487717664
1.1638795986622072,2.50030627147007
1.1839464882943145,2.6700327914456614
1.2040133779264215,2.8457498064106956
1.2240802675585283,3.0257837398133858
1.2441471571906353,3.208759838287743
1.2642140468227423,3.3935406299212953
1.2842809364548495,3.579175663655986
1.3043478260869565,3.7648617195021505
1.3244147157190636,3.949911823203393
1.3444816053511706,4.133731307333705
1.3645484949832773,4.31579936602547
1.3846153846153846,4.49565483483884
1.4046822742474916,4.672885200083092
1.4247491638795986,4.847118072471713
1.4448160535117056,5.018014543551441
1.4648829431438126,5.185263984951745
1.4849498327759196,5.348579957914272
1.5050167224080266,5.507696981343149
1.5250836120401337,5.662367967158295
1.5451505016722407,5.812362177094974
1.5652173913043477,5.957463589142623
1.5852842809364547,6.09746958745847
1.605351170568562,6.232189908982632
1.625418060200669,6.361445794715496
1.6454849498327757,6.485069304871158
1.6655518394648827,6.602902765761729
1.6856187290969897,6.714798322938817
1.705685618729097,6.820617580298924
1.725752508361204,6.920231308904032
1.745819397993311,7.013519212444926
1.765886287625418,7.100369738782643
1.7859531772575248,7.180679928995659
1.806020066889632,7.254355296951425
1.826086956521739,7.321309733699758
1.846153846153846,7.381465432019715
1.866220735785953,7.434752827293451
1.8862876254180598,7.481110551571084
1.9063545150501673,7.520485398261522
1.926421404682274,7.552832295360771
1.9464882943143813,7.578114285531695
1.966555183946488,7.596302511692992
1.9866220735785953,7.607376207074395
2.0066889632107023,7.61132268895956
2.026755852842809,7.60813735557778
2.0468227424749164,7.597823685828128
2.0668896321070234,7.580393241732021
2.0869565217391304,7.555865673719497
2.1070234113712374,7.524268729066896
2.1270903010033444,7.485638264025994
2.1471571906354514,7.4400182604243215
2.1672240802675584,7.387460847780599
2.1872909698996654,7.32802633227827
2.2073578595317724,7.261783234283568
2.2274247491638794,7.188808336496418
2.2474916387959865,7.10918674529809
2.267558528428094,7.023011968429529
2.2876254180602005,6.930386012822439
2.3076923076923075,6.8314195072452435
2.3277591973244145,6.7262318554556755
2.3478260869565215,6.614951426825919
2.367892976588629,6.49771579298956
2.3879598662207355,6.374672021041238
2.408026755852843,6.245977036312825
2.4280936454849495,6.1117980709052935
2.4481605351170566,5.972313218169979
2.468227424749164,5.827712118471334
2.4882943143812706,5.678196808174692
2.508361204013378,5.52398277235845
2.5284280936454846,5.365300252880822
2.548494983277592,5.202395877990523
2.568561872909699,5.0355346988099665
2.5886287625418056,4.865002743297514
2.608695652173913,4.691110231816493
2.6287625418060196,4.51419564303014
2.648829431438127,4.3346308782603
2.668896321070234,4.15282785159107
2.688963210702341,3.969246938026101
2.709030100334448,3.784407850163614
2.7290969899665547,3.5989036924839257
2.749163879598662,3.413419166053297
2.769230769230769,3.2287541601287586
2.789297658862876,3.045854240419758
2.809364548494983,2.865849738325748
2.82943143812709,2.6901050507741253
2.849498327759197,2.520278926965478
2.869565217391304,2.358394075573591
2.8896321070234112,2.2069088810214446
2.9096989966555182,2.0687733096959073
2.9297658862876252,1.9474337161522601
2.9498327759197323,1.8467300605756065
2.9698996655518393,1.7706184644051732
2.9899665551839463,1.722682813095394
3.0100334448160533,1.7055000118028116
3.0301003344481603,1.7200650990160569
3.0501672240802673,1.7655423289893117
3.0702341137123748,1.8394760285488898
3.0903010033444813,1.9383471199744196
3.1103678929765888,2.058212557781662
3.1304347826086953,2.1952108640440637
3.1505016722408024,2.3458573433687
3.1705685618729094,2.507159456479438
3.1906354515050164,2.676618898818807
3.210702341137124,2.8521785173366707
3.2307692307692304,3.0321511307649356
3.250836120401338,3.215149404750862
3.270903010033445,3.4000246862367596
3.2909698996655514,3.585816797161092
3.311036789297659,3.7717141452851877
3.3311036789297654,3.957022578938335
3.351170568561873,4.14114127564341
3.3712374581939795,4.323544134374634
3.391304347826087,4.503765411949611
3.411371237458194,4.681388610019705
3.4314381270903005,4.856037846506946
3.451505016722408,5.027371127614011
3.471571906354515,5.195075077810601
3.491638795986622,5.358860792724402
3.511705685618729,5.518460560935687
3.531772575250836,5.673625261553816
3.551839464882943,5.82412229013957
3.5719063545150496,5.96973389987493
3.591973244147157,6.110255870768429
3.612040133779264,6.245496439276718
3.632107023411371,6.375275435621456
3.652173913043478,6.499423587465991
3.672240802675585,6.6177819573633885
3.692307692307692,6.730201488144359
3.712374581939799,6.836542635662013
3.732441471571906,6.936675072409404
3.752508361204013,7.030477448746224
3.7725752508361197,7.117837201013742
3.7926421404682276,7.198650397838027
3.8127090301003346,7.272821617535225
3.832775919732441,7.340263850830676
3.852842809364548,7.400898424152681
3.872909698996655,7.454654939616498
3.8929765886287626,7.501471228514925
3.9130434782608696,7.541293315711403
3.933110367892976,7.574075392815647
3.953177257525083,7.599779798430179
3.9732441471571907,7.61837700410551
3.9933110367892977,7.62984560494563
4.013377926421405,7.634172314073908
4.033444816053511,7.631351960413226
4.053511705685618,7.621387489460139
4.073578595317726,7.60428996694854
4.093645484949833,7.580078585511161
4.113712374581939,7.548780674663038
4.133779264214047,7.51043171465695
4.153846153846153,7.465075355004339
4.173913043478261,7.412763438723749
4.193979933110368,7.3535560336823504
4.214046822742475,7.287521472744788
4.234113712374581,7.21473640485157
4.254180602006689,7.135285859631465
4.274247491638796,7.049263328730327
4.294314381270903,6.956770867736346
4.314381270903009,6.857919223431906
4.334448160535117,6.75282799214513
4.354515050167224,6.64162581626213
4.374581939799331,6.52445062756172
4.394648829431437,6.40144994803549
4.414715719063545,6.27278126137141
4.434782608695651,6.138612471459832
4.454849498327759,5.999122468323794
4.474916387959866,5.854501827043732
4.494983277591973,5.70495367188938
4.5150501672240795,5.550694746454919
4.535117056856188,5.391956741744361
4.555183946488294,5.228987948714094
4.575250836120401,5.062055320884072
4.595317725752508,4.891447057807333
4.615384615384615,4.717475853495837
4.635451505016722,4.5404829980842365
4.655518394648829,4.360843579698317
4.6755852842809364,4.178973111359537
4.695652173913043,3.995336010608756
4.71571906354515,3.810456494042874
4.735785953177258,3.6249326215734516
4.7558528428093645,3.4394544391453072
4.775919732441471,3.254827416744214
4.795986622073578,3.0720026276642147
4.816053511705686,2.892115273987508
4.8361204013377925,2.7165330205261293
4.856187290969899,2.546914712792102
4.8762541806020065,2.3852775828531767
4.896321070234113,2.234065578626599
4.916387959866221,2.096201097978874
4.936454849498328,1.975085929296885
4.956521739130435,1.8744975731470452
4.976588628762541,1.798318144454128
4.996655518394649,1.7500631655723284
5.016722408026756,1.7322724383389265
5.036789297658863,1.745956889442622
5.056856187290969,1.7903517443421633
5.076923076923077,1.8631058790077386
5.096989966555184,1.9608066733348322
5.117056856187291,2.0795953932708375
5.137123745819398,2.215663846527764
5.157190635451505,2.3655524836466384
5.177257525083611,2.5262736001501698
5.197324414715719,2.6953213315965683
5.217391304347826,2.870624588044016
5.237458193979933,3.0504797813203806
5.257525083612039,3.233482959785227
5.277591973244148,3.4184698069013484
5.297658862876254,3.6044659391561793
5.317725752508361,3.790647153174074
5.337792642140468,3.976308227770828
5.357859531772575,4.160838674013126
5.377926421404682,4.34370395935027
5.397993311036789,4.524430975267485
5.418060200668896,4.7025967684896175
5.438127090301003,4.8778197748280405
5.458193979933109,5.049752972747997
5.478260869565218,5.21807851295198
5.498327759197324,5.382503486945562
5.518394648829431,5.542756578395256
5.538461538461538,5.698585402043879
5.558528428093646,5.8497543808454004
5.578595317725752,5.996043046572279
5.598662207357859,6.137244675285565
5.618729096989966,6.273165188880752
5.638795986622073,6.403622269019709
5.65886287625418,6.528444641314666
5.678929765886288,6.647471496518628
5.698996655518394,6.760552022350872
5.719063545150501,6.867545024930641
5.739130434782608,6.968318622970408
5.759197324414716,7.062750001164423
5.7792642140468224,7.150725211804437
5.799331103678929,7.232139015717985
5.8193979933110365,7.306894755274514
5.839464882943144,7.374904253531176
5.8595317725752505,7.436087734663895
5.879598662207358,7.490373761703644
5.8996655518394645,7.537699188315702
5.919732441471571,7.578009121953079
5.9397993311036785,7.611256896211626
5.959866220735786,7.637404050632405
5.9799331103678925,7.656420316555909
5.999999999999999,7.66828360794365
6.020066889632107,7.672980016358783
6.040133779264214,7.670503809547345
6.060200668896321,7.660857433293515
6.080267558528428,7.6440515164443905
6.100334448160535,7.620104879217995
6.120401337792642,7.589044545130089
6.1404682274247495,7.550905757107673
6.160535117056856,7.505731998606996
6.180602006688963,7.453575020829932
6.200668896321069,7.39449487744409
6.2207357859531776,7.328559968570262
6.240802675585284,7.2558470962190125
6.260869565217391,7.176441533852987
6.280936454849498,7.09043711334369
6.301003344481605,6.997936333305646
6.321070234113712,6.899050493660829
6.341137123745819,6.793899862352091
6.361204013377926,6.682613881439799
6.381270903010033,6.565331421448599
6.40133779264214,6.4422010948701125
6.421404682274248,6.313381642287351
6.441471571906354,6.179042407818527
6.461538461538461,6.039363924680358
6.481605351170568,5.894538636906445
6.501672240802676,5.744771789972212
6.521739130434782,5.590282531739213
6.54180602006689,5.431305276356822
6.561872909698996,5.26809139837989
6.581939799331103,5.100911343488321
6.60200668896321,4.930057267320812
6.622073578595318,4.755846347047533
6.642140468227424,4.578624954038687
6.662207357859531,4.398773933770118
6.682274247491639,4.216715315302872
6.702341137123746,4.032920872556617
6.722408026755852,3.8479230889737224
6.742474916387959,3.662329241086546
6.762541806020066,3.476839515969761
6.782608695652174,3.292270302120965
6.80267558528428,3.1095840052593644
6.822742474916388,2.929926843282817
6.842809364548494,2.7546758532351836
6.862876254180601,2.5854953623049717
6.882943143812709,2.4244006319095814
6.903010033444816,2.2738209794140127
6.9230769230769225,2.136644773910852
6.94314381270903,2.0162134482535286
6.963210702341137,1.9162143343435833
6.983277591973244,1.8404157734729643
7.0033444816053505,1.792217908225037
7.023411371237458,1.7740799135850989
7.0434782608695645,1.7870020604053152
7.063545150501672,1.8302900604891328
7.083612040133779,1.9017217915423488
7.103678929765886,1.998030258952753
7.123745819397993,2.11548232770341
7.143812709030099,2.2503576033380797
7.1638795986622075,2.3992459537003072
7.183946488294314,2.5591789994769947
7.204013377926421,2.7276502199571118
7.224080267558528,2.9025763342276667
7.2441471571906355,3.082235934252297
7.264214046822742,3.265205302957826
7.2842809364548495,3.4503005035286916
7.304347826086956,3.636528744476031
7.324414715719063,3.8230490830514983
7.34448160535117,4.00914134158478
7.364548494983278,4.194181793794033
7.384615384615384,4.377624242474597
7.404682274247491,4.558985311051476
7.424749163879598,4.737832997023805
7.444816053511706,4.913777740039319
7.464882943143812,5.086465427347627
7.48494983277592,5.25557189433874
7.505016722408026,5.420798582399692
7.525083612040134,5.581869096197507
7.545150501672239,5.738526463121479
7.565217391304348,5.8905309435107425
7.585284280936455,6.037658275036869
7.605351170568561,6.179698260963582
7.625418060200669,6.316453632056193
7.645484949832775,6.447739127227219
7.665551839464882,6.573380749754567
7.685618729096991,6.693215164965981
7.705685618729096,6.807089212301471
7.725752508361204,6.914859510131299
7.74581939799331,7.016392135986012
7.765886287625418,7.111562368223856
7.785953177257525,7.2002544778264035
7.806020066889631,7.282361561134599
7.826086956521739,7.357785406035277
7.846153846153847,7.426436385474307
7.866220735785952,7.488233373279673
7.88628762541806,7.54310367817969
7.906354515050166,7.5909829926426795
7.926421404682274,7.631815353777843
7.946488294314381,7.66555311404965
7.966555183946488,7.692156919991446
7.986622073578595,7.711595697474864
8.006688963210701,7.723846642414381
8.02675585284281,7.728895216072401
8.046822742474916,7.726735144389467
8.066889632107022,7.717368421005225
8.08695652173913,7.700805313865956
8.107023411371236,7.677064375541801
8.127090301003344,7.646172457607019
8.147157190635452,7.60816472967851
8.167224080267557,7.563084703967421
8.187290969899665,7.510984266485845
8.207357859531772,7.451923716374259
8.227424749163879,7.385971815187374
8.247491638795987,7.313205848410246
8.267558528428093,7.23371170198976
8.2876254180602,7.147583957279931
8.307692307692307,7.054926008539275
8.327759197324415,6.95585020801773
8.347826086956522,6.850478044771658
8.367892976588628,6.738940364702387
8.387959866220736,6.6213776409952505
8.408026755852843,6.497940306232954
8.42809364548495,6.368789160084674
8.448160535117056,6.234095869784142
8.468227424749163,6.09404358480383
8.488294314381271,5.948827692473028
8.508361204013378,5.798656748120239
8.528428093645484,5.643753622106979
8.548494983277592,5.484356917470896
8.568561872909697,5.320722726626413
8.588628762541806,5.153126814762969
8.608695652173914,4.981867342672143
8.628762541806019,4.807268274621376
8.648829431438127,4.629683660048425
8.668896321070234,4.449503034442184
8.68896321070234,4.267158258715306
8.709030100334449,4.0831322121988
8.729096989966555,3.8979698766941278
8.749163879598662,3.7122925009048457
8.769230769230768,3.5268157140009766
8.789297658862875,3.342372649013794
8.809364548494983,3.1599432971901513
8.82943143812709,2.9806913394531462
8.849498327759196,2.8060093712058154
8.869565217391303,2.6375723261253294
8.889632107023411,2.477396261995592
8.909698996655518,2.327894345565277
8.929765886287624,2.1919125427655524
8.949832775919733,2.0727138494980726
8.96989966555184,1.9738655097747726
8.989966555183946,1.8989807056845889
9.010033444816054,1.8512961997107789
9.030100334448159,1.8331458161741225
9.050167224080267,1.8454899639581137
9.070234113712376,1.8877000306418568
9.09030100334448,1.9577029209680556
9.110367892976589,2.0524140431141418
9.130434782608695,2.1682677763857705
9.150501672240802,2.301669104475522
9.17056856187291,2.4492857859762474
9.190635451505017,2.608187442590005
9.210702341137123,2.775877322541379
9.23076923076923,2.9502643522057874
9.250836120401337,3.129609725302341
9.270903010033445,3.3124679828642867
9.290969899665551,3.497632289979631
9.311036789297658,3.6840875783030413
9.331103678929765,3.870972139973373
9.351170568561873,4.057546908225514
9.37123745819398,4.243171212687513
9.391304347826086,4.427283771524002
9.411371237458194,4.609387825418746
9.4314381270903,4.789039507961887
9.451505016722408,4.96583873019449
9.471571906354516,5.139422014530353
9.49163879598662,5.309456841119601
9.511705685618729,5.475637170348252
9.531772575250837,5.6376798830179
9.551839464882942,5.7953219394171755
9.57190635451505,5.948318104024873
9.591973244147155,6.0964391172822525
9.612040133779264,6.239470222336983
9.632107023411372,6.377209974893958
9.652173913043477,6.509469279826724
9.672240802675585,6.636070610152458
9.692307692307692,6.75684737321482
9.712374581939798,6.8716433960998
9.732441471571907,6.980312507915768
9.752508361204013,7.082718200969225
9.77257525083612,7.178733356337284
9.792642140468226,7.268240022089996
9.812709030100335,7.351129234608248
9.832775919732441,7.427300875201406
9.852842809364548,7.496663555645489
9.872909698996656,7.559134527412003
9.89297658862876,7.6146396102956295
9.91304347826087,7.663113136919959
9.933110367892976,7.704497910240031
9.953177257525082,7.738745171695018
9.97324414715719,7.765814578116927
9.993311036789297,7.785674185889178
10.013377926421404,7.798300441186523
10.033444816053512,7.803678175427606
10.053511705685617,7.801800605343366
10.073578595317725,7.792669337317435
10.093645484949834,7.776294375896968
10.113712374581938,7.7526941366108995
10.133779264214047,7.721895463475575
10.153846153846153,7.6839336518217225
10.17391304347826,7.638852477350704
10.193979933110368,7.586704232629805
10.214046822742475,7.5275497725772444
10.234113712374581,7.46145857087872
10.254180602006688,7.3885087897335735
10.274247491638796,7.3087873658674445
10.294314381270903,7.222390116391474
10.31438127090301,7.12942186886268
10.334448160535118,7.029996620840538
10.354515050167223,6.924237735384223
10.37458193979933,6.812278180348818
10.394648829431437,6.694260821087866
10.414715719063544,6.570338778345593
10.434782608695652,6.4406758658429855
10.454849498327757,6.305447125481349
10.474916387959865,6.164839482406391
10.494983277591974,6.0190525476570125
10.515050167224079,5.868299603112329
10.535117056856187,5.712808812401741
10.555183946488295,5.552824712956026
10.5752508361204,5.388610059242754
10.595317725752508,5.220448106486161
10.615384615384615,5.048645449182037
10.635451505016722,4.873535561247299
10.65551839464883,4.695483226945835
10.675585284280936,4.51489010660332
10.695652173913043,4.332201751866268
10.71571906354515,4.147916475411088
10.735785953177256,3.962596592547307
10.755852842809364,3.776882687623271
10.775919732441471,3.5915117105538767
10.795986622073578,3.407339857349103
10.816053511705684,3.2253712815212547
10.836120401337793,3.04679360853204
10.856187290969899,2.8730207600743527
10.876254180602006,2.7057423297735945
10.896321070234114,2.5469760067472036
10.916387959866219,2.399114357171853
10.936454849498327,2.264948714598622
10.956521739130435,2.1476412335052797
10.97658862876254,2.050605271069965
