Time (s),Filtered Signal
0.0,0.026926901370058858
0.03337004405286344,0.18553054971121627
0.06674008810572687,0.26094074825425834
0.10011013215859031,0.19915104805489567
0.13348017621145375,-0.009381712565641156
0.16685022026431717,-0.3301377193543192
0.20022026431718062,-0.6984496042457021
0.23359030837004408,-1.0390264809863556
0.2669603524229075,-1.2841131188998718
0.3003303964757709,-1.3872136102786192
0.33370044052863435,-1.3319068856109477
0.3670704845814978,-1.1348567522525919
0.40044052863436125,-0.8408382557940945
0.43381057268722467,-0.5088449967988169
0.46718061674008815,-0.19284559154760206
0.5005506607929515,0.07459441812022168
0.533920704845815,0.2872283083711696
0.5672907488986785,0.4556327733180195
0.6006607929515418,0.5892006238881041
0.6340308370044053,0.6817382186086204
0.6674008810572687,0.7114921561141141
0.7007709251101322,0.6573607493854756
0.7341409691629956,0.52142144908727
0.767511013215859,0.34157256388941626
0.8008810572687225,0.18231928005544037
0.834251101321586,0.10506552887071173
0.8676211453744493,0.13361704906174524
0.9009911894273128,0.23618643460463437
0.9343612334801763,0.3372983896838576
0.9677312775330397,0.35570137620196507
1.001101321585903,0.24832625916418208
1.0344713656387665,0.03573221998204275
1.06784140969163,-0.20557442846553328
1.1012114537444935,-0.3800832542639153
1.134581497797357,-0.4196971546869395
1.1679515418502202,-0.31559057540880675
1.2013215859030837,-0.12059510289508872
1.2346916299559472,0.07657046925387251
1.2680616740088106,0.19033206662590657
1.3014317180616741,0.1717658943028272
1.3348017621145374,0.023947883204914276
1.3681718061674009,-0.20280909372923697
1.4015418502202643,-0.42955736811295986
1.4349118942731278,-0.5726721671049998
1.4682819383259913,-0.5670006464368214
1.5016519823788548,-0.38471732945923237
1.535022026431718,-0.046708514659705484
1.5683920704845815,0.37777372759147254
1.601762114537445,0.7866062993119473
1.6351321585903085,1.074031686320808
1.668502202643172,1.1650860193758612
1.7018722466960352,1.041772507694356
1.7352422907488987,0.7489463281480518
1.7686123348017622,0.3759861519505773
1.8019823788546256,0.021332646031306895
1.8353524229074891,-0.24482660440962095
1.8687224669603526,-0.4033407513880804
1.9020925110132159,-0.484577916316949
1.9354625550660793,-0.5440298344756107
1.9688325991189428,-0.6270609401075476
2.002202643171806,-0.7400519661473668
2.0355726872246698,-0.8426367185195324
2.068942731277533,-0.8662306766590847
2.1023127753303967,-0.7513878447744726
2.13568281938326,-0.48620429777493335
2.1690528634361232,-0.12528864043597546
2.202422907488987,0.22362801870246343
2.23579295154185,0.4427357746486438
2.269162995594714,0.4577066147371386
2.302533039647577,0.274793188580585
2.3359030837004404,-0.018942457838857982
2.369273127753304,-0.2940631898958481
2.4026431718061674,-0.4371298381545357
2.436013215859031,-0.39977274705528754
2.4693832599118943,-0.2147656898888923
2.5027533039647576,0.026575325877018795
2.5361233480176213,0.22153369493219016
2.5694933920704845,0.3028259271636753
2.6028634361233483,0.26334756856550523
2.6362334801762115,0.15048179839965042
2.6696035242290748,0.037076991846442725
2.7029735682819385,-0.0141956314542169
2.7363436123348017,0.023846506640469434
2.7697136563876654,0.13731663650890735
2.8030837004405287,0.2843205118792668
2.8364537444933924,0.4174648401850637
2.8698237885462556,0.5041570595580689
2.903193832599119,0.5362312277727214
2.9365638766519826,0.5266325380767998
2.969933920704846,0.4967775567595013
3.0033039647577096,0.4615881841248589
3.036674008810573,0.4195007720393769
3.070044052863436,0.35239666777444223
3.1034140969162998,0.2361620173615525
3.136784140969163,0.057604377811180156
3.1701541850220267,-0.1704762594148046
3.20352422907489,-0.40497867084164807
3.2368942731277532,-0.5839986545782174
3.270264317180617,-0.6515467507084736
3.30363436123348,-0.5849369868121466
3.337004405286344,-0.41066690505308445
3.370374449339207,-0.19843451132574505
3.4037444933920704,-0.03333389375694771
3.437114537444934,0.021929383984050296
3.4704845814977974,-0.04346238631515449
3.503854625550661,-0.18234340340331567
3.5372246696035243,-0.3105511916902251
3.5705947136563876,-0.3451591309373756
3.6039647577092513,-0.24194079756732542
3.6373348017621145,-0.01533412330271514
3.6707048458149782,0.2665545253951744
3.7040748898678415,0.5078063421130689
3.737444933920705,0.6194735998301676
3.7708149779735685,0.5500088636325808
3.8041850220264317,0.3019341526702481
3.8375550660792954,-0.06878806189573622
3.8709251101321587,-0.4689850455117056
3.9042951541850224,-0.794777794111869
3.9376651982378856,-0.960949231463959
3.971035242290749,-0.9251403173117139
4.004405286343612,-0.699896931631193
4.037775330396476,-0.34858946479777875
4.0711453744493395,0.03410853942726341
4.104515418502203,0.35137838764598334
4.137885462555066,0.533650111638574
4.171255506607929,0.5585206950388387
4.2046255506607935,0.454801679790511
4.237995594713657,0.28980121421894833
4.27136563876652,0.14433461080374263
4.304735682819383,0.08351162561005915
4.3381057268722465,0.13255862732448737
4.371475770925111,0.2659587912036554
4.404845814977974,0.4149871619455316
4.438215859030837,0.49309245318337014
4.4715859030837,0.43141802290842435
4.504955947136564,0.2109387513002902
4.538325991189428,-0.12299811956448331
4.571696035242291,-0.47167726011457095
4.605066079295154,-0.7165732168807771
4.638436123348018,-0.7623587955684009
4.671806167400881,-0.5722627569763085
4.705176211453745,-0.18252444208067564
4.738546255506608,0.3082127579278241
4.7719162995594715,0.7692761573507158
4.805286343612335,1.0770229185146538
4.838656387665198,1.1504909853367824
4.872026431718062,0.9738958208487737
4.905396475770925,0.6000154468870149
4.938766519823789,0.13305919302152552
4.972136563876652,-0.30477701366839294
5.005506607929515,-0.6127721855113141
5.038876651982379,-0.7428767598673571
5.072246696035243,-0.7098791429358693
5.105616740088106,-0.5760194044364472
5.138986784140969,-0.41744312621525204
5.172356828193832,-0.2891266834570196
5.2057268722466965,-0.2056546201334857
5.23909691629956,-0.14632702085569588
5.272466960352423,-0.07932357056179785
5.305837004405286,0.010857063931012618
5.3392070484581495,0.10942046426287934
5.372577092511014,0.17847896139218203
5.405947136563877,0.17992987915199188
5.43931718061674,0.09933610147975235
5.4726872246696034,-0.04358094303404982
5.506057268722468,-0.20327391510322756
5.539427312775331,-0.32950976151312844
5.572797356828194,-0.38860279366302286
5.606167400881057,-0.3737010277059562
5.639537444933921,-0.3010658218317261
5.672907488986785,-0.1977073896752128
5.706277533039648,-0.08920154430696431
5.739647577092511,0.006352493361323477
5.7730176211453745,0.07829596819218473
5.806387665198238,0.12157748836190034
5.839757709251102,0.1369502574610786
5.873127753303965,0.13313144061161553
5.9064977973568284,0.12742768923827597
5.939867841409692,0.14146194040132812
5.973237885462555,0.19213773453179112
6.006607929515419,0.2819039977792948
6.039977973568282,0.3936959250008461
6.073348017621146,0.4938037798117153
6.106718061674009,0.541994346107585
6.140088105726872,0.5049852300071883
6.173458149779736,0.3683900282885193
6.2068281938325995,0.14336594513971088
6.240198237885463,-0.13380078065672454
6.273568281938326,-0.40910212044055544
6.306938325991189,-0.6236460981995413
6.3403083700440535,-0.7288210760036117
6.373678414096917,-0.699200161030236
6.40704845814978,-0.5383721024038174
6.440418502202643,-0.27526297561414775
6.4737885462555065,0.04687148208346292
6.507158590308371,0.38255814791391224
6.540528634361234,0.6910032659262433
6.573898678414097,0.936042671797049
6.60726872246696,1.0834013941444995
6.640638766519824,1.1019309748888184
6.674008810572688,0.9719775685343331
6.707378854625551,0.6971636627416038
6.740748898678414,0.311201670533682
6.774118942731278,-0.12704952250141344
6.807488986784141,-0.5499263366118754
6.840859030837005,-0.9006460448054678
6.874229074889868,-1.1457209959449715
6.9075991189427315,-1.2742492347483911
6.940969162995595,-1.2872203795975512
6.974339207048458,-1.186817340703283
7.007709251101322,-0.9752616212564943
7.041079295154185,-0.6649956148797479
7.074449339207049,-0.2922231301004473
7.107819383259912,0.07886575081707241
7.141189427312775,0.36955873689318575
7.174559471365639,0.5150672335039308
7.207929515418503,0.4945009140376266
7.241299559471366,0.3457307767139632
7.274669603524229,0.15523292044065876
7.308039647577092,0.025666865326254992
7.3414096916299565,0.03513507894887331
7.37477973568282,0.2058558208168084
7.408149779735683,0.4951091505356056
7.441519823788546,0.8111088352841407
7.47488986784141,1.0462372851232726
7.508259911894274,1.1142197449055595
7.541629955947137,0.9779209977140846
7.575,0.6593070009572986
7.608370044052863,0.22996415596794592
7.641740088105728,-0.21321038193071873
7.675110132158591,-0.578441070033135
7.708480176211454,-0.8054969253827655
7.741850220264317,-0.8794630121715594
7.775220264317181,-0.8276834675656433
7.808590308370045,-0.702247331268229
7.841960352422908,-0.5565240878354842
7.875330396475771,-0.4266432112633447
7.9087004405286345,-0.32552297405698355
7.942070484581498,-0.24955806888915394
7.975440528634362,-0.1908745063005539
8.008810572687224,-0.1457557597073989
8.042180616740088,-0.11384459033160092
8.075550660792953,-0.09020298308318461
8.108920704845815,-0.058134146109267086
8.142290748898679,0.009194478731177886
8.175660792951541,0.13614810586307038
8.209030837004406,0.32704067745411564
8.24240088105727,0.5546292255065413
8.275770925110132,0.7639185095821498
8.309140969162996,0.892273915372395
8.342511013215859,0.8969415351229046
8.375881057268723,0.7757037927007362
8.409251101321587,0.5692058731064584
8.44262114537445,0.34307934302240556
8.475991189427313,0.15876238649624178
8.509361233480176,0.047666666363477654
8.54273127753304,0.001067789760491394
8.576101321585904,-0.020500053951898998
8.609471365638766,-0.06449101383194163
8.64284140969163,-0.16236437254830788
8.676211453744493,-0.315759442205029
8.709581497797357,-0.497737571494626
8.742951541850221,-0.665828822563105
8.776321585903084,-0.7785015741977841
8.809691629955948,-0.8071729150373698
8.84306167400881,-0.7407798591416175
8.876431718061674,-0.5852090113894327
8.909801762114538,-0.3617440068234282
8.9431718061674,-0.10637860469192385
8.976541850220265,0.1320526284441008
9.009911894273127,0.29880449219500627
9.043281938325991,0.3470126443706794
9.076651982378856,0.2553576084023548
9.110022026431718,0.04230175101936833
9.143392070484582,-0.23126421392147417
9.176762114537445,-0.4755339537607349
9.210132158590309,-0.5993120807225374
9.243502202643173,-0.5425244557748016
9.276872246696035,-0.30091703564190136
9.3102422907489,0.06824958530286027
9.343612334801762,0.46370653522662686
9.376982378854626,0.7753051398483483
9.41035242290749,0.9230155921210712
9.443722466960352,0.8836114571317447
9.477092511013216,0.6938877980760627
9.510462555066079,0.4298780860579533
9.543832599118943,0.17276466304251928
9.577202643171807,-0.021785933485617064
9.61057268722467,-0.13675600652052353
9.643942731277534,-0.1853714227414979
9.677312775330396,-0.18917486857716584
9.71068281938326,-0.1577156938639967
9.744052863436124,-0.0831438915674742
9.777422907488987,0.04677095610786801
9.81079295154185,0.22581622751091687
9.844162995594713,0.4128463218772785
9.877533039647577,0.5359066683540825
9.910903083700441,0.5201932302667561
9.944273127753304,0.32831494582403603
9.977643171806168,-0.008716875469265632
10.01101321585903,-0.38993621892723185
10.044383259911895,-0.6788860601642226
10.077753303964759,-0.7614805770355381
10.111123348017621,-0.6004283018436278
10.144493392070485,-0.2586050136792075
10.177863436123348,0.12238163483023805
10.211233480176212,0.3806424054872877
10.244603524229076,0.4035092755318545
10.277973568281938,0.1764790333366801
10.311343612334802,-0.21056704274994656
10.344713656387665,-0.6023469023639272
10.378083700440529,-0.8444009657719914
10.411453744493393,-0.8468124623978434
10.444823788546255,-0.6176767732170827
10.47819383259912,-0.25302465013636327
10.511563876651982,0.1101254706409637
10.544933920704846,0.3546798443183983
10.57830396475771,0.4302165018685622
10.611674008810573,0.36525398185929014
10.645044052863437,0.24165583452270223
10.678414096916299,0.1458492441440126
10.711784140969163,0.12229933417895658
10.745154185022027,0.15300124228652043
10.77852422907489,0.17324976136695885
10.811894273127754,0.11501842101229703
10.845264317180618,-0.045660221236603925
10.87863436123348,-0.26398944865529983
10.912004405286345,-0.4400700273554571
10.945374449339207,-0.46663528619637096
10.978744493392071,-0.2876868525472002
11.012114537444935,0.06279596150734258
11.045484581497798,0.46460586791162556
11.078854625550662,0.7593313368171738
11.112224669603524,0.8216365254274388
11.145594713656388,0.6197016042161947
11.178964757709252,0.23456321882788386
11.212334801762115,-0.17263473748434946
11.245704845814979,-0.4312664936499878
11.279074889867841,-0.43700664702261655
11.312444933920705,-0.1974526068656346
11.34581497797357,0.1732924654170468
11.379185022026432,0.5077998920250245
11.412555066079296,0.6609290297724394
11.445925110132158,0.5729596722787541
11.479295154185023,0.2922268026656392
11.512665198237887,-0.051277393242706894
11.546035242290749,-0.3073570053847939
11.579405286343613,-0.3730606229711978
11.612775330396476,-0.23590331490106706
11.64614537444934,0.02483064990631275
11.679515418502204,0.276665849855925
11.712885462555066,0.39283200406737845
11.74625550660793,0.3044533489222482
11.779625550660793,0.024351717611894003
11.812995594713657,-0.36450152932702007
11.846365638766521,-0.7465278671868674
11.879735682819383,-1.0178114686461424
11.913105726872248,-1.1183354661751947
11.94647577092511,-1.042399768472704
11.979845814977974,-0.8287504330277243
12.013215859030838,-0.539497881633413
12.0465859030837,-0.2381682643178809
12.079955947136565,0.026153665981742236
12.113325991189427,0.2261612279084598
12.146696035242291,0.35582673558161815
12.180066079295155,0.42412182818882727
12.213436123348018,0.44575513237938347
12.246806167400882,0.43260804699298616
12.280176211453744,0.38989803864813743
12.313546255506608,0.31946545577409696
12.346916299559473,0.22861620415758577
12.380286343612335,0.13858540817841122
12.413656387665199,0.08515198370746728
12.447026431718061,0.10725924224501714
12.480396475770926,0.22657437316937776
12.51376651982379,0.4278162774877303
12.547136563876652,0.6519817682439418
12.580506607929516,0.8101440969624575
12.613876651982379,0.8158106352951312
12.647246696035243,0.6235126301754192
12.680616740088107,0.25580518236058325
12.71398678414097,-0.19625621807225171
12.747356828193833,-0.6031157091289343
12.780726872246696,-0.8465764522580483
12.81409691629956,-0.8678430993108357
12.847466960352424,-0.6909202852986002
12.880837004405286,-0.40925096190537347
12.91420704845815,-0.14151807405362532
12.947577092511013,0.021551521072327735
12.980947136563877,0.05297954136490523
13.014317180616741,-0.008608158552425912
13.047687224669604,-0.08889535103454749
13.081057268722468,-0.12089554836268532
13.11442731277533,-0.07750907715431003
13.147797356828194,0.021443021853377986
13.181167400881058,0.12714652243751937
13.21453744493392,0.1911139420989002
13.247907488986785,0.18882441320710763
13.281277533039647,0.12699290969665014
13.314647577092511,0.034665395403498125
13.348017621145376,-0.053327932572431756
13.381387665198238,-0.11045298481061452
13.414757709251102,-0.12444273458540775
13.448127753303964,-0.09579946866237667
13.481497797356829,-0.033283670283432626
13.514867841409693,0.04942794366935932
13.548237885462555,0.13472641839695207
13.58160792951542,0.20152415383151992
13.614977973568282,0.22796587453334108
13.648348017621146,0.1976512360172424
13.68171806167401,0.10771831701726672
13.715088105726872,-0.025267822260812155
13.748458149779736,-0.16601251406484568
13.781828193832599,-0.26992985742073056
13.815198237885463,-0.2994325649066456
13.848568281938327,-0.24109837021296532
13.88193832599119,-0.1157904259962332
13.915308370044054,0.02444484838815402
13.948678414096916,0.11367244223386232
13.98204845814978,0.09816343410225935
14.015418502202644,-0.0385098937707979
14.048788546255507,-0.2616674017380673
14.08215859030837,-0.48996343674122184
14.115528634361233,-0.6192789037981364
14.148898678414097,-0.5605130906812578
14.182268722466961,-0.27934697378655504
14.215638766519824,0.17784666943116512
14.249008810572688,0.6862748060368253
14.28237885462555,1.0787247812203735
14.315748898678414,1.2064604946783681
14.349118942731279,1.002242419328043
14.382488986784141,0.5171251822212495
14.415859030837005,-0.08941318338134104
14.449229074889868,-0.6067342926848569
14.482599118942732,-0.8556685506069994
14.515969162995596,-0.7605519125714274
14.549339207048458,-0.3778774529513603
14.582709251101322,0.1314803934150817
14.616079295154185,0.5728278970814615
14.649449339207049,0.7974725765789354
14.682819383259913,0.7554318613892982
14.716189427312775,0.49997986444669523
14.74955947136564,0.14788291262157438
14.782929515418502,-0.17983838819804251
14.816299559471366,-0.40558659475494896
14.84966960352423,-0.5110576289214974
14.883039647577093,-0.5212926353698624
14.916409691629957,-0.47408667900094625
14.94977973568282,-0.39637094729243394
14.983149779735683,-0.29982803343712494
15.016519823788547,-0.19251565398905862
15.04988986784141,-0.0924449333794118
15.083259911894274,-0.0294769393451511
15.116629955947138,-0.032025610212511005
15.15,-0.10704935763480314
15.183370044052865,-0.227383434020889
15.216740088105727,-0.3363672189254608
15.250110132158591,-0.36930479636868974
15.283480176211455,-0.2815480675659046
15.316850220264318,-0.06961946008993468
15.350220264317182,0.22410219406758608
15.383590308370044,0.5243751376347234
15.416960352422908,0.7475834511071971
15.450330396475772,0.828235671158726
15.483700440528635,0.7390378450906021
15.517070484581499,0.49945095487698526
15.550440528634361,0.17105513158637806
15.583810572687225,-0.15924053194532736
15.61718061674009,-0.4044845836757778
15.650550660792952,-0.5048535279201893
15.683920704845816,-0.44782712669650326
15.717290748898678,-0.27300732110744785
15.750660792951543,-0.0578370438756358
15.784030837004407,0.11190456170698183
15.817400881057269,0.17574935798826247
15.850770925110133,0.12233384107966644
15.884140969162996,-0.007280090427752856
15.91751101321586,-0.1388396176504517
15.950881057268724,-0.19881648134745977
15.984251101321586,-0.14824826603132946
16.01762114537445,-0.0011666070487202876
16.050991189427315,0.18136680473790723
16.084361233480177,0.31959164430821374
16.11773127753304,0.3527796854266153
16.151101321585905,0.26797449270141316
16.184471365638768,0.10499552550047284
16.21784140969163,-0.06521333089721165
16.251211453744492,-0.1775942320770489
16.284581497797358,-0.20542690270246616
16.31795154185022,-0.17070745219233455
16.351321585903083,-0.12744474306489723
16.38469162995595,-0.12824461282749725
16.41806167400881,-0.19361695732740394
16.451431718061674,-0.30089491971672144
16.48480176211454,-0.3974639034507201
16.518171806167402,-0.42894505633096713
16.551541850220264,-0.3655175616155355
16.584911894273127,-0.2125284913485264
16.618281938325993,-0.002149782556732898
16.651651982378855,0.22596077737801118
16.685022026431717,0.4418791397752406
16.718392070484583,0.6306210403342203
16.751762114537446,0.7842866556245198
16.785132158590308,0.8888592425475283
16.818502202643174,0.9168313516902801
16.851872246696036,0.8330899850372551
16.8852422907489,0.6129013096623236
16.91861233480176,0.2625781751258314
16.951982378854627,-0.16954149600815124
16.98535242290749,-0.6000215554829532
17.01872246696035,-0.9344702805296974
17.052092511013218,-1.0995005461847487
17.08546255506608,-1.069083404989861
17.118832599118942,-0.8741559167793475
17.152202643171808,-0.5913597341436061
17.18557268722467,-0.3151563591155212
17.218942731277533,-0.12392150243605317
17.2523127753304,-0.05277039605183425
17.28568281938326,-0.08321041217131367
17.319052863436124,-0.1532764118290408
