Time (s),Filtered Signal
0.0,-0.007270576353888269
0.03337028824833703,-0.6290718534198074
0.06674057649667406,-1.0824841302550074
0.10011086474501109,-1.256410360315763
0.13348115299334812,-1.131471152785077
0.16685144124168516,-0.7790161444160162
0.20022172949002218,-0.3283939370894751
0.2335920177383592,0.08121601522415703
0.26696230598669624,0.3442382242558828
0.3003325942350333,0.412990892840755
0.3337028824833703,0.2992888818161135
0.3670731707317073,0.05930270285615016
0.40044345898004435,-0.22855902211020818
0.4338137472283814,-0.48474357626866044
0.4671840354767184,-0.6447711717917591
0.5005543237250555,-0.6698792258065381
0.5339246119733925,-0.5522452272193502
0.5672949002217295,-0.3143571193821882
0.6006651884700666,-0.0018888983374804808
0.6340354767184035,0.32917669264169536
0.6674057649667406,0.6277310272210841
0.7007760532150776,0.8593215718392322
0.7341463414634146,1.0092211048548276
0.7675166297117517,1.075453118936173
0.8008869179600887,1.05640365979563
0.8342572062084257,0.9418806519495319
0.8676274944567628,0.7155104007035938
0.9009977827050998,0.3697490557505898
0.9343680709534368,-0.0739219891790598
0.9677383592017739,-0.5523573376403926
1.001108647450111,-0.9665543819139454
1.0344789356984478,-1.2082954255506535
1.067849223946785,-1.1992448519691505
1.101219512195122,-0.926590246399971
1.134589800443459,-0.45875848187987445
1.167960088691796,0.06837967594786262
1.2013303769401331,0.49276508587265117
1.23470066518847,0.6811054402480237
1.268070953436807,0.5769484395039013
1.3014412416851442,0.22265292667833686
1.3348115299334813,-0.2543671757966792
1.3681818181818182,-0.686570389832485
1.4015521064301553,-0.9251649689232769
1.4349223946784924,-0.890350585445906
1.4682926829268292,-0.5947014720853459
1.5016629711751663,-0.13317006948225543
1.5350332594235034,0.3536247490496822
1.5684035476718403,0.7274177646668983
1.6017738359201774,0.8947442007722826
1.6351441241685145,0.8315758743678215
1.6685144124168514,0.5851843174319941
1.7018847006651885,0.2549509343966999
1.7352549889135256,-0.04139954671884254
1.7686252771618625,-0.20656026137925917
1.8019955654101996,-0.1960382214292155
1.8353658536585367,-0.03322320347256884
1.8687361419068735,0.1997069365304283
1.9021064301552106,0.393702549937108
1.9354767184035477,0.4565060437666729
1.9688470066518848,0.3504666425884267
2.002217294900222,0.10786292424864775
2.035587583148559,-0.18374368008140074
2.0689578713968957,-0.42005972323022767
2.102328159645233,-0.5251623075927181
2.13569844789357,-0.48260465156812216
2.1690687361419068,-0.3386475872654229
2.202439024390244,-0.17696920423401247
2.235809312638581,-0.07743408925946448
2.269179600886918,-0.07845878718762549
2.302549889135255,-0.16025896092333597
2.335920177383592,-0.25623885342178715
2.369290465631929,-0.2867325741174868
2.4026607538802662,-0.19910086617421724
2.436031042128603,0.004612405813215461
2.46940133037694,0.26538182365101537
2.5027716186252773,0.49135803284226415
2.536141906873614,0.5973956250065493
2.569512195121951,0.5420330037395419
2.6028824833702884,0.34554113165402317
2.6362527716186253,0.08150847798211731
2.6696230598669626,-0.15374928082038963
2.7029933481152995,-0.2802307928418576
2.7363636363636363,-0.2649200312998056
2.7697339246119737,-0.13156485111613045
2.8031042128603105,0.053347458038741406
2.8364745011086474,0.21077360938434794
2.8698447893569847,0.2811619384938979
2.9032150776053216,0.24438641829879656
2.9365853658536585,0.12049798921632816
2.969955654101996,-0.04602501796679404
3.0033259423503327,-0.20839382210374016
3.0366962305986696,-0.3344099974371099
3.070066518847007,-0.41135206397688395
3.1034368070953438,-0.43980618262495075
3.1368070953436806,-0.4233921570120881
3.170177383592018,-0.36226322813230993
3.203547671840355,-0.25421807447999606
3.2369179600886917,-0.10146977189668062
3.270288248337029,0.08247763981595937
3.303658536585366,0.27086545427832043
3.337028824833703,0.42818546405916613
3.37039911308204,0.5192163646361233
3.403769401330377,0.5191987777051082
3.437139689578714,0.42217035560827293
3.470509977827051,0.24525905232110604
3.503880266075388,0.027056384317559384
3.537250554323725,-0.1811431098251404
3.5706208425720622,-0.33020162273449705
3.603991130820399,-0.38949956716656237
3.637361419068736,-0.35767755706291293
3.6707317073170733,-0.2618673842358864
3.70410199556541,-0.14493065168343866
3.737472283813747,-0.04687062609585653
3.7708425720620844,0.010043566379065253
3.8042128603104213,0.02540653513521231
3.8375831485587586,0.013848782522980012
3.8709534368070955,-0.006557672205444222
3.9043237250554323,-0.022825014092182204
3.9376940133037697,-0.028453377464345175
3.9710643015521065,-0.01955500144744169
4.004434589800444,0.008956530741284944
4.037804878048781,0.06287576163149981
4.071175166297118,0.14393036912523063
4.1045454545454545,0.24454564070139787
4.137915742793791,0.34656529305787503
4.171286031042128,0.42567606794471596
4.204656319290466,0.4596170941295289
4.238026607538803,0.43616454429421175
4.27139689578714,0.357401367411096
4.304767184035477,0.23901766005226258
4.3381374722838135,0.10558788438027915
4.371507760532151,-0.016213823141805122
4.404878048780488,-0.10456934975489453
4.438248337028825,-0.1481095145002991
4.471618625277162,-0.1487974311178536
4.504988913525499,-0.12107331613940056
4.538359201773836,-0.08717013933923438
4.571729490022173,-0.06994818520248913
4.60509977827051,-0.08573137436662355
4.638470066518847,-0.13967583758691382
4.671840354767184,-0.22507211481102554
4.705210643015521,-0.3262936885244266
4.738580931263858,-0.42371269588288274
4.771951219512196,-0.4984589696434547
4.8053215077605325,-0.5355807216536538
4.838691796008869,-0.5255263707896223
4.872062084257206,-0.4649426668745054
4.905432372505543,-0.35770052617544695
4.93880266075388,-0.21583651266534115
4.972172949002218,-0.05884794035099234
5.005543237250555,0.09011453206061311
5.0389135254988915,0.21076093335304308
5.072283813747228,0.29205545317736475
5.105654101995565,0.33464345421382286
5.139024390243902,0.34713978203379375
5.17239467849224,0.33787290684791826
5.205764966740577,0.30720210192855246
5.239135254988914,0.24618366898227062
5.2725055432372505,0.14409360624745934
5.305875831485587,0.0015957780584773622
5.339246119733925,-0.15842010295918593
5.372616407982262,-0.2907782814776257
5.405986696230599,-0.34229653394057324
5.439356984478936,-0.2759103605248445
5.472727272727273,-0.09332414200126232
5.5060975609756095,0.15657132486781197
5.539467849223947,0.390860286133312
5.572838137472284,0.524535366586168
5.606208425720621,0.5082785780222076
5.639578713968958,0.35427804524969053
5.672949002217295,0.1357672323979716
5.706319290465632,-0.04273070873170731
5.7396895787139695,-0.09298589264043158
5.773059866962306,0.01359790327875705
5.806430155210643,0.2293660302472272
5.83980044345898,0.45138004967155515
5.873170731707317,0.5718439999682251
5.906541019955654,0.533190389232165
5.939911308203992,0.3584501732698164
5.9732815964523285,0.13907772044645958
6.006651884700665,-0.014953449798103346
6.040022172949002,-0.03646694897432892
6.073392461197339,0.06009939763622709
6.106762749445676,0.18464553541902887
6.140133037694014,0.2196195079901555
6.173503325942351,0.08434304970523618
6.2068736141906875,-0.21946116613502478
6.240243902439024,-0.6050651023623463
6.273614190687361,-0.9416224386824924
6.306984478935698,-1.1163619723258524
6.340354767184036,-1.0860369099850165
6.373725055432373,-0.8927610169550445
6.40709534368071,-0.6385331374905545
6.4404656319290465,-0.433316712633751
6.473835920177383,-0.34327227518770353
6.507206208425721,-0.3636966049662647
6.540576496674058,-0.42757346484974745
6.573946784922395,-0.4429498140957972
6.607317073170732,-0.3394219556601208
6.640687361419069,-0.10151232710629428
6.674057649667406,0.22523329839616058
6.707427937915743,0.5558269075544804
6.74079822616408,0.8029385774573883
6.774168514412417,0.9116337136681869
6.807538802660754,0.8768830118020824
6.840909090909091,0.7384293579694292
6.874279379157428,0.5583856093790232
6.9076496674057655,0.3938560771312442
6.941019955654102,0.27714670204235176
6.974390243902439,0.2105598135311902
7.007760532150776,0.17491563186255674
7.041130820399113,0.1449210383560068
7.07450110864745,0.10283532271454139
7.107871396895788,0.04454245215530713
7.1412416851441245,-0.022919236962564638
7.174611973392461,-0.08883358276527308
7.207982261640798,-0.14580942769867755
7.241352549889135,-0.19205936595467368
7.274722838137472,-0.22817338229426437
7.30809312638581,-0.2513277289268505
7.341463414634147,-0.2517432266116069
7.3748337028824835,-0.2150752203524156
7.40820399113082,-0.13076017677696175
7.441574279379157,-0.0021747134605994405
7.474944567627494,0.14769120453623394
7.508314855875832,0.27991723092842186
7.541685144124169,0.35299264536060465
7.575055432372506,0.34073056052867146
7.6084257206208425,0.246406003198779
7.641796008869179,0.10551628640060241
7.675166297117517,-0.025789013657966143
7.708536585365854,-0.09303084876563017
7.741906873614191,-0.0674484323688504
7.775277161862528,0.03899303348130455
7.808647450110865,0.17526904219458797
7.842017738359202,0.27027507748492136
7.875388026607539,0.26187943453747536
7.908758314855876,0.12379586831569167
7.942128603104213,-0.12150469614934853
7.97549889135255,-0.4096706878739119
8.008869179600888,-0.658300334440466
8.042239467849225,-0.7976304022057388
8.075609756097561,-0.7954296598152457
8.108980044345898,-0.6664841279964715
8.142350332594235,-0.4639408446602598
8.175720620842572,-0.2571810615106215
8.209090909090909,-0.10568426956478433
8.242461197339246,-0.038941018712195984
8.275831485587583,-0.04922858900357437
8.30920177383592,-0.09869698280097981
8.342572062084257,-0.13688647559854236
8.375942350332595,-0.12136615565433852
8.409312638580932,-0.033689413036052517
8.442682926829269,0.11476132921619833
8.476053215077606,0.2883527464098378
8.509423503325943,0.4413115622978541
8.54279379157428,0.5346291134392183
8.576164079822616,0.5493293045026386
8.609534368070953,0.4912946722769723
8.64290465631929,0.3863199718038307
8.676274944567627,0.26818659439343556
8.709645232815964,0.16553233110508794
8.743015521064303,0.09352460313283344
8.77638580931264,0.05349662062352062
8.809756097560976,0.039208856332724557
8.843126385809313,0.044788730601129347
8.87649667405765,0.06881819394894574
8.909866962305987,0.11188234084065275
8.943237250554324,0.16951460647570935
8.97660753880266,0.2260796628090627
9.009977827050998,0.255369150898734
9.043348115299334,0.23005180300779915
9.076718403547671,0.13643526454256336
9.110088691796008,-0.013452661708307173
9.143458980044347,-0.18069734757915593
9.176829268292684,-0.3126497894962107
9.21019955654102,-0.36597252844941786
9.243569844789358,-0.3285745737297215
9.276940133037694,-0.22831058322026782
9.310310421286031,-0.12214812005755292
9.343680709534368,-0.06965658550830238
9.377050997782705,-0.10354932281921797
9.410421286031042,-0.21234124392305845
9.443791574279379,-0.3443259907881592
9.477161862527716,-0.4311366860935677
9.510532150776053,-0.4191773672181725
9.543902439024391,-0.29360706772294154
9.577272727272728,-0.08398782024206061
9.610643015521065,0.14967856633388335
9.644013303769402,0.3424248516943785
9.677383592017739,0.44879628417571266
9.710753880266076,0.45594520013726325
9.744124168514412,0.3816449827324722
9.77749445676275,0.26088636477557764
9.810864745011086,0.12917137324196723
9.844235033259423,0.01055222124672591
9.87760532150776,-0.08537260815698265
9.910975609756099,-0.15851366913754206
9.944345898004435,-0.2103106615910994
9.977716186252772,-0.23843965008158774
10.01108647450111,-0.2375076195109044
10.044456762749446,-0.20487200827280544
10.077827050997783,-0.14718079667042386
10.11119733924612,-0.08234460300951653
10.144567627494457,-0.03406267229204416
10.177937915742794,-0.02055879218837109
10.21130820399113,-0.04336159256472373
10.244678492239467,-0.08321531220290954
10.278048780487804,-0.10729272553179094
10.311419068736143,-0.08583319171118214
10.34478935698448,-0.010257990442735045
10.378159645232817,0.09758878101538226
10.411529933481154,0.19207065756432687
10.44490022172949,0.22520714004561546
10.478270509977827,0.1731862060086854
10.511640798226164,0.05384083249362641
10.545011086474501,-0.07589113301833073
10.578381374722838,-0.1437673650331401
10.611751662971175,-0.09698658007230586
10.645121951219512,0.06942145578662028
10.67849223946785,0.30587563600489015
10.711862527716187,0.5279605937493693
10.745232815964524,0.6536389076603945
10.778603104212861,0.6396551557425675
10.811973392461198,0.499097419965928
10.845343680709535,0.2918886411702264
10.878713968957872,0.0939254761329623
10.912084257206208,-0.03885642762959561
10.945454545454545,-0.09343855814266039
10.978824833702882,-0.09917046818544493
11.012195121951219,-0.10569626250276183
11.045565410199556,-0.1522269712303901
11.078935698447895,-0.244872000596329
11.112305986696231,-0.35386589447123035
11.145676274944568,-0.43162967746953407
11.179046563192905,-0.44133614294116763
11.212416851441242,-0.37986666238404976
11.245787139689579,-0.28193009965835575
11.279157427937916,-0.20236916128599536
11.312527716186253,-0.18592738949355625
11.34589800443459,-0.24122584270407532
11.379268292682926,-0.3339990833046623
11.412638580931263,-0.40435995808290354
11.4460088691796,-0.3994629497006668
11.479379157427939,-0.3038365907028517
11.512749445676276,-0.15015230938894855
11.546119733924613,-0.003423147821379076
11.57949002217295,0.07376219129768392
11.612860310421286,0.05644938856047088
11.646230598669623,-0.02642962873186174
11.67960088691796,-0.10420751491054596
11.712971175166297,-0.09914279009985806
11.746341463414634,0.03433583245130541
11.77971175166297,0.28574090890511356
11.813082039911308,0.5912093920027578
11.846452328159646,0.8600259619199575
11.879822616407983,1.0110701584568094
11.91319290465632,1.0023245372315706
11.946563192904657,0.8420486513629025
11.979933481152994,0.5798856243916028
12.01330376940133,0.28468297868926074
12.046674057649668,0.01972340102116303
12.080044345898004,-0.17512743557313817
12.113414634146341,-0.28941946600240726
12.146784922394678,-0.3367361573209445
12.180155210643015,-0.34246891814411234
12.213525498891352,-0.33083474227317594
12.24689578713969,-0.3162237415211042
12.280266075388028,-0.30123695051251165
12.313636363636364,-0.28058701283809845
12.347006651884701,-0.24769071943195461
12.380376940133038,-0.20020330243090292
12.413747228381375,-0.14203279643368796
12.447117516629712,-0.08167337574373897
12.480487804878049,-0.028638231787108927
12.513858093126386,0.009681464461154537
12.547228381374723,0.0293156786131371
12.58059866962306,0.02927439124369652
12.613968957871396,0.01051147601030723
12.647339246119735,-0.024565338825037333
12.680709534368072,-0.07173146804055791
12.714079822616409,-0.12435461996291332
12.747450110864746,-0.17354998485231835
12.780820399113082,-0.20962806937755618
12.81419068736142,-0.22451984593459795
12.847560975609756,-0.21414453956326673
12.880931263858093,-0.17955024910981576
12.91430155210643,-0.12618986395216394
12.947671840354767,-0.06161042697563754
12.981042128603104,0.007342564876992259
13.014412416851442,0.0763883538573708
13.04778270509978,0.14369733222892908
13.081152993348116,0.2077346770683057
13.114523281596453,0.26423293513339857
13.14789356984479,0.3043596270042156
13.181263858093127,0.3160098300652379
13.214634146341464,0.28867517886568644
13.2480044345898,0.22004598303455764
13.281374722838137,0.12071349773034734
13.314745011086474,0.013446579330459556
13.348115299334811,-0.07402415117531339
13.381485587583148,-0.1200488817443037
13.414855875831487,-0.11848568438550089
13.448226164079824,-0.08126199518912715
13.48159645232816,-0.032249409604100054
13.514966740576497,0.00460704593705539
13.548337028824834,0.016749843068072517
13.581707317073171,0.008157343113890976
13.615077605321508,-0.004243601247062202
13.648447893569845,-0.0007122731287586776
13.681818181818182,0.030000545625853726
13.715188470066519,0.08379283138217228
13.748558758314855,0.14192936384392277
13.781929046563192,0.17882446353563577
13.815299334811531,0.1733486942359738
13.848669623059868,0.11877707093244698
13.882039911308205,0.02705031150315516
13.915410199556542,-0.07482697729388808
13.948780487804878,-0.15527931228383754
13.982150776053215,-0.19143699142300172
14.015521064301552,-0.17932788408989586
14.048891352549889,-0.13588038281952983
14.082261640798226,-0.09104191699155452
14.115631929046563,-0.07304742810290955
14.1490022172949,-0.09361577262806932
14.182372505543238,-0.14049471310101547
14.215742793791575,-0.18165503992540585
14.249113082039912,-0.17989122908110677
14.282483370288249,-0.11136141087906735
14.315853658536586,0.020627734687273223
14.349223946784923,0.18334556091426096
14.38259423503326,0.32543951901912505
14.415964523281596,0.3964299298537665
14.449334811529933,0.3665804447662745
14.48270509977827,0.23869720838108152
14.516075388026607,0.04706311612382228
14.549445676274944,-0.15562421237721374
14.582815964523283,-0.31742304722700615
14.61618625277162,-0.40438617198136034
14.649556541019956,-0.4092885396964044
14.682926829268293,-0.34938799005105964
14.71629711751663,-0.2555100190359247
14.749667405764967,-0.15801153898316916
14.783037694013304,-0.07569925314601317
14.81640798226164,-0.011643132272782996
14.849778270509978,0.04364601669505439
14.883148558758315,0.10422733659109262
14.916518847006651,0.17983135231739877
14.949889135254988,0.2695507604938149
14.983259423503327,0.36020757975729695
15.016629711751664,0.42982949188333935
15.05,0.45510066823485623
15.083370288248338,0.4202952968621692
15.116740576496674,0.32439084873709456
15.150110864745011,0.1833138838658812
15.183481152993348,0.025846054705529004
15.216851441241685,-0.11577456949894763
15.250221729490022,-0.2170548040542881
15.283592017738359,-0.2694917094375443
15.316962305986696,-0.28191023313386143
15.350332594235034,-0.273850410059923
15.383702882483371,-0.2639038417969915
15.417073170731708,-0.2589161805802205
15.450443458980045,-0.2501274304149481
15.483813747228382,-0.21898217878497211
15.517184035476719,-0.14996173549335473
15.550554323725056,-0.04338371409225779
15.583924611973393,0.07951559103050664
15.61729490022173,0.18304472367086133
15.650665188470066,0.2325519558519058
15.684035476718403,0.21118096490615298
15.71740576496674,0.12898447481859787
15.750776053215079,0.019239764142445975
15.784146341463416,-0.07650717836579338
15.817516629711752,-0.127129275319866
15.85088691796009,-0.12479256344445395
15.884257206208426,-0.08565413814330462
15.917627494456763,-0.03863503576956968
15.9509977827051,-0.008823448297514904
15.984368070953437,-0.004558449881184776
16.017738359201775,-0.014733019608561701
16.05110864745011,-0.017000696646642874
16.08447893569845,0.008256131768374385
16.117849223946784,0.06603354148908232
16.151219512195123,0.1430858895901946
16.184589800443458,0.2139853139752247
16.217960088691797,0.25310304712982623
16.251330376940132,0.2459839018382199
16.28470066518847,0.1944992505423332
16.31807095343681,0.11399040975910923
16.351441241685144,0.02504979200750882
16.384811529933483,-0.054890555664754544
16.418181818181818,-0.11570102970077124
16.451552106430157,-0.153252125705304
16.48492239467849,-0.1651525337121765
16.51829268292683,-0.1476951522298869
16.551662971175165,-0.09690294712418174
16.585033259423504,-0.013306230388352372
16.61840354767184,0.0929434249011676
16.651773835920178,0.20080170648979231
16.685144124168513,0.28306069119569194
16.71851441241685,0.3156055970191645
16.75188470066519,0.2867225825919959
16.785254988913525,0.20154908632867768
16.818625277161864,0.07931290359852848
16.8519955654102,-0.05493530566424013
16.885365853658538,-0.1793576112425179
16.918736141906873,-0.28033495680397563
16.95210643015521,-0.35161121613442253
16.985476718403547,-0.38978902467755416
17.018847006651885,-0.39081311454288664
17.05221729490022,-0.3511667884927682
17.08558758314856,-0.27373735030564567
17.118957871396898,-0.17414415942535444
17.152328159645233,-0.08171254573080809
17.18569844789357,-0.031688220690649666
