Time (s),Filtered Signal
0.0,-0.008791359185436895
0.03337000366703337,-0.43992603332362173
0.06674000733406674,-0.733740605614916
0.1001100110011001,-0.8022229294191097
0.13348001466813347,-0.6358286571209706
0.16685001833516683,-0.30137271329832704
0.2002200220022002,0.08822113278506549
0.2335900256692336,0.41778153772165905
0.26696002933626695,0.6088789033810551
0.3003300330033003,0.6398628956757674
0.33370003667033366,0.5424052149717984
0.36707004033736707,0.37975383140799013
0.4004400440044004,0.21789546744405092
0.4338100476714338,0.10149989039316663
0.4671800513384672,0.04268591046931822
0.5005500550055005,0.024513742240658207
0.5339200586725339,0.015223324446381935
0.5672900623395672,-0.014302090082192838
0.6006600660066006,-0.07748199815994455
0.634030069673634,-0.1679956872161221
0.6674000733406673,-0.26476166062258666
0.7007700770077008,-0.34205243685078873
0.7341400806747341,-0.3794258451482334
0.7675100843417675,-0.3675173947054386
0.8008800880088008,-0.30866778198102846
0.8342500916758342,-0.21395515665535017
0.8676200953428675,-0.09913895730975254
0.9009900990099009,0.018740654377542895
0.9343601026769344,0.12382176013949295
0.9677301063439677,0.203603199513567
1.001100110011001,0.25135638118587744
1.0344701136780343,0.2682808608006131
1.0678401173450678,0.26398233957763123
1.1012101210121013,0.25387183210064446
1.1345801246791345,0.2533721502447923
1.167950128346168,0.27078891214560036
1.2013201320132012,0.30211004281090587
1.2346901356802347,0.3307031018412925
1.268060139347268,0.3327449483503652
1.3014301430143014,0.2863784654267158
1.3348001466813346,0.1807411700883913
1.368170150348368,0.021189265515547166
1.4015401540154016,-0.17106453063360388
1.4349101576824348,-0.3643414477452648
1.4682801613494683,-0.5247660432271168
1.5016501650165015,-0.6248079036881616
1.535020168683535,-0.6498342893871603
1.5683901723505682,-0.6011054702867017
1.6017601760176017,-0.49452807939849847
1.6351301796846351,-0.3555926082526954
1.6685001833516684,-0.2121155662276501
1.7018701870187019,-0.08721257601690045
1.735240190685735,0.005176218081989825
1.7686101943527686,0.061029226531771494
1.8019801980198018,0.083780808290132
1.8353502016868353,0.08057752569943333
1.8687202053538687,0.05948909497138553
1.902090209020902,0.028920009630085546
1.9354602126879354,-0.001264341878432379
1.9688302163549687,-0.01876719305114754
2.002200220022002,-0.009976925173248599
2.0355702236890356,0.03631131424551252
2.0689402273560686,0.12403787250679082
2.102310231023102,0.24651691460777414
2.1356802346901356,0.3866720487935469
2.169050238357169,0.5210800394616468
2.2024202420242025,0.6260596020801938
2.2357902456912355,0.6832268235524896
2.269160249358269,0.6826307642702202
2.3025302530253025,0.6231296785056145
2.335900256692336,0.5109958812462987
2.369270260359369,0.35809244425484915
2.4026402640264024,0.18033432822614814
2.436010267693436,-0.0038266627148207154
2.4693802713604693,-0.17564683942680157
2.502750275027503,-0.319400437783591
2.536120278694536,-0.42602159961192787
2.5694902823615693,-0.4954174969809238
2.6028602860286028,-0.5357855280326023
2.636230289695636,-0.5594271896022909
2.6696002933626692,-0.5763769785933099
2.7029702970297027,-0.5886585018037278
2.736340300696736,-0.5881991724577268
2.7697103043637696,-0.56004172630631
2.803080308030803,-0.4899938335208819
2.836450311697836,-0.3734266243788855
2.8698203153648696,-0.22087699814200704
2.903190319031903,-0.05720209726400079
2.9365603226989365,0.08601962236665912
2.96993032636597,0.18176323278424572
3.003300330033003,0.21747528163872892
3.0366703337000365,0.19925689926692502
3.07004033736707,0.14885238163282696
3.1034103410341034,0.09543312400670885
3.1367803447011364,0.06616521578960947
3.17015034836817,0.07917883995018767
3.2035203520352034,0.14047943372939714
3.236890355702237,0.24416640335296044
3.2702603593692703,0.3744017844062724
3.3036303630363033,0.508105136730368
3.3370003667033368,0.6184494496329738
3.3703703703703702,0.6797181715445983
3.4037403740374037,0.6734187629172287
3.4371103777044367,0.594202184900388
3.47048038137147,0.4531758261986069
3.5038503850385037,0.27647647332874814
3.537220388705537,0.09856590760522278
3.5705903923725706,-0.048079262909592795
3.6039603960396036,-0.14344071741634215
3.637330399706637,-0.18669536574236842
3.6707004033736705,-0.19648802992076664
3.704070407040704,-0.20438775926616312
3.7374404107077375,-0.24374133804283418
3.7708104143747705,-0.33776136195116796
3.804180418041804,-0.4907224305248415
3.8375504217088374,-0.6847726428132024
3.870920425375871,-0.8829445617277593
3.904290429042904,-1.0373850957108235
3.9376604327099374,-1.1009949039595928
3.971030436376971,-1.0402577732762626
4.004400440044004,-0.8465077348283679
4.037770443711038,-0.542210705452839
4.071140447378071,-0.1788482780487924
4.104510451045105,0.17524601640868065
4.137880454712137,0.455039810308967
4.171250458379171,0.6206042448435131
4.204620462046204,0.6718046644032345
4.237990465713238,0.6485607928065428
4.271360469380271,0.6147603697269264
4.304730473047305,0.6310949981044653
4.338100476714338,0.7276329458229626
4.3714704803813715,0.8879948037098916
4.404840484048405,1.052756687065055
4.438210487715438,1.1418282019557684
4.471580491382471,1.0873669717513192
4.5049504950495045,0.8638365611804171
4.538320498716538,0.5023584875901052
4.571690502383571,0.08258404396703076
4.605060506050605,-0.29540993286662776
4.638430509717638,-0.548079996760648
4.671800513384672,-0.6389865816812372
4.705170517051705,-0.5901763363779624
4.738540520718738,-0.46977969143075715
4.771910524385771,-0.36164432919219147
4.805280528052805,-0.33065285249093584
4.838650531719838,-0.3988273860033526
4.872020535386872,-0.5416575138766415
4.905390539053905,-0.704186011747548
4.938760542720939,-0.8273707046828136
4.972130546387972,-0.8716643881385
5.005500550055006,-0.8280175718318576
5.038870553722038,-0.714151793166709
5.072240557389072,-0.5613265705971419
5.105610561056105,-0.400020205744995
5.138980564723139,-0.25102307630517323
5.172350568390172,-0.12358972208845698
5.2057205720572055,-0.018023325221381708
5.239090575724239,0.07117881385981725
5.272460579391272,0.15368890795624193
5.305830583058306,0.2424605179139619
5.3392005867253385,0.3513510306913211
5.372570590392372,0.489968572233706
5.405940594059405,0.657018201080779
5.439310597726439,0.835621504503397
5.472680601393472,0.9942001995468805
5.506050605060506,1.0942019746083504
5.539420608727539,1.102439450703666
5.572790612394573,1.0031434257991938
5.606160616061606,0.8045695795658677
5.63953061972864,0.5373170650653306
5.672900623395672,0.24516639439372673
5.706270627062706,-0.027646730443295395
5.739640630729739,-0.24767909733354854
5.773010634396773,-0.398210742827214
5.806380638063806,-0.47876054788706873
5.83975064173084,-0.4999253531700793
5.873120645397873,-0.4768813280169408
5.9064906490649065,-0.42466041791858
5.93986065273194,-0.35663246100157475
5.9732306563989725,-0.28552370691207185
6.006600660066006,-0.2248992537461112
6.0399706637330395,-0.1889624238329171
6.073340667400073,-0.18968585175408195
6.106710671067106,-0.23201970926912516
6.14008067473414,-0.3093690934426353
6.173450678401173,-0.40202992240262225
6.206820682068207,-0.4805391202125161
6.24019068573524,-0.5140699057796283
6.273560689402273,-0.4816298643504504
6.306930693069306,-0.38180138136740005
6.34030069673634,-0.23618582812463085
6.373670700403373,-0.08339883684225068
6.407040704070407,0.035658537380892606
6.44041070773744,0.0958673946820739
6.473780711404474,0.10092069247249989
6.507150715071507,0.08388273155350513
6.540520718738541,0.09317488390310522
6.573890722405573,0.16935908702881666
6.607260726072607,0.3236353370295539
6.64063072973964,0.5290415967484516
6.6740007334066735,0.7293549134638617
6.707370737073707,0.8617041477178501
6.7407407407407405,0.8819358716203388
6.774110744407774,0.7807300468002835
6.807480748074807,0.5837400572737069
6.840850751741841,0.33740422111858487
6.8742207554088735,0.08881704337555654
6.907590759075907,-0.1302179664921894
6.94096076274294,-0.30840502224201216
6.974330766409974,-0.449246161595714
7.007700770077007,-0.5597299855645916
7.041070773744041,-0.6407474288158488
7.074440777411074,-0.6844934227961883
7.107810781078108,-0.6795346439495243
7.141180784745141,-0.6197884531949087
7.174550788412174,-0.5116717617508402
7.207920792079207,-0.3749695254529063
7.241290795746241,-0.2365948536707264
7.274660799413274,-0.12027314802587631
7.308030803080308,-0.037226401608899305
7.341400806747341,0.017757307869991978
7.3747708104143745,0.06328383438024018
7.408140814081408,0.12299842691645617
7.4415108177484415,0.2156122248831712
7.474880821415475,0.3471288581526669
7.5082508250825075,0.507692217625078
7.541620828749541,0.673540729982394
7.5749908324165744,0.8129516840320816
7.608360836083608,0.8941853630441069
7.641730839750641,0.8932813986012652
7.675100843417675,0.7999351768995174
7.708470847084708,0.6203555422158018
7.741840850751742,0.3767107035438759
7.775210854418775,0.10329953943346393
7.808580858085808,-0.16005140869677714
7.841950861752841,-0.3764396469335997
7.875320865419875,-0.5205900042346213
7.908690869086908,-0.5854776621135105
7.942060872753942,-0.5843178139527018
7.975430876420975,-0.5462635029861186
8.008800880088009,-0.5062740090082454
8.042170883755041,-0.4922699306155457
8.075540887422076,-0.5145438345253122
8.108910891089108,-0.562156419452931
8.142280894756142,-0.6083626059548298
8.175650898423175,-0.623029968702438
8.20902090209021,-0.5865613098336674
8.242390905757242,-0.4988872227658102
8.275760909424275,-0.37928691616412086
8.309130913091309,-0.25714863555781897
8.342500916758341,-0.15817910829448348
8.375870920425376,-0.09278333613559642
8.409240924092408,-0.05214609619992214
8.442610927759443,-0.013502489320516462
8.475980931426475,0.04862715454046297
8.50935093509351,0.15118426323560488
8.542720938760542,0.2964989067867245
8.576090942427575,0.47307780531334415
8.60946094609461,0.6610443321815542
8.642830949761642,0.8381712304996728
8.676200953428676,0.9834731962281542
8.709570957095709,1.0781061060947517
8.742940960762743,1.1057115994941145
8.776310964429776,1.0546611330060516
8.80968096809681,0.9227029444485442
8.843050971763843,0.7216979520997827
8.876420975430875,0.47856420118908916
8.90979097909791,0.2296990995409101
8.943160982764942,0.009735058709319502
8.976530986431976,-0.16057625861191524
9.009900990099009,-0.2809647222950904
9.043270993766043,-0.3686094689332859
9.076640997433076,-0.44656283627706705
9.11001100110011,-0.5298219517720159
9.143381004767143,-0.6169224056474254
9.176751008434175,-0.6918580348242168
9.21012101210121,-0.7350053040601853
9.243491015768242,-0.7362887501822367
9.276861019435277,-0.7024416211714002
9.31023102310231,-0.6537579135300199
9.343601026769344,-0.6120651876374955
9.376971030436376,-0.5870024399526211
9.41034103410341,-0.5689069912478815
9.443711037770443,-0.5329552664374265
9.477081041437476,-0.45273608520524566
9.51045104510451,-0.315874007041159
9.543821048771543,-0.13290471149790697
9.577191052438577,0.06578232590319107
9.61056105610561,0.24350170315359287
9.643931059772644,0.37405385647161216
9.677301063439677,0.4527037754666238
9.710671067106711,0.495619359497907
9.744041070773743,0.5284367657062898
9.777411074440776,0.5705131719969346
9.81078107810781,0.6235617716471082
9.844151081774843,0.6706606467688886
9.877521085441877,0.6857158308318908
9.91089108910891,0.6477192787580833
9.944261092775944,0.5517870720088562
9.977631096442977,0.4112151853360782
10.011001100110011,0.2501961164134307
10.044371103777044,0.09214309426936387
10.077741107444076,-0.04934096541707951
10.11111111111111,-0.1720321628644302
10.144481114778143,-0.2793532487757089
10.177851118445178,-0.3720540266081493
10.21122112211221,-0.4433483564176728
10.244591125779245,-0.480977668178935
10.277961129446277,-0.47495634851710256
10.311331133113312,-0.4259063497325682
10.344701136780344,-0.3482760289219051
10.378071140447377,-0.2657068830696038
10.411441144114411,-0.20054921897379394
10.444811147781444,-0.16317510623337306
10.478181151448478,-0.1470847239358468
10.51155115511551,-0.13261529160936647
10.544921158782545,-0.09724369384309504
10.578291162449577,-0.026906363870000782
10.611661166116612,0.07750319223658324
10.645031169783644,0.20129298670753057
10.678401173450677,0.3233234772656259
10.711771177117711,0.4250319891901435
10.745141180784744,0.49632610534296323
10.778511184451778,0.5358382069152076
10.81188118811881,0.5464027848796265
10.845251191785845,0.5292105118831989
10.878621195452878,0.480638782852765
10.911991199119912,0.3940659952261136
10.945361202786945,0.2659447743698158
10.978731206453979,0.1026160469591545
11.012101210121012,-0.07665557214822492
11.045471213788044,-0.24340168266499276
11.078841217455079,-0.36987628387796423
11.112211221122111,-0.4409100613737529
11.145581224789145,-0.46163298884894177
11.178951228456178,-0.45643458540408216
11.212321232123212,-0.4586515874638282
11.245691235790245,-0.4951597192563027
11.27906123945728,-0.5728005570198874
11.312431243124312,-0.6729763482117498
11.345801246791344,-0.7571614000541982
11.379171250458379,-0.7812939527331981
11.412541254125411,-0.7132168690947628
11.445911257792446,-0.5461132468483414
11.479281261459478,-0.30262163917560636
11.512651265126513,-0.02814675340826574
11.546021268793545,0.2238903975105171
11.57939127246058,0.4092580133319257
11.612761276127612,0.5065109330267695
11.646131279794645,0.5227193266101132
11.67950128346168,0.4900200656720807
11.712871287128712,0.45446073108407586
11.746241290795746,0.46046345774726477
11.779611294462779,0.5351836603880286
11.812981298129813,0.6773274558061765
11.846351301796846,0.8544718002193191
11.87972130546388,1.011052908437118
11.913091309130913,1.0857596245313705
11.946461312797945,1.0330381260596597
11.97983131646498,0.8407587416253722
12.013201320132012,0.5366525525766481
12.046571323799046,0.18022609704183382
12.079941327466079,-0.1571367969417973
12.113311331133113,-0.4160824464476545
12.146681334800146,-0.5676713332561131
12.18005133846718,-0.6191960439473416
12.213421342134213,-0.6059487498502044
12.246791345801245,-0.5734757899771695
12.28016134946828,-0.5585234217766938
12.313531353135312,-0.5765663681632653
12.346901356802347,-0.6199564955532176
12.38027136046938,-0.6655689576476235
12.413641364136414,-0.6870562984199028
12.447011367803446,-0.6660227505194283
12.48038137147048,-0.5982908046399077
12.513751375137513,-0.4942914151630991
12.547121378804546,-0.3747794399446139
12.58049138247158,-0.2638874973115673
12.613861386138613,-0.18142301698403776
12.647231389805647,-0.13610619869312757
12.68060139347268,-0.12151214810545591
12.713971397139714,-0.11645140815554947
12.747341400806746,-0.09071339960568117
12.78071140447378,-0.015259403416455476
12.814081408140813,0.126258997713515
12.847451411807846,0.3290742694076996
12.88082141547488,0.5657237690058043
12.914191419141913,0.7924910819627201
12.947561422808947,0.9617782257064649
12.98093142647598,1.036022567753815
13.014301430143014,0.9984586220936852
13.047671433810047,0.8575413646704974
13.081041437477081,0.6441917134392782
13.114411441144114,0.4031287731172425
13.147781444811146,0.18087023075803996
13.18115144847818,0.013521880676604557
13.214521452145213,-0.08254775947720963
13.247891455812248,-0.11456702574095302
13.28126145947928,-0.11028790762447284
13.314631463146315,-0.10828428047495635
13.348001466813347,-0.14408829766976972
13.381371470480381,-0.2365039187213344
13.414741474147414,-0.379114888977668
13.448111477814447,-0.5407997688533595
13.481481481481481,-0.675997522338601
13.514851485148514,-0.7415081871442092
13.548221488815548,-0.7134462997007028
13.58159149248258,-0.5972434347846948
13.614961496149615,-0.4260439826749207
13.648331499816647,-0.24768180635528383
13.681701503483682,-0.10556859494734849
13.715071507150714,-0.021791189507163206
13.748441510817747,0.01008880985117493
13.781811514484781,0.019425402647547163
13.815181518151814,0.04292699811564064
13.848551521818848,0.10664333364041376
13.88192152548588,0.21395942575337776
13.915291529152915,0.3448158733171087
13.948661532819948,0.46564162004240506
13.982031536486982,0.5443203091856493
14.015401540154015,0.5626247551551079
14.048771543821047,0.5207532755709645
14.082141547488082,0.4333615271309948
14.115511551155114,0.3209169885768252
14.148881554822148,0.2018318773396004
14.182251558489181,0.08904946300348063
14.215621562156215,-0.008909955941246933
14.248991565823248,-0.08543427241678439
14.282361569490282,-0.13524869690867047
14.315731573157315,-0.1569847509561797
14.349101576824348,-0.15694093915782573
14.382471580491382,-0.15030445815960228
14.415841584158414,-0.15705609892511935
14.449211587825449,-0.19306018135870603
14.482581591492481,-0.26047546693917367
14.515951595159516,-0.34321756035651135
14.549321598826548,-0.4113930244520398
14.582691602493583,-0.4340296376416735
14.616061606160615,-0.39448833548522333
14.649431609827648,-0.30060552920099026
14.682801613494682,-0.18355419985710256
14.716171617161715,-0.08490442831032169
14.749541620828749,-0.037565093022653935
14.782911624495782,-0.04979990099090512
14.816281628162816,-0.10030965300906557
14.849651631829849,-0.14698484195823802
14.883021635496883,-0.14518298202448202
14.916391639163916,-0.06684693532921561
14.94976164283095,0.08821756594447594
14.983131646497982,0.2932494999136439
15.016501650165015,0.5058407083970582
15.04987165383205,0.6832809803989278
15.083241657499082,0.7947687549409107
15.116611661166116,0.8262416451122525
15.149981664833149,0.7781633596059248
15.183351668500183,0.6600756773739794
15.216721672167216,0.4862719420887148
15.25009167583425,0.2746997067173999
15.283461679501283,0.04798479331291115
15.316831683168315,-0.16647146932149856
15.35020168683535,-0.33985043392428704
15.383571690502382,-0.4488006520580262
15.416941694169417,-0.48322534892647345
15.45031169783645,-0.45110211679930745
15.483681701503484,-0.37735259004302757
15.517051705170516,-0.296289343743692
15.55042170883755,-0.240045122278029
15.583791712504583,-0.22732999690262454
15.617161716171616,-0.2570281210917441
15.65053171983865,-0.30941766788842406
15.683901723505683,-0.3547940647968867
15.717271727172717,-0.36617073299145936
15.75064173083975,-0.3308451630040358
15.784011734506784,-0.2558726316277485
15.817381738173816,-0.1649367952209301
15.85075174184085,-0.08779795336777024
15.884121745507883,-0.046824875662041764
15.917491749174916,-0.046513910536398174
15.95086175284195,-0.0706470569129633
15.984231756508983,-0.08838868362216425
16.017601760176017,-0.06675226116008781
16.05097176384305,0.01573617243555304
16.084341767510082,0.15964123107461575
16.117711771177117,0.3430327603189664
16.15108177484415,0.5281334040293605
16.184451778511182,0.6735732202569576
16.217821782178216,0.747682201765361
16.25119178584525,0.7379727205158234
16.284561789512285,0.6534279178754425
16.317931793179316,0.5190103486901451
16.35130179684635,0.3649979899736845
16.384671800513384,0.21598936115606115
16.41804180418042,0.08446074891549502
16.45141180784745,-0.028686547703064707
16.484781811514484,-0.12793918904323653
16.51815181518152,-0.21570167991142192
16.55152181884855,-0.2883097084581479
16.584891822515583,-0.3378358201820632
16.618261826182618,-0.3581920686626216
16.651631829849652,-0.35125420777524724
16.685001833516683,-0.3286933141303138
16.718371837183717,-0.30788430994240606
16.75174184085075,-0.303946776367947
16.785111844517782,-0.3223646345033054
16.818481848184817,-0.3563118921230107
16.85185185185185,-0.39007983814831015
16.885221855518886,-0.4065829074711583
16.918591859185916,-0.3948358192288109
16.95196186285295,-0.3536417229866265
16.985331866519985,-0.29011680365987735
17.01870187018702,-0.21456799338688676
17.05207187385405,-0.13495838215923195
17.085441877521085,-0.05391718158728123
17.11881188118812,0.03059057141396147
17.15218188485515,0.1219544988220669
17.185551888522184,0.2211966261997765
17.21892189218922,0.32488226003959253
17.252291895856253,0.4255308464625683
17.285661899523284,0.5140156971306826
17.319031903190318,0.5825472539740411
