Frequency (Hz),Amplitude
0.0,2.815604037869309
0.01993355481727575,2.816174036707716
0.0398671096345515,2.817881054548979
0.059800664451827246,2.820716182548596
0.079734219269103,2.824664662663223
0.09966777408637874,2.829706020757274
0.11960132890365449,2.835814249151068
0.13953488372093023,2.8429580349865415
0.159468438538206,2.8511010299919888
0.17940199335548174,2.8602021565932514
0.19933554817275748,2.8702159448600053
0.21926910299003324,2.8810928944992487
0.23920265780730898,2.892779856009479
0.25913621262458475,2.905220425178062
0.27906976744186046,2.9183553453228694
0.29900332225913623,2.932122912024598
0.318936877076412,2.9464593755427577
0.3388704318936877,2.961299336629232
0.3588039867109635,2.976576132021661
0.37873754152823924,2.992222206490174
0.39867109634551495,3.008169468902797
0.4186046511627907,3.024349630348522
0.4385382059800665,3.0406945228971782
0.4584717607973422,3.0571363980713455
0.47840531561461797,3.073608204549053
0.49833887043189373,3.0900438450032666
0.5182724252491695,3.106378412313374
0.5382059800664452,3.1225484056559094
0.5581395348837209,3.1384919271992153
0.5780730897009968,3.154148860293749
0.5980066445182725,3.1694610301709063
0.6179401993355482,3.18437234824412
0.637873754152824,3.198828941152003
0.6578073089700996,3.2127792656998295
0.6777408637873754,3.2261742108480176
0.6976744186046512,3.2389671878688984
0.717607973421927,3.25111420975085
0.7375415282392027,3.2625739608748217
0.7574750830564785,3.273307857926271
0.7774086378737541,3.2832801029379497
0.7973421926910299,3.29245772928814
0.8172757475083057,3.300810641406671
0.8372093023255814,3.3083116488686106
0.8571428571428572,3.3149364954841767
0.877076411960133,3.3206638839233933
0.8970099667774087,3.325475496346658
0.9169435215946844,3.3293560114465937
0.9368770764119602,3.332293118244059
0.9568106312292359,3.3342775269200073
0.9767441860465116,3.335302976906713
0.9966777408637875,3.3353662424046737
1.0166112956810631,3.3344671354361566
1.036544850498339,3.3326085064917956
1.0564784053156147,3.3297962427725536
1.0764119601328903,3.326039263975153
1.0963455149501662,3.3213495155147
1.1162790697674418,3.3157419590223407
1.1362126245847177,3.309234559899218
1.1561461794019936,3.3018482716488236
1.176079734219269,3.2936070166491067
1.196013289036545,3.284537662962581
1.2159468438538206,3.2746699967165878
1.2358803986710964,3.2640366895179707
1.255813953488372,3.25267326029596
1.275747508305648,3.240618030894594
1.2956810631229239,3.2279120746629246
1.3156146179401993,3.2145991572176924
1.3355481727574752,3.2007256684807586
1.3554817275747508,3.186340545024434
1.3754152823920267,3.171495181693852
1.3953488372093024,3.15624333141895
1.4152823920265782,3.140640992083941
1.435215946843854,3.1247462792916334
1.4551495016611296,3.108619283848916
1.4750830564784054,3.092321912812757
1.495016611295681,3.075917712977869
1.514950166112957,3.0594716757640086
1.5348837209302328,3.0430500225780084
1.5548172757475083,3.0267199698880165
1.5747508305647842,3.010549473461499
1.5946843853820598,2.9946069514865274
1.6146179401993357,2.978960986622761
1.6345514950166113,2.963680007413478
1.6544850498338872,2.9488319499335884
1.6744186046511629,2.93448390104509
1.6943521594684385,2.920701725174922
1.7142857142857144,2.907549677108803
1.73421926910299,2.8950900038937726
1.754152823920266,2.8833825395433363
1.7740863787375416,2.8724842968194717
1.7940199335548175,2.8624490609014583
1.8139534883720931,2.853326990213924
1.8338870431893688,2.8451642300497793
1.8538205980066447,2.8380025448606765
1.8737541528239203,2.8318789751744706
1.893687707641196,2.8268255250185037
1.9136212624584719,2.8228688854653368
1.9335548172757475,2.82003019947187
1.9534883720930232,2.8183248725568237
1.9734219269102993,2.8177624330714504
1.993355481727575,2.81834644488713
2.0132890365448506,2.8200744742836217
2.0332225913621262,2.822938111712792
2.0531561461794023,2.8269230479767415
2.073089700996678,2.8320092032419124
2.0930232558139537,2.8381709062558724
2.1129568106312293,2.845377120180083
2.132890365448505,2.8535917106344892
2.1528239202657806,2.8627737508931044
2.1727574750830567,2.872877858690567
2.1926910299003324,2.88385455880466
2.212624584717608,2.8956506654664036
2.2325581395348837,2.908209678706699
2.25249169435216,2.9214721889593025
2.2724252491694354,2.935376284581254
2.292358803986711,2.949857957397367
2.312292358803987,2.964851501898707
2.332225913621263,2.9802899042976616
2.352159468438538,2.996105218240282
2.3720930232558137,3.012228924575946
2.39202657807309,3.0285922731668493
2.4119601328903655,3.045126605269167
2.431893687707641,3.06176365552256
2.4518272425249172,3.0784358330370436
2.471760797342193,3.0950764814614016
2.4916943521594686,3.111620118253808
2.511627906976744,3.128002653653688
2.5315614617940203,3.1441615900767657
2.551495016611296,3.160036202826678
2.5714285714285716,3.1755677031414957
2.5913621262458477,3.190699384677066
2.611295681063123,3.2053767545772955
2.6312292358803986,3.2195476502995266
2.6511627906976742,3.233162343356292
2.6710963455149503,3.246173631108206
2.691029900332226,3.2585369177002903
2.7109634551495017,3.2702102851801143
2.7308970099667778,3.2811545557737247
2.7508305647840534,3.291333346227137
2.770764119601329,3.3007131150499625
2.7906976744186047,3.3092632034245466
2.810631229235881,3.316955870471081
2.8305647840531565,3.3237663234870474
2.850498338870432,3.3296727437087292
2.870431893687708,3.3346563080743103
2.8903654485049834,3.338701207402181
2.910299003322259,3.341794661334337
2.9302325581395348,3.3439269303338275
2.950166112956811,3.3450913249658774
2.9700996677740865,3.3452842126351565
2.990033222591362,3.3445050218956958
3.0099667774086383,3.342756244394993
3.029900332225914,3.3400434344593504
3.0498338870431896,3.3363752062729235
3.0697674418604657,3.331763228547972
3.089700996677741,3.3262222165275386
3.1096345514950166,3.319769921104348
3.129568106312292,3.3124271147799775
3.1495016611295683,3.3042175741267164
3.169435215946844,3.295168058350104
3.1893687707641196,3.285308283483008
3.2093023255813957,3.274670891672473
3.2292358803986714,3.263291414948138
3.249169435215947,3.251208232786668
3.2691029900332227,3.238462522710653
3.289036544850499,3.2250982030838626
3.3089700996677744,3.211161867189163
3.32890365448505,3.1967027076020584
3.3488372093023258,3.1817724298043846
3.3687707641196014,3.1664251539215265
3.388704318936877,3.150717303416233
3.4086378737541527,3.1347074795359373
3.428571428571429,3.118456320293607
3.4485049833887045,3.102026342768818
3.46843853820598,3.085481767551736
3.4883720930232562,3.068888324223438
3.508305647840532,3.052313036877959
3.5282392026578075,3.0358239888497884
3.548172757475083,3.019490066021115
3.5681063122923593,3.003380678350417
3.588039867109635,2.987565459591616
3.60797342192691,2.972113945562038
3.6279069767441863,2.95709523176776
3.647840531561462,2.942577611702464
3.6677740863787376,2.928628197693741
3.6877076411960132,2.915312526768246
3.7076411960132893,2.9026941546289056
3.727574750830565,2.890834241464915
3.7475083056478407,2.8797911339253677
3.7674418604651168,2.869619948154573
3.787375415282392,2.860372159282791
3.807308970099668,2.8520952031616753
3.8272425249169437,2.8448320964013982
3.8471760797342194,2.838621080879866
3.867109634551495,2.8334952988350794
3.887043189368771,2.829482504403644
3.9069767441860463,2.8266048170279983
3.9269102990033224,2.8248785215254895
3.9468438538205985,2.8243139188082256
3.9667774086378738,2.8249152302881235
3.98671096345515,2.826680557929694
4.0066445182724255,2.8296019007640942
4.026578073089701,2.8336652274970056
4.046511627906977,2.83885060367726
4.0664451827242525,2.8451323707882805
4.086378737541528,2.852479373623798
4.106312292358805,2.8608552314475357
4.1262458471760795,2.870218647741602
4.146179401993356,2.8805237528388488
4.166112956810632,2.8917204734159325
4.186046511627907,2.9037549226971096
4.205980066445183,2.916569805269817
4.225913621262459,2.9301048306270197
4.245847176079734,2.94429712990032
4.26578073089701,2.959081670709742
4.2857142857142865,2.974391665596658
4.305647840531561,2.9901589701024753
4.325581395348838,3.006314467175955
4.345514950166113,3.0227884352161585
4.365448504983389,3.039510897663182
4.385382059800665,3.0564119526200395
4.40531561461794,3.0734220815140167
4.425249169435216,3.090472436274686
4.445182724252492,3.1074951049169695
4.465116279069767,3.1244233557649297
4.485049833887043,3.14119186084104
4.50498338870432,3.15773689917495
4.524916943521594,3.173996540963034
4.544850498338871,3.1899108136375807
4.5647840531561465,3.205421850989882
4.584717607973422,3.2204740265401472
4.604651162790698,3.2350140723643817
4.624584717607974,3.248991184579566
4.644518272425249,3.2623571166609917
4.664451827242526,3.2750662617192483
4.6843853820598005,3.2870757248089366
4.704318936877076,3.2983453862753747
4.724252491694353,3.3088379570748883
4.7441860465116275,3.3185190269300247
4.764119601328904,3.3273571061057132
4.78405315614618,3.335323661516953
4.803986710963455,3.342393147803672
4.823920265780731,3.3485430339372155
4.8438538205980075,3.353753825851286
4.863787375415282,3.3580090855237796
4.883720930232559,3.3612954468704968
4.9036544850498345,3.3636026287492506
4.92358803986711,3.3649234453130417
4.943521594684386,3.3652538138922594
4.963455149501661,3.3645927605293133
4.983388704318937,3.362942423233231
5.003322259136213,3.3603080529665244
5.023255813953488,3.356698012320942
5.043189368770764,3.3521237717831354
5.063122923588041,3.3465999034339533
5.083056478405315,3.3401440718663014
5.102990033222592,3.332777022045806
5.122923588039868,3.3245225637748765
5.142857142857143,3.315407552354917
5.162790697674419,3.305461864971572
5.182724252491695,3.2947183722562876
5.20265780730897,3.2832129044011285
5.222591362126246,3.2709842111265393
5.242524916943522,3.258073914720834
5.262458471760797,3.2445264552894573
5.282392026578074,3.2303890272701583
5.3023255813953485,3.2157115061912913
5.322259136212625,3.2005463645746888
5.342192691029901,3.1849485758159335
5.362126245847176,3.168975504816279
5.382059800664452,3.1526867840958683
5.4019933554817285,3.136144174091758
5.421926910299003,3.1194114063422513
5.44186046511628,3.1025540082860736
5.4617940199335555,3.0856391084679644
5.48172757475083,3.068735221047122
5.501661129568107,3.05191200865842
5.5215946843853825,3.0352400228842766
5.541528239202658,3.01879042186282
5.561461794019934,3.0026346648901057
5.5813953488372094,2.986844184272256
5.601328903654485,2.9714900351480757
5.621262458471762,2.9566425245305235
5.641196013289036,2.9423708213997743
5.661129568106313,2.9287425503108353
5.681063122923589,2.9158233716394624
5.700996677740864,2.9036765522618393
5.72093023255814,2.8923625311222723
5.740863787375416,2.8819384847615024
5.760797342192691,2.8724578984257088
5.780730897009967,2.8639701488216875
5.800664451827243,2.8565201048964393
5.820598006644518,2.8501477531708734
5.840531561461795,2.8448878541247584
5.8604651162790695,2.840769635896994
5.880398671096346,2.8378165311245063
5.900332225913622,2.8360459620976375
5.920265780730897,2.8354691785736073
5.940199335548173,2.8360911515877976
5.960132890365449,2.83791052546974
5.980066445182724,2.8409196290502328
6.0,2.845104545786115
6.0199335548172765,2.850445241281179
6.039867109634551,2.8569157454962144
6.059800664451828,2.864484385863383
6.0797342192691035,2.8731140665912207
6.099667774086379,2.8827625886949133
6.119601328903655,2.8933830047338622
6.139534883720931,2.9049240018922657
6.159468438538206,2.917330306897458
6.179401993355482,2.930543106322854
6.1993355481727574,2.9445004760484346
6.219269102990033,2.959137814025403
6.23920265780731,2.974388270984052
6.259136212624584,2.9901831743034335
6.279069767441861,3.0064524408973847
6.299003322259137,3.023124975634978
6.318936877076412,3.040129052478319
6.338870431893688,3.0573926761654695
6.3588039867109645,3.074843922873099
6.378737541528239,3.0924112588497774
6.398671096345516,3.110023836507229
6.418604651162791,3.1276117678889883
6.438538205980066,3.1451063758019338
6.458471760797343,3.1624404231970202
6.4784053156146175,3.179548321624704
6.498338870431894,3.1963663197726033
6.51827242524917,3.2128326732235895
6.538205980066445,3.228887796657848
6.558139534883721,3.244474399769253
6.578073089700998,3.259537608180307
6.598006644518272,3.2740250706275416
6.617940199335549,3.2878870536554072
6.6378737541528245,3.3010765250067187
6.6578073089701,3.3135492268354705
6.677740863787376,3.325263739797231
6.6976744186046515,3.3361815389962732
6.717607973421927,3.3462670426894348
6.737541528239203,3.3554876545666787
6.7574750830564785,3.363813800348531
6.777408637873754,3.3712189593625967
6.797342192691031,3.377679691685384
6.8172757475083055,3.3831756613625603
6.837209302325582,3.387689656150719
6.857142857142858,3.3912076041563344
6.877076411960133,3.393718587683313
6.897009966777409,3.3952148545385636
6.9169435215946855,3.3956918269851215
6.93687707641196,3.3951481084743436
6.956810631229236,3.3935854882314955
6.9767441860465125,3.3910089437125506
6.996677740863787,3.3874266408934557
7.016611295681064,3.3828499322958643
7.036544850498339,3.377293352594838
7.056478405315615,3.3707746115935513
7.076411960132891,3.3633145842875316
7.096345514950166,3.3549372976750913
7.116279069767442,3.3456699139020323
7.136212624584719,3.3355427092560377
7.156146179401993,3.324589048450175
7.17607973421927,3.312845353555255
7.196013289036546,3.3003510668571807
7.21594684385382,3.287148606829711
7.235880398671097,3.273283316324512
7.2558139534883725,3.2588034019914733
7.275747508305648,3.243759863853977
7.295681063122924,3.228206413878633
7.3156146179402,3.2121993822997625
7.335548172757475,3.195797610388824
7.355481727574752,3.1790623283023276
7.3754152823920265,3.1620570166034137
7.395348837209303,3.144847250037663
7.415282392026579,3.127500522159127
7.435215946843854,3.1100860494544573
7.45514950166113,3.0926745537091356
7.475083056478406,3.0753380215066963
7.495016611295681,3.058149439956958
7.514950166112956,3.0411825080190913
7.5348837209302335,3.024511323124422
7.554817275747508,3.0082100432168017
7.574750830564784,2.992352524814433
7.5946843853820605,2.9770119382556675
7.614617940199336,2.9622603619148515
7.634551495016611,2.9481683578529343
7.6544850498338874,2.9348045320856593
7.674418604651163,2.9222350833881783
7.694352159468439,2.910523345284649
7.714285714285715,2.8997293265630755
7.73421926910299,2.889909256277745
7.754152823920266,2.8811151397175174
7.774086378737542,2.8733943321940743
7.794019933554818,2.8667891377072947
7.813953488372093,2.8613364395478547
7.83388704318937,2.8570673696803905
7.853820598006645,2.854007023303893
7.8737541528239205,2.852174224311357
7.893687707641197,2.851581346481296
7.913621262458472,2.8522341941569835
7.9335548172757475,2.854131944941917
7.953488372093024,2.8572671556105464
7.9734219269103,2.8616258310548335
7.9933554817275745,2.8671875547174914
8.013289036544851,2.8739256776581126
8.033222591362128,2.881807562211218
8.053156146179402,2.890794875170007
8.073089700996679,2.900843924601248
8.093023255813954,2.911906033787138
8.11295681063123,2.9239279454098432
8.132890365448505,2.9368522489414337
8.152823920265782,2.9506178242626526
8.172757475083056,2.9651602947867355
8.192691029900331,2.980412483779837
8.21262458471761,2.9963048681147595
8.232558139534884,3.0127660243343315
8.252491694352159,3.029723062600687
8.272425249169435,3.0471020448343125
8.292358803986712,3.064828384073824
8.312292358803987,3.0828272227896805
8.332225913621263,3.1010237885435177
8.352159468438538,3.119343725985491
8.372093023255815,3.13771340471568
8.392026578073091,3.1560602029973617
8.411960132890366,3.174312767698455
8.43189368770764,3.1924012511543864
8.451827242524917,3.2102575258950115
8.471760797342194,3.227815378365427
8.491694352159469,3.2450106829024055
8.511627906976745,3.2617815573112847
8.53156146179402,3.278068501430313
8.551495016611296,3.2938145200767983
8.571428571428573,3.3089652317493665
8.591362126245848,3.3234689644183146
8.611295681063122,3.337276839677206
8.6312292358804,3.3503428464579814
8.651162790697676,3.362623905432676
8.67109634551495,3.3740799251407037
8.691029900332227,3.384673850794076
8.710963455149502,3.394371706625948
8.730897009966778,3.403142632562048
8.750830564784053,3.410958915910809
8.77076411960133,3.417796018687408
8.790697674418604,3.4236326011094835
8.81063122923588,3.4284505417285556
8.830564784053157,3.432234954590635
8.850498338870432,3.4349742037525233
8.870431893687707,3.436659915415996
8.890365448504983,3.437286987880156
8.91029900332226,3.4368535994523794
8.930232558139535,3.4353612143995167
8.950166112956811,3.432814586962999
8.970099667774086,3.429221763403246
8.990033222591363,3.424594081980059
9.00996677740864,3.418946170715277
9.029900332225914,3.412295942721562
9.049833887043189,3.4046645888161304
9.069767441860467,3.3960765670697715
9.089700996677742,3.386559588869088
9.109634551495017,3.3761446009936913
9.129568106312293,3.3648657631287953
9.14950166112957,3.3527604201483134
9.169435215946844,3.339869068413445
9.189368770764121,3.326235315237883
9.209302325581396,3.311905830573278
9.22923588039867,3.2969302898694064
9.249169435215949,3.281361306963608
9.269102990033224,3.265254355755904
9.289036544850498,3.2486676793330025
9.308970099667773,3.231662185118882
9.328903654485051,3.2143013245572343
9.348837209302326,3.1966509557760223
9.368770764119601,3.1787791876533116
9.388704318936878,3.1607562037030505
9.408637873754152,3.1426540642371
9.428571428571429,3.124546485343825
9.448504983388705,3.106508593362056
9.46843853820598,3.088616653731066
9.488372093023255,3.0709477733695016
9.508305647840533,3.0535795760862863
9.528239202657808,3.0365898509590648
9.548172757475083,3.0200561741325407
9.56810631229236,3.0040555050898847
9.588039867109636,2.988663759128657
9.60797342192691,2.973955358518461
9.627906976744187,2.9600027656147265
9.647840531561462,2.9468760020286813
9.667774086378738,2.934642158780256
9.687707641196015,2.9233649031548423
9.70764119601329,2.9131039887081385
9.727574750830565,2.9039147754760872
9.747508305647841,2.895847767908159
9.767441860465118,2.8889481783137754
9.787375415282392,2.8832555236598556
9.807308970099669,2.878803263358851
9.827242524916944,2.8756184852260946
9.84717607973422,2.873721646063537
9.867109634551497,2.873126372357625
9.887043189368772,2.873839325390714
9.906976744186046,2.8758601337011998
9.926910299003321,2.8791813943407187
9.9468438538206,2.883788742829746
9.966777408637874,2.889660990171632
9.986710963455149,2.8967703238152027
10.006644518272426,2.9050825681186137
10.026578073089702,2.9145574987131107
10.046511627906977,2.925149204236387
10.066445182724253,2.9368064882255047
10.086378737541528,2.949473303541827
10.106312292358805,2.9630892115408924
10.126245847176081,2.977589858283887
10.146179401993356,2.9929074603870385
10.16611295681063,3.008971293587997
10.186046511627907,3.025708177734141
10.205980066445184,3.0430429526273053
10.225913621262459,3.0608989399521667
10.245847176079735,3.0791983873353237
10.26578073089701,3.0978628913956716
10.285714285714286,3.1168137974286165
10.305647840531563,3.135972574094229
10.325581395348838,3.155261162139328
10.345514950166113,3.1746022967645877
10.36544850498339,3.1939198037467285
10.385382059800666,3.2131388698409213
10.40531561461794,3.2321862883235113
10.425249169435217,3.2509906807942603
10.445182724252492,3.269482696547956
10.465116279069768,3.2875951909548684
10.485049833887045,3.3052633843668766
10.50498338870432,3.3224250030986253
10.524916943521594,3.339020404029574
10.544850498338871,3.3549926843398428
10.564784053156147,3.3702877778376905
10.584717607973422,3.384854539264163
10.604651162790697,3.3986448178767996
10.624584717607974,3.4116135215229413
10.64451827242525,3.4237186723175537
10.664451827242525,3.434921454943504
10.684385382059801,3.4451862584958444
10.704318936877076,3.454480712697379
10.724252491694353,3.4627757192217543
10.74418604651163,3.4700454787732453
10.764119601328904,3.476267514489428
10.784053156146179,3.4814226921545157
