Time (s),Filtered Signal
0.0,-0.011009741763325356
0.03337004405286344,0.08262407009394648
0.06674008810572687,0.09344196220152562
0.10011013215859031,-0.017816519549686206
0.13348017621145375,-0.22507586101048893
0.16685022026431717,-0.4485754921170377
0.20022026431718062,-0.5924685277350068
0.23359030837004408,-0.5884403857118606
0.2669603524229075,-0.42400025857450846
0.3003303964757709,-0.14372947955614485
0.33370044052863435,0.17383596145994748
0.3670704845814978,0.44988947070501156
0.40044052863436125,0.6330942069207335
0.43381057268722467,0.7105347410270376
0.46718061674008815,0.7008258958217137
0.5005506607929515,0.6367412801886065
0.533920704845815,0.5479399254181002
0.5672907488986785,0.4517374454509448
0.6006607929515418,0.3537367539661925
0.6340308370044053,0.2543424663294144
0.6674008810572687,0.15492422785173146
0.7007709251101322,0.05944324212885995
0.7341409691629956,-0.028267251134128743
0.767511013215859,-0.10797493162215557
0.8008810572687225,-0.1835499101732877
0.834251101321586,-0.25963332489844865
0.8676211453744493,-0.3369975992222224
0.9009911894273128,-0.410330250003387
0.9343612334801763,-0.47029430834089186
0.9677312775330397,-0.5082522068265458
1.001101321585903,-0.5197612642949404
1.0344713656387665,-0.5038478141355872
1.06784140969163,-0.45872824952512303
1.1012114537444935,-0.3782992988018449
1.134581497797357,-0.2542009586133177
1.1679515418502202,-0.08455529063586617
1.2013215859030837,0.11517508425834197
1.2346916299559472,0.30733501858112083
1.2680616740088106,0.43978777233596983
1.3014317180616741,0.46614619956846526
1.3348017621145374,0.370284936021707
1.3681718061674009,0.18205210645053638
1.4015418502202643,-0.026722115244498593
1.4349118942731278,-0.1676867625401677
1.4682819383259913,-0.1729909545640662
1.5016519823788548,-0.026442764632162562
1.535022026431718,0.2269883703964313
1.5683920704845815,0.4986154137023524
1.601762114537445,0.692092087832636
1.6351321585903085,0.7407541144971186
1.668502202643172,0.6293665334790455
1.7018722466960352,0.39244713128225567
1.7352422907488987,0.09335958259702114
1.7686123348017622,-0.20333113300341826
1.8019823788546256,-0.4530273377988536
1.8353524229074891,-0.6385203006601919
1.8687224669603526,-0.7644623393653607
1.9020925110132159,-0.8450894082155593
1.9354625550660793,-0.8921933522833951
1.9688325991189428,-0.9079257974119245
2.002202643171806,-0.8839288091482037
2.0355726872246698,-0.8059143310178978
2.068942731277533,-0.6611395566220171
2.1023127753303967,-0.4452296163113771
2.13568281938326,-0.16519942745313604
2.1690528634361232,0.16220118504687056
2.202422907488987,0.5145987777280754
2.23579295154185,0.8666846161314105
2.269162995594714,1.1890032936722952
2.302533039647577,1.4442411362186527
2.3359030837004404,1.5861085044957808
2.369273127753304,1.566406120825948
2.4026431718061674,1.3518494894285653
2.436013215859031,0.9452891281488959
2.4693832599118943,0.40017523839819213
2.5027533039647576,-0.18310986961572465
2.5361233480176213,-0.6832493936081083
2.5694933920704845,-0.9986484934764961
2.6028634361233483,-1.0850934185660246
2.6362334801762115,-0.9714052169085923
2.6696035242290748,-0.7436178865052039
2.7029735682819385,-0.5041696575151133
2.7363436123348017,-0.32606289916903813
2.7697136563876654,-0.22502839042484912
2.8030837004405287,-0.16339922265693874
2.8364537444933924,-0.08261122692322045
2.8698237885462556,0.05402331477562078
2.903193832599119,0.2322591058122993
2.9365638766519826,0.3884371906438671
2.969933920704846,0.44196044993373096
3.0033039647577096,0.34177082035493855
3.036674008810573,0.10116300103909627
3.070044052863436,-0.19946502931186727
3.1034140969162998,-0.4453660520853227
3.136784140969163,-0.5397402821726079
3.1701541850220267,-0.44879698245359295
3.20352422907489,-0.21670086370603756
3.2368942731277532,0.056352390530459526
3.270264317180617,0.2606701558318834
3.30363436123348,0.324417388824167
3.337004405286344,0.23950017052030925
3.370374449339207,0.05633621539841704
3.4037444933920704,-0.14590383934546428
3.437114537444934,-0.2959545554216882
3.4704845814977974,-0.3557346294362036
3.503854625550661,-0.3248872436042959
3.5372246696035243,-0.22772811410265734
3.5705947136563876,-0.09442526627411466
3.6039647577092513,0.051379515327321164
3.6373348017621145,0.19329933177668532
3.6707048458149782,0.3151881659146435
3.7040748898678415,0.395505843141772
3.737444933920705,0.4105050518080241
3.7708149779735685,0.34666554983179865
3.8041850220264317,0.21517562048405595
3.8375550660792954,0.05790945857154542
3.8709251101321587,-0.062456236335827066
3.9042951541850224,-0.08724648584285914
3.9376651982378856,0.008502347055288665
3.971035242290749,0.19629947471373765
4.004405286343612,0.3967987560239236
4.037775330396476,0.5077112999105238
4.0711453744493395,0.44773263061604157
4.104515418502203,0.1979029575525863
4.137885462555066,-0.17956510026822908
4.171255506607929,-0.5568825790981846
4.2046255506607935,-0.7878480671887103
4.237995594713657,-0.7686022078574567
4.27136563876652,-0.48579101507791245
4.304735682819383,-0.02946539761371698
4.3381057268722465,0.43734104718494105
4.371475770925111,0.7411098607207827
4.404845814977974,0.7664257331007442
4.438215859030837,0.5016729969777354
4.4715859030837,0.042892912844764576
4.504955947136564,-0.445061421193363
4.538325991189428,-0.7931113169585412
4.571696035242291,-0.8913011583943541
4.605066079295154,-0.7254860183171449
4.638436123348018,-0.37401879113337466
4.671806167400881,0.031477899374187365
4.705176211453745,0.36189129702515993
4.738546255506608,0.5374357337218861
4.7719162995594715,0.5461543237824958
4.805286343612335,0.4302981239554628
4.838656387665198,0.2533556664444683
4.872026431718062,0.06869659171039275
4.905396475770925,-0.0939779852963374
4.938766519823789,-0.22224803788670763
4.972136563876652,-0.3061111740481626
5.005506607929515,-0.3300794747392528
5.038876651982379,-0.27995984409618757
5.072246696035243,-0.158938221063068
5.105616740088106,0.0010357743926060873
5.138986784140969,0.14444489938659283
5.172356828193832,0.2145961234445244
5.2057268722466965,0.1814374778427341
5.23909691629956,0.058194457699527184
5.272466960352423,-0.10367093442261151
5.305837004405286,-0.23865470821559367
5.3392070484581495,-0.29669415273801736
5.372577092511014,-0.261733423595137
5.405947136563877,-0.15097815849813565
5.43931718061674,0.0012273836320825988
5.4726872246696034,0.16246709597925724
5.506057268722468,0.31231673177204766
5.539427312775331,0.43958660241144076
5.572797356828194,0.5323898367193042
5.606167400881057,0.5710722870520014
5.639537444933921,0.5311260916360194
5.672907488986785,0.39573551700705933
5.706277533039648,0.17070740585640318
5.739647577092511,-0.10773915325796465
5.7730176211453745,-0.3785558974106387
5.806387665198238,-0.5742102513173518
5.839757709251102,-0.6444057656812803
5.873127753303965,-0.5745857773927551
5.9064977973568284,-0.3907712180595293
5.939867841409692,-0.14879684394387582
5.973237885462555,0.08655934863980835
6.006607929515419,0.26275443833530665
6.039977973568282,0.3521693225075486
6.073348017621146,0.3528581628551137
6.106718061674009,0.28028483685486416
6.140088105726872,0.1568218487203928
6.173458149779736,0.005291404634183576
6.2068281938325995,-0.15127816534503644
6.240198237885463,-0.2864932109963892
6.273568281938326,-0.3695650838339243
6.306938325991189,-0.37067711369066886
6.3403083700440535,-0.27251665770131916
6.373678414096917,-0.08277913232333761
6.40704845814978,0.1598540722136629
6.440418502202643,0.3917802336317693
6.4737885462555065,0.5426338998021262
6.507158590308371,0.5594424499106406
6.540528634361234,0.427088645284129
6.573898678414097,0.17624960626247493
6.60726872246696,-0.1251015993674081
6.640638766519824,-0.3938846665437395
6.674008810572688,-0.559565555116912
6.707378854625551,-0.5869311240068582
6.740748898678414,-0.4855592045746228
6.774118942731278,-0.3026698807021049
6.807488986784141,-0.10244044874682764
6.840859030837005,0.059802552818548065
6.874229074889868,0.15793119296282657
6.9075991189427315,0.20139429317401097
6.940969162995595,0.22490908316198396
6.974339207048458,0.26609674280182194
7.007709251101322,0.3414935093660594
7.041079295154185,0.43282932414022596
7.074449339207049,0.4914081429520675
7.107819383259912,0.4601197960446512
7.141189427312775,0.3036161854777899
7.174559471365639,0.03195848799195398
7.207929515418503,-0.29521046733349166
7.241299559471366,-0.5882102754814131
7.274669603524229,-0.762964623173998
7.308039647577092,-0.7761883733311071
7.3414096916299565,-0.6427715505137056
7.37477973568282,-0.4264690356800664
7.408149779735683,-0.2085643407252952
7.441519823788546,-0.05047188005085948
7.47488986784141,0.03100581642224659
7.508259911894274,0.06426131995004414
7.541629955947137,0.10077260614377138
7.575,0.18326648101628004
7.608370044052863,0.32108122527418276
7.641740088105728,0.4844971145576979
7.675110132158591,0.6190993995053362
7.708480176211454,0.6713359660165735
7.741850220264317,0.6124592749064154
7.775220264317181,0.4509249469254451
7.808590308370045,0.22991079147680116
7.841960352422908,0.012631590523895203
7.875330396475771,-0.1387582165048789
7.9087004405286345,-0.1842329200602757
7.942070484581498,-0.12084651343101552
7.975440528634362,0.013627926736670551
8.008810572687224,0.15125107950678707
8.042180616740088,0.21707774454379022
8.075550660792953,0.15776096367551462
8.108920704845815,-0.035403634022533485
8.142290748898679,-0.3192239116470431
8.175660792951541,-0.6113633339270511
8.209030837004406,-0.818590162905249
8.24240088105727,-0.8690493759161021
8.275770925110132,-0.7356567687825154
8.309140969162996,-0.4425583524556253
8.342511013215859,-0.05481976110380504
8.375881057268723,0.34167258189776767
8.409251101321587,0.661305133613622
8.44262114537445,0.8352924524004052
8.475991189427313,0.8231273440834638
8.509361233480176,0.6208181276110079
8.54273127753304,0.2659820536667212
8.576101321585904,-0.16400904803057315
8.609471365638766,-0.5659483864746033
8.64284140969163,-0.8376214199648153
8.676211453744493,-0.9102305264149191
8.709581497797357,-0.7728732939957852
8.742951541850221,-0.47667755303429643
8.776321585903084,-0.1152434023434657
8.809691629955948,0.21020970606252173
8.84306167400881,0.4253066636252642
8.876431718061674,0.5021491201676951
8.909801762114538,0.45805998755266525
8.9431718061674,0.33767942821992
8.976541850220265,0.18940971908818785
9.009911894273127,0.04768333145009843
9.043281938325991,-0.07247675452481464
9.076651982378856,-0.16932695269199857
9.110022026431718,-0.24299720737172062
9.143392070484582,-0.28661823061998376
9.176762114537445,-0.28512139423771776
9.210132158590309,-0.22189603340821254
9.243502202643173,-0.08901445081313585
9.276872246696035,0.10500824998283219
9.3102422907489,0.3342630621655838
9.343612334801762,0.5616851839524345
9.376982378854626,0.7490335565959726
9.41035242290749,0.8657500285708806
9.443722466960352,0.8935248916857376
9.477092511013216,0.8267418936544773
9.510462555066079,0.6713740238767919
9.543832599118943,0.4445594722243844
9.577202643171807,0.17451628168154804
9.61057268722467,-0.10185630148512487
9.643942731277534,-0.3459700982362486
9.677312775330396,-0.5281520397471404
9.71068281938326,-0.6371314186404311
9.744052863436124,-0.68266013843106
9.777422907488987,-0.6886111630404562
9.81079295154185,-0.6794092191365532
9.844162995594713,-0.6669175255558883
9.877533039647577,-0.6449854614284998
9.910903083700441,-0.5945873792083037
9.944273127753304,-0.4965021476785837
9.977643171806168,-0.3444205488924687
10.01101321585903,-0.15150298135626197
10.044383259911895,0.05261573481684525
10.077753303964759,0.23213820842022137
10.111123348017621,0.35704311716842513
10.144493392070485,0.4109603726010349
10.177863436123348,0.3922475727182606
10.211233480176212,0.30943577204598305
10.244603524229076,0.17494295491790446
10.277973568281938,0.001346450796723562
10.311343612334802,-0.19740977031223153
10.344713656387665,-0.400800151555679
10.378083700440529,-0.5766243758846717
10.411453744493393,-0.6814901503177554
10.444823788546255,-0.6703647544054073
10.47819383259912,-0.5135624647530769
10.511563876651982,-0.21372194798823727
10.544933920704846,0.18718390512564823
10.57830396475771,0.6171730817596116
10.611674008810573,0.9976501036115556
10.645044052863437,1.269939836820686
10.678414096916299,1.411154854185968
10.711784140969163,1.4310558006569514
10.745154185022027,1.3525977562059475
10.77852422907489,1.18890295304807
10.811894273127754,0.9321088635633923
10.845264317180618,0.5627225478591966
10.87863436123348,0.07532082859021937
10.912004405286345,-0.4948382563485895
10.945374449339207,-1.0623827728510005
10.978744493392071,-1.5094330190602954
11.012114537444935,-1.7253284196634726
11.045484581497798,-1.6507827645486075
11.078854625550662,-1.3054429685644884
11.112224669603524,-0.7855774121441602
11.145594713656388,-0.23262285038968034
11.178964757709252,0.21411505037441164
11.212334801762115,0.4618585495041173
11.245704845814979,0.4898502978015369
11.279074889867841,0.3482153244357554
11.312444933920705,0.13237224898866085
11.34581497797357,-0.05650702604912597
11.379185022026432,-0.14989547590475358
11.412555066079296,-0.13455062857682137
11.445925110132158,-0.05067639195452141
11.479295154185023,0.03325692884928937
11.512665198237887,0.05771573898833619
11.546035242290749,0.004171873637522374
11.579405286343613,-0.09330978944229745
11.612775330396476,-0.16307014965688116
11.64614537444934,-0.1309425457896322
11.679515418502204,0.04098865417982981
11.712885462555066,0.3305996535471029
11.74625550660793,0.6587315992205288
11.779625550660793,0.9181292955893257
11.812995594713657,1.0152108353796665
11.846365638766521,0.9059121787777403
11.879735682819383,0.6104396087547431
11.913105726872248,0.20233041482118985
11.94647577092511,-0.22096347591465285
11.979845814977974,-0.5715959555925705
12.013215859030838,-0.7950411603033256
12.0465859030837,-0.8769493999074982
12.079955947136565,-0.8349874759787532
12.113325991189427,-0.7035866697890362
12.146696035242291,-0.5201725657299863
12.180066079295155,-0.31755081385456896
12.213436123348018,-0.12203480838375876
12.246806167400882,0.04605277279930424
12.280176211453744,0.17254469468692343
12.313546255506608,0.250954789125014
12.346916299559473,0.28389634918670026
12.380286343612335,0.28238804560648006
12.413656387665199,0.2621727557650569
12.447026431718061,0.238049085309918
12.480396475770926,0.21867479597597933
12.51376651982379,0.20445464227951335
12.547136563876652,0.18969888922555683
12.580506607929516,0.1678634211073029
12.613876651982379,0.13676305528895055
12.647246696035243,0.1005334122076306
12.680616740088107,0.067044594854933
12.71398678414097,0.04228531725858481
12.747356828193833,0.025190347728550944
12.780726872246696,0.006323156164627024
12.81409691629956,-0.028187173539822447
12.847466960352424,-0.08892969516345861
12.880837004405286,-0.1754443142852098
12.91420704845815,-0.272588903849038
12.947577092511013,-0.3535566537477239
12.980947136563877,-0.3889656923031043
13.014317180616741,-0.35838130698054255
13.047687224669604,-0.25916020199823553
13.081057268722468,-0.10851489463574286
13.11442731277533,0.06216919264491882
13.147797356828194,0.21805722133615935
13.181167400881058,0.3317175040598419
13.21453744493392,0.3896419537690837
13.247907488986785,0.39264697596493586
13.281277533039647,0.35153411177370697
13.314647577092511,0.2812119190717615
13.348017621145376,0.19616919168749167
13.381387665198238,0.10836044925508019
13.414757709251102,0.02667869775854737
13.448127753303964,-0.04347540194222083
13.481497797356829,-0.10119424876057916
13.514867841409693,-0.15081420621594235
13.548237885462555,-0.20072989938093283
13.58160792951542,-0.25918393297711073
13.614977973568282,-0.32787528438595975
13.648348017621146,-0.39640788203858546
13.68171806167401,-0.4415276505652418
13.715088105726872,-0.433699998153199
13.748458149779736,-0.3499937241294553
13.781828193832599,-0.1880530517351835
13.815198237885463,0.026355998185500416
13.848568281938327,0.2440667413343252
13.88193832599119,0.40958501522500423
13.915308370044054,0.4834144051140277
13.948678414096916,0.45834250479678024
13.98204845814978,0.36055340196577806
14.015418502202644,0.23445970330255697
14.048788546255507,0.11949703795995202
14.08215859030837,0.03199255108660049
14.115528634361233,-0.03761521737206768
14.148898678414097,-0.11101957569594806
14.182268722466961,-0.20066150037243044
14.215638766519824,-0.29468671638658067
14.249008810572688,-0.3588812096384208
14.28237885462555,-0.3559690533318103
14.315748898678414,-0.2713113740223321
14.349118942731279,-0.12863262887737706
14.382488986784141,0.016148501458301188
14.415859030837005,0.10250001342455378
14.449229074889868,0.10040591150406428
14.482599118942732,0.03287104114992657
14.515969162995596,-0.029315600699654998
14.549339207048458,-0.001375986706558213
14.582709251101322,0.168317927181412
14.616079295154185,0.4619125077450536
14.649449339207049,0.7872339658345426
14.682819383259913,1.0104310723589545
14.716189427312775,1.0133226823828048
14.74955947136564,0.7493620200117503
14.782929515418502,0.27125352998081814
14.816299559471366,-0.28433099364895265
14.84966960352423,-0.7495622636309266
14.883039647577093,-0.9925769508330244
14.916409691629957,-0.9687308695066489
14.94977973568282,-0.7332573565336381
14.983149779735683,-0.41089819559709784
15.016519823788547,-0.1381257578108975
15.04988986784141,-0.005509953698975621
15.083259911894274,-0.026049775877708223
15.116629955947138,-0.14136517755245565
15.15,-0.25898647989568996
15.183370044052865,-0.2999963161684194
15.216740088105727,-0.23352960912987983
15.250110132158591,-0.08362994564189787
15.283480176211455,0.09082349079031068
15.316850220264318,0.22929695233214478
15.350220264317182,0.2975745579267765
15.383590308370044,0.29761097025367983
15.416960352422908,0.25754245836491374
15.450330396475772,0.2104999314398259
15.483700440528635,0.17525150653496163
15.517070484581499,0.14885472102023467
15.550440528634361,0.11392893518132871
15.583810572687225,0.055153342068435626
15.61718061674009,-0.025027515594318296
15.650550660792952,-0.10087744246438551
15.683920704845816,-0.13208039841023045
15.717290748898678,-0.08333188248144492
15.750660792951543,0.05451157935210625
15.784030837004407,0.2526140848693317
15.817400881057269,0.4487980541510863
15.850770925110133,0.5683050814907065
15.884140969162996,0.5527140688320001
15.91751101321586,0.38489538971017806
15.950881057268724,0.09914021348068026
15.984251101321586,-0.22836520439366292
16.01762114537445,-0.5054771940839238
16.050991189427315,-0.6565199510157449
16.084361233480177,-0.6486751056788418
16.11773127753304,-0.5022552851290839
16.151101321585905,-0.2812085691194689
16.184471365638768,-0.06799203490973628
16.21784140969163,0.06703908985494868
16.251211453744492,0.08976937145268125
16.284581497797358,0.01108656163259512
16.31795154185022,-0.12208873162623272
16.351321585903083,-0.24865055935691593
16.38469162995595,-0.3182836354127888
16.41806167400881,-0.3091726120077139
16.451431718061674,-0.23177578311799232
16.48480176211454,-0.11842909564704555
16.518171806167402,-0.004874745557695105
16.551541850220264,0.08682737540124964
16.584911894273127,0.15577199309934642
16.618281938325993,0.21712096077557755
16.651651982378855,0.2882378299944011
16.685022026431717,0.3744523850489897
16.718392070484583,0.4628177436149758
16.751762114537446,0.5274431330834265
16.785132158590308,0.5431710528266294
16.818502202643174,0.4995669317896231
16.851872246696036,0.4073347912025044
16.8852422907489,0.29415934332694627
16.91861233480176,0.19323425534460595
16.951982378854627,0.13113402454100742
16.98535242290749,0.12025279335812217
17.01872246696035,0.15658138643573796
17.052092511013218,0.22023010827825187
17.08546255506608,0.27672903394755194
17.118832599118942,0.2807774656729676
17.152202643171808,0.18652351559042704
17.18557268722467,-0.03417622734220877
17.218942731277533,-0.37123060496077276
17.2523127753304,-0.7655773826138004
17.28568281938326,-1.1194593551453462
17.319052863436124,-1.3290494118376348
