Time (s),Filtered Signal
0.0,-0.026670653715091763
0.03337004405286344,-0.09885012921571298
0.06674008810572687,-0.1791486795625107
0.10011013215859031,-0.26888957335526864
0.13348017621145375,-0.359128538700717
0.16685022026431717,-0.43329744102250106
0.20022026431718062,-0.4745559659519589
0.23359030837004408,-0.4741840389631689
0.2669603524229075,-0.43661721550112026
0.3003303964757709,-0.37829894563608346
0.33370044052863435,-0.320687341163392
0.3670704845814978,-0.28087333895879846
0.40044052863436125,-0.2646045522919251
0.43381057268722467,-0.26522704026234983
0.46718061674008815,-0.26880513611035106
0.5005506607929515,-0.2623171020859586
0.533920704845815,-0.24032823617336915
0.5672907488986785,-0.206740029073546
0.6006607929515418,-0.17122737656689133
0.6340308370044053,-0.14284306565570096
0.6674008810572687,-0.12431650584843448
0.7007709251101322,-0.10952300022289678
0.7341409691629956,-0.08458044860606298
0.767511013215859,-0.0315585400516777
0.8008810572687225,0.06643311237997379
0.834251101321586,0.21949928137440453
0.8676211453744493,0.4251376095095601
0.9009911894273128,0.6637184079298154
0.9343612334801763,0.8977609208791167
0.9677312775330397,1.0775600223982191
1.001101321585903,1.1537337297708925
1.0344713656387665,1.0936862939173229
1.06784140969163,0.8957425458982121
1.1012114537444935,0.5940962847919357
1.134581497797357,0.2507943121646773
1.1679515418502202,-0.06336051366575336
1.2013215859030837,-0.291720609912649
1.2346916299559472,-0.409136287982665
1.2680616740088106,-0.42678736208905366
1.3014317180616741,-0.3833261720225665
1.3348017621145374,-0.32720991866655436
1.3681718061674009,-0.2983965527048992
1.4015418502202643,-0.3167300593384799
1.4349118942731278,-0.3802170927200179
1.4682819383259913,-0.4714236419370262
1.5016519823788548,-0.5669626847963813
1.535022026431718,-0.6448984358867316
1.5683920704845815,-0.6874945884913704
1.601762114537445,-0.6802791303549961
1.6351321585903085,-0.6107177450585421
1.668502202643172,-0.46962426224501863
1.7018722466960352,-0.256136852848741
1.7352422907488987,0.01578510470530497
1.7686123348017622,0.31317957044996325
1.8019823788546256,0.5859132025951401
1.8353524229074891,0.776232093931178
1.8687224669603526,0.8345553160793325
1.9020925110132159,0.7367191661584652
1.9354625550660793,0.49587529793114504
1.9688325991189428,0.1629907228343563
2.002202643171806,-0.18612592088916993
2.0355726872246698,-0.473469748094713
2.068942731277533,-0.6424859775083479
2.1023127753303967,-0.6730852269082277
2.13568281938326,-0.5822499806781196
2.1690528634361232,-0.41122529871077995
2.202422907488987,-0.20634417148065906
2.23579295154185,-0.002724825805440401
2.269162995594714,0.18249811136034472
2.302533039647577,0.34637833039700044
2.3359030837004404,0.4902654041219468
2.369273127753304,0.6107632875915028
2.4026431718061674,0.6968935292785179
2.436013215859031,0.7343985581846405
2.4693832599118943,0.7136543042618655
2.5027533039647576,0.6357938464904401
2.5361233480176213,0.5132983332504815
2.5694933920704845,0.36514545276908256
2.6028634361233483,0.2099339708756229
2.6362334801762115,0.06104929479152482
2.6696035242290748,-0.07426156210713351
2.7029735682819385,-0.19319014435946708
2.7363436123348017,-0.2959751012481894
2.7697136563876654,-0.3867012103062314
2.8030837004405287,-0.4753161249254795
2.8364537444933924,-0.5775155952310654
2.8698237885462556,-0.7092860614165613
2.903193832599119,-0.8759252538057706
2.9365638766519826,-1.0596875128378305
2.969933920704846,-1.2131490965240264
3.0033039647577096,-1.2647786446156315
3.036674008810573,-1.138661806244451
3.070044052863436,-0.7836600306951389
3.1034140969162998,-0.2016151753661271
3.136784140969163,0.5375313044739015
3.1701541850220267,1.3024023853722095
3.20352422907489,1.9297843433936126
3.2368942731277532,2.2695587538323783
3.270264317180617,2.230858545074936
3.30363436123348,1.8136490662833176
3.337004405286344,1.113858967226749
3.370374449339207,0.29862524143345404
3.4037444933920704,-0.441431162994799
3.437114537444934,-0.9472697875944467
3.4704845814977974,-1.1348046157117553
3.503854625550661,-1.0117763004619238
3.5372246696035243,-0.6642388883477713
3.5705947136563876,-0.22155853928075656
3.6039647577092513,0.1833422978785161
3.6373348017621145,0.4433422700840919
3.6707048458149782,0.4905139234700127
3.7040748898678415,0.29870064777219263
3.737444933920705,-0.11536373145816708
3.7708149779735685,-0.6880351260235592
3.8041850220264317,-1.3072308136124793
3.8375550660792954,-1.8247569808268007
3.8709251101321587,-2.0898001509618713
3.9042951541850224,-1.9978296968540978
3.9376651982378856,-1.5353628923292153
3.971035242290749,-0.796713079911321
4.004405286343612,0.04103673516084155
4.037775330396476,0.7783148633387186
4.0711453744493395,1.2631507829807005
4.104515418502203,1.4395823756640933
4.137885462555066,1.3537210001214106
4.171255506607929,1.1183404992504673
4.2046255506607935,0.8567549748173253
4.237995594713657,0.654312793263994
4.27136563876652,0.5381218574728944
4.304735682819383,0.4883972142975757
4.3381057268722465,0.46837481695507244
4.371475770925111,0.4526836244090267
4.404845814977974,0.438877060712324
4.438215859030837,0.43923730487631424
4.4715859030837,0.4621276665085414
4.504955947136564,0.49729710250482106
4.538325991189428,0.5154892399820095
4.571696035242291,0.48269220721781514
4.605066079295154,0.3797653912247765
4.638436123348018,0.2147678312516574
4.671806167400881,0.019957447196538095
4.705176211453745,-0.16493730761986836
4.738546255506608,-0.31305211086400686
4.7719162995594715,-0.42211816792996415
4.805286343612335,-0.5108961031662819
4.838656387665198,-0.6030938676493203
4.872026431718062,-0.7090033649601378
4.905396475770925,-0.8160747306308529
4.938766519823789,-0.8939127684607293
4.972136563876652,-0.9105201225544511
5.005506607929515,-0.8502652093788706
5.038876651982379,-0.7235008186643366
5.072246696035243,-0.5628803220487952
5.105616740088106,-0.40890812695704304
5.138986784140969,-0.2927962847156703
5.172356828193832,-0.22542467352482615
5.2057268722466965,-0.1971433278036934
5.23909691629956,-0.18693425381439943
5.272466960352423,-0.174645460468385
5.305837004405286,-0.14915117619114082
5.3392070484581495,-0.10856027162058964
5.372577092511014,-0.0538642937415172
5.405947136563877,0.018464267632402828
5.43931718061674,0.11884159452309158
5.4726872246696034,0.25912577592494496
5.506057268722468,0.44180534589019527
5.539427312775331,0.6503424500438049
5.572797356828194,0.8475680518695832
5.606167400881057,0.985247159368619
5.639537444933921,1.0219015523003605
5.672907488986785,0.9409565480790545
5.706277533039648,0.7601152761318
5.739647577092511,0.5264660555015291
5.7730176211453745,0.29862913145381226
5.806387665198238,0.12387658939949815
5.839757709251102,0.02104350103976393
5.873127753303965,-0.02265678223497328
5.9064977973568284,-0.03994390804858863
5.939867841409692,-0.06371090253321689
5.973237885462555,-0.11000413778859716
6.006607929515419,-0.1724829843756511
6.039977973568282,-0.23019767470192992
6.073348017621146,-0.2628846654167612
6.106718061674009,-0.26407196726229665
6.140088105726872,-0.24427928882290723
6.173458149779736,-0.2230900535196408
6.2068281938325995,-0.21579917444577923
6.240198237885463,-0.2234768394202471
6.273568281938326,-0.232830547147164
6.306938325991189,-0.2258813301733073
6.3403083700440535,-0.19325595601739667
6.373678414096917,-0.14265959951091597
6.40704845814978,-0.0970115317112941
6.440418502202643,-0.08275159744902816
6.4737885462555065,-0.1142789159253778
6.507158590308371,-0.18252645542172202
6.540528634361234,-0.25377168980876885
6.573898678414097,-0.28036405042242724
6.60726872246696,-0.22014608732773658
6.640638766519824,-0.05754818166626577
6.674008810572688,0.18234971490001756
6.707378854625551,0.4343541210968032
6.740748898678414,0.6114811255355412
6.774118942731278,0.6371896756263751
6.807488986784141,0.4801147338443239
6.840859030837005,0.17562262628100755
6.874229074889868,-0.17893095576342835
6.9075991189427315,-0.4581743029479134
6.940969162995595,-0.5606713537341682
6.974339207048458,-0.4564770093615838
7.007709251101322,-0.2066833154984649
7.041079295154185,0.057741119443215604
7.074449339207049,0.19176869872937916
7.107819383259912,0.10328176007156556
7.141189427312775,-0.1993369953216142
7.174559471365639,-0.6020196073829829
7.207929515418503,-0.9265483633717557
7.241299559471366,-1.0022005095120314
7.274669603524229,-0.7376302333359697
7.308039647577092,-0.1632626525954661
7.3414096916299565,0.5728279803994889
7.37477973568282,1.2536545145289775
7.408149779735683,1.66778568618964
7.441519823788546,1.6819160601211527
7.47488986784141,1.2857328553908038
7.508259911894274,0.5941340254734928
7.541629955947137,-0.19250299821390976
7.575,-0.8544641430251586
7.608370044052863,-1.2211426963888656
7.641740088105728,-1.2186711946888427
7.675110132158591,-0.883380589141846
7.708480176211454,-0.3412036466618099
7.741850220264317,0.23608619086699328
7.775220264317181,0.6825939053855751
7.808590308370045,0.8840908947873677
7.841960352422908,0.8075015694024427
7.875330396475771,0.5072223628290884
7.9087004405286345,0.10565075804542724
7.942070484581498,-0.24803601798367594
7.975440528634362,-0.4285988760382015
8.008810572687224,-0.37717066845099156
8.042180616740088,-0.1192663259254176
8.075550660792953,0.24835949832434231
8.108920704845815,0.5959013251322192
8.142290748898679,0.8077959410495773
8.175660792951541,0.8207542172979665
8.209030837004406,0.6394327731690108
8.24240088105727,0.32642613570880763
8.275770925110132,-0.026885571889084445
8.309140969162996,-0.3358396775162607
8.342511013215859,-0.5506895751784029
8.375881057268723,-0.668057767636232
8.409251101321587,-0.7233964731859063
8.44262114537445,-0.7693931312751683
8.475991189427313,-0.8497783373626511
8.509361233480176,-0.9785882816800175
8.54273127753304,-1.1320246338501154
8.576101321585904,-1.2551846935200317
8.609471365638766,-1.2808761796796617
8.64284140969163,-1.153896531333043
8.676211453744493,-0.8524669442481065
8.709581497797357,-0.39941480377771615
8.742951541850221,0.1409507496547042
8.776321585903084,0.6794480789424685
8.809691629955948,1.1265247624196524
8.84306167400881,1.4162448455765533
8.876431718061674,1.5217508213719582
8.909801762114538,1.4577232605881618
8.9431718061674,1.2704711679118732
8.976541850220265,1.0206274878241022
9.009911894273127,0.765155682043953
9.043281938325991,0.5441896017039729
9.076651982378856,0.3753514136509778
9.110022026431718,0.2553378682309275
9.143392070484582,0.16677743845236112
9.176762114537445,0.08764975864850737
9.210132158590309,0.00045038692030151446
9.243502202643173,-0.10146485265352888
9.276872246696035,-0.2121642500120803
9.3102422907489,-0.3164543341079299
9.343612334801762,-0.39683797183087843
9.376982378854626,-0.44126364790671824
9.41035242290749,-0.4484233147457777
9.443722466960352,-0.4283838421140293
9.477092511013216,-0.3984255740237123
9.510462555066079,-0.37615038655281574
9.543832599118943,-0.37310338507439367
9.577202643171807,-0.39167867512330556
9.61057268722467,-0.42617824344971794
9.643942731277534,-0.46661810085527033
9.677312775330396,-0.5025561212755514
9.71068281938326,-0.5246605212937713
9.744052863436124,-0.5236682631439543
9.777422907488987,-0.4885228510247958
9.81079295154185,-0.40635509713443396
9.844162995594713,-0.26591366794024457
9.877533039647577,-0.0636968550124874
9.910903083700441,0.19011083209620327
9.944273127753304,0.4693710588446571
9.977643171806168,0.7355104358168503
10.01101321585903,0.9464131779257758
10.044383259911895,1.0678739881027106
10.077753303964759,1.0835893467239108
10.111123348017621,1.0000270232108281
10.144493392070485,0.844178369622961
10.177863436123348,0.6545663976878333
10.211233480176212,0.4682694663751947
10.244603524229076,0.3084251095132397
10.277973568281938,0.17703604195549832
10.311343612334802,0.05648381669143416
10.344713656387665,-0.07991806271963274
10.378083700440529,-0.2518793231860912
10.411453744493393,-0.4573436767943724
10.444823788546255,-0.6665428739664793
10.47819383259912,-0.8298394077269285
10.511563876651982,-0.8984590329781579
10.544933920704846,-0.850300050720175
10.57830396475771,-0.7084585820316425
10.611674008810573,-0.5410360468743555
10.645044052863437,-0.4380132152085887
10.678414096916299,-0.4719569626176516
10.711784140969163,-0.6589371794351945
10.745154185022027,-0.9389314256935929
10.77852422907489,-1.1885521547839346
10.811894273127754,-1.265062045644495
10.845264317180618,-1.065405030249952
10.87863436123348,-0.5748896844618688
10.912004405286345,0.11755951040656155
10.945374449339207,0.8470391615538703
10.978744493392071,1.433450620642056
11.012114537444935,1.7499837120223645
11.045484581497798,1.769518088832756
11.078854625550662,1.5687225258084392
11.112224669603524,1.2887641113703534
11.145594713656388,1.0711096686025874
11.178964757709252,0.9975525487992092
11.212334801762115,1.0604430474452542
11.245704845814979,1.1741143146232396
11.279074889867841,1.2193450458258066
11.312444933920705,1.0986760375748021
11.34581497797357,0.7776814069433671
11.379185022026432,0.29611240043830256
11.412555066079296,-0.25213417392573245
11.445925110132158,-0.7577184258792351
11.479295154185023,-1.134746139603138
11.512665198237887,-1.344665373330223
11.546035242290749,-1.399524889703451
11.579405286343613,-1.3488413792055511
11.612775330396476,-1.259295679970115
11.64614537444934,-1.1949606654441167
11.679515418502204,-1.2007698846957586
11.712885462555066,-1.2886814423401758
11.74625550660793,-1.4275871739461674
11.779625550660793,-1.5425972732935689
11.812995594713657,-1.5312913103798702
11.846365638766521,-1.299248198308836
11.879735682819383,-0.8055373790185462
11.913105726872248,-0.09783794040096437
11.94647577092511,0.6847589155153665
11.979845814977974,1.3512173180237508
12.013215859030838,1.7291241868693228
12.0465859030837,1.7364693676146004
12.079955947136565,1.4201604075349203
12.113325991189427,0.9405038361766204
12.146696035242291,0.506410838742444
12.180066079295155,0.2899936696240681
12.213436123348018,0.35897287184669113
12.246806167400882,0.6561625187044843
12.280176211453744,1.0324325669065613
12.313546255506608,1.3148760125155021
12.346916299559473,1.3775725181843546
12.380286343612335,1.184478523472984
12.413656387665199,0.7900150729362988
12.447026431718061,0.3036392768381851
12.480396475770926,-0.16043921722557208
12.51376651982379,-0.5244738583850082
12.547136563876652,-0.7641111916298914
12.580506607929516,-0.899738749662029
12.613876651982379,-0.9723937588800732
12.647246696035243,-1.0184791555084527
12.680616740088107,-1.0542227162942253
12.71398678414097,-1.0736580275686014
12.747356828193833,-1.0572613084995846
12.780726872246696,-0.9849445917347707
12.81409691629956,-0.8471962863145163
12.847466960352424,-0.6505093505112208
12.880837004405286,-0.41622983893082344
12.91420704845815,-0.17438506297505246
12.947577092511013,0.04470334559442746
12.980947136563877,0.21820442672227228
13.014317180616741,0.33595471012997913
13.047687224669604,0.40203868814701815
13.081057268722468,0.43260603192937963
13.11442731277533,0.4504249855707817
13.147797356828194,0.47743550823902353
13.181167400881058,0.5273970770119829
13.21453744493392,0.6011219934129675
13.247907488986785,0.6861603342240018
13.281277533039647,0.7611131289430751
13.314647577092511,0.8027493290649166
13.348017621145376,0.7929391724448435
13.381387665198238,0.7228323113904777
13.414757709251102,0.5934380789584183
13.448127753303964,0.4136587976303934
13.481497797356829,0.1976705349074713
13.514867841409693,-0.037044254636274664
13.548237885462555,-0.2710306753230031
13.58160792951542,-0.4844523088902546
13.614977973568282,-0.6595521821574415
13.648348017621146,-0.7835188676293893
13.68171806167401,-0.8504963261504759
13.715088105726872,-0.8618079859699277
13.748458149779736,-0.8247113505831952
13.781828193832599,-0.7509778520121841
13.815198237885463,-0.6562083213684041
13.848568281938327,-0.5591839314449549
13.88193832599119,-0.47923075589809366
13.915308370044054,-0.4302512969107281
13.948678414096916,-0.41297941100471725
13.98204845814978,-0.41019690517689994
14.015418502202644,-0.39013290350850544
14.048788546255507,-0.31947047307453263
14.08215859030837,-0.18095049731914092
14.115528634361233,0.014197321679178771
14.148898678414097,0.22780649095052316
14.182268722466961,0.4119010287166632
14.215638766519824,0.5334390894603649
14.249008810572688,0.5929311638967213
14.28237885462555,0.6253991455178192
14.315748898678414,0.6816540275562784
14.349118942731279,0.7992330229662377
14.382488986784141,0.9786805337427091
14.415859030837005,1.178264725868855
14.449229074889868,1.3302132718645736
14.482599118942732,1.370054162585284
14.515969162995596,1.2642217691925357
14.549339207048458,1.022972172451124
14.582709251101322,0.6941057123537425
14.616079295154185,0.34276929920544463
14.649449339207049,0.028322530983956852
14.682819383259913,-0.2115577641170626
14.716189427312775,-0.3652085930320093
14.74955947136564,-0.44222294267184953
14.782929515418502,-0.46577538634011045
14.816299559471366,-0.4670972474667918
14.84966960352423,-0.4827110052665593
14.883039647577093,-0.5507836198942485
14.916409691629957,-0.702315567486256
14.94977973568282,-0.9468346922233837
14.983149779735683,-1.2584498857759636
15.016519823788547,-1.5720104507905226
15.04988986784141,-1.7969201043546514
15.083259911894274,-1.8477037355952552
15.116629955947138,-1.6799681896753778
15.15,-1.314408129749101
15.183370044052865,-0.8346788471384498
15.216740088105727,-0.35689513333465644
15.250110132158591,0.016675992342173065
15.283480176211455,0.2378597831983962
15.316850220264318,0.32703025314209483
15.350220264317182,0.3551742982284637
15.383590308370044,0.4038991966952028
15.416960352422908,0.5247262810061731
15.450330396475772,0.7178812737099427
15.483700440528635,0.9388337444389826
15.517070484581499,1.1257559714093297
15.550440528634361,1.2315978666813927
15.583810572687225,1.2448547208785423
15.61718061674009,1.191260042014325
15.650550660792952,1.1186738112481347
15.683920704845816,1.0739870048151334
15.717290748898678,1.0819960676010232
15.750660792951543,1.1333902404488774
15.784030837004407,1.1849729495060306
15.817400881057269,1.1718061188989533
15.850770925110133,1.028304164368284
15.884140969162996,0.7128618238755459
15.91751101321586,0.22844958572438506
15.950881057268724,-0.3690000988316676
15.984251101321586,-0.9800400380828287
16.01762114537445,-1.4885243868027755
16.050991189427315,-1.7977142390888212
16.084361233480177,-1.8622686936602892
16.11773127753304,-1.7030375978009296
16.151101321585905,-1.398057175083948
16.184471365638768,-1.0529219349193273
16.21784140969163,-0.7621855038704853
16.251211453744492,-0.576905484647375
16.284581497797358,-0.4906859935402993
16.31795154185022,-0.44900979913978617
16.351321585903083,-0.3774047411587595
16.38469162995595,-0.21660968175335132
16.41806167400881,0.04977521354845115
16.451431718061674,0.3864861417349258
16.48480176211454,0.7200083830957517
16.518171806167402,0.9680345083752538
16.551541850220264,1.0719111451950565
16.584911894273127,1.0180708371104705
16.618281938325993,0.8399716682063394
16.651651982378855,0.60132642051476
16.685022026431717,0.36972921385268365
16.718392070484583,0.19311169028393496
16.751762114537446,0.0885114136764024
16.785132158590308,0.045502376729845674
16.818502202643174,0.039411638189255506
16.851872246696036,0.04582118815239512
16.8852422907489,0.049163720495500454
16.91861233480176,0.04300015179440463
16.951982378854627,0.02470985903678312
16.98535242290749,-0.010026390039628161
17.01872246696035,-0.06853085651082327
17.052092511013218,-0.1573495509446707
17.08546255506608,-0.276271109934382
17.118832599118942,-0.4146746448460914
17.152202643171808,-0.5533689518184856
17.18557268722467,-0.6716398190465936
17.218942731277533,-0.7558462723811312
17.2523127753304,-0.8046306590180892
17.28568281938326,-0.827384199602897
17.319052863436124,-0.8361916587413221
17.352422907488986,-0.8351936559096437
17.385792951541852,-0.8132331919272932
