Frequency (Hz),Amplitude
0.0,0.7723333338682097
0.019867549668874173,0.7722256159916715
0.039735099337748346,0.771902817135496
0.059602649006622516,0.7713660012662897
0.07947019867549669,0.7706169404757806
0.09933774834437085,0.7696581131788747
0.11920529801324503,0.7684927015444936
0.13907284768211922,0.7671245881124824
0.15894039735099338,0.7655583515359723
0.17880794701986755,0.7637992613744228
0.1986754966887417,0.7618532718478811
0.2185430463576159,0.7597270144482587
0.23841059602649006,0.7574277892878778
0.2582781456953642,0.7549635550502616
0.27814569536423844,0.7523429173921646
0.2980132450331126,0.7495751156303613
0.31788079470198677,0.7466700075312039
0.33774834437086093,0.7436380520062231
0.3576158940397351,0.7404902895033005
0.3774834437086093,0.7372383198707013
0.3973509933774834,0.7338942774612196
0.4172185430463576,0.7304708032365359
0.4370860927152318,0.7269810136284115
0.45695364238410596,0.7234384659145054
0.4768211920529801,0.7198571198734239
0.49668874172185434,0.716251295497225
0.5165562913907285,0.7126356265609339
0.5364238410596026,0.7090250098791014
0.5562913907284769,0.7054345501197136
0.5761589403973509,0.7018795000971697
0.5960264900662252,0.6983751965288946
0.6158940397350993,0.6949369913150646
0.6357615894039735,0.6915801784877591
0.6556291390728477,0.6883199170741059
0.6754966887417219,0.6851711502265018
0.695364238410596,0.6821485210898363
0.7152317880794702,0.6792662859983523
0.7350993377483444,0.6765382257198612
0.7549668874172186,0.6739775555885296
0.7748344370860927,0.6715968354844027
0.7947019867549668,0.6694078807233338
0.8145695364238411,0.6674216750091797
0.8344370860927152,0.6656482866658658
0.8543046357615894,0.6640967894048626
0.8741721854304636,0.6627751888895413
0.8940397350993378,0.6616903563280173
0.9139072847682119,0.6608479702594783
0.9337748344370861,0.6602524675939837
0.9536423841059603,0.6599070048252871
0.9735099337748344,0.6598134301629978
0.9933774834437087,0.6599722671298818
1.0132450331125828,0.6603827099492743
1.033112582781457,0.6610426308145048
1.0529801324503312,0.6619485988955133
1.0728476821192052,0.6630959107066632
1.0927152317880795,0.6644786312429523
1.1125827814569538,0.6660896450968183
1.1324503311258278,0.6679207166015736
1.1523178807947019,0.6699625579145684
1.1721854304635762,0.6722049038570649
1.1920529801324504,0.6746365922692074
1.2119205298013245,0.6772456486170675
1.2317880794701985,0.6800193736021323
1.2516556291390728,0.6829444325681185
1.271523178807947,0.6860069455715332
1.2913907284768211,0.6891925770743312
1.3112582781456954,0.692486624326371
1.3311258278145695,0.6958741036234567
1.3509933774834437,0.6993398337514715
1.370860927152318,0.7028685160517549
1.390728476821192,0.7064448106645327
1.410596026490066,0.7100534086224448
1.4304635761589404,0.7136790995724477
1.4503311258278146,0.7173068350001869
1.4701986754966887,0.7209217869150186
1.4900662251655628,0.7245094020261731
1.5099337748344372,0.7280554515006581
1.5298013245033113,0.7315460764423393
1.5496688741721854,0.7349678292697142
1.5695364238410596,0.7383077111980582
1.5894039735099337,0.7415532060512945
1.609271523178808,0.7446923106407615
1.6291390728476822,0.7477135619536233
1.6490066225165563,0.7506060613935814
1.6688741721854303,0.7533594963123292
1.6887417218543048,0.755964159062094
1.7086092715231789,0.7584109637891965
1.728476821192053,0.7606914611758204
1.7483443708609272,0.762797851323209
1.7682119205298013,0.7647229949544619
1.7880794701986755,0.7664604230997428
1.8079470198675496,0.7680043454108645
1.8278145695364238,0.7693496572365465
1.847682119205298,0.7704919455741411
1.8675496688741722,0.7714274939983792
1.8874172185430464,0.7721532866527918
1.9072847682119205,0.7726670113749972
1.9271523178807946,0.7729670620129175
1.9470198675496688,0.7730525399751089
1.9668874172185429,0.7729232550450468
1.9867549668874174,0.7725797254756613
2.0066225165562916,0.7720231773674576
2.0264900662251657,0.7712555433201469
2.0463576158940397,0.7702794603347942
2.066225165562914,0.7690982669298103
2.086092715231788,0.7677159994208673
2.1059602649006623,0.7661373873007369
2.1258278145695364,0.7643678476410412
2.1456953642384105,0.7624134784233092
2.165562913907285,0.7602810506919582
2.185430463576159,0.7579779994066144
2.205298013245033,0.7555124128558766
2.2251655629139075,0.752893020479202
2.2450331125827816,0.7501291789283056
2.2649006622516556,0.747230856184558
2.2847682119205297,0.7442086135347837
2.3046357615894038,0.7410735851948274
2.324503311258278,0.7378374553591385
2.3443708609271523,0.7345124324456508
2.364238410596027,0.7311112202995222
2.384105960264901,0.7276469861173903
2.403973509933775,0.7241333248569022
2.423841059602649,0.7205842199049652
2.443708609271523,0.7170139997943055
2.463576158940397,0.7134372907813449
2.4834437086092715,0.7098689651317025
2.5033112582781456,0.7063240850024219
2.52317880794702,0.7028178418638547
2.543046357615894,0.6993654914694888
2.562913907284768,0.6959822844591844
2.5827814569536423,0.692683392769338
2.6026490066225163,0.6894838321234031
2.622516556291391,0.686398380984505
2.642384105960265,0.6834414964683564
2.662251655629139,0.6806272278355904
2.6821192052980134,0.6779691283046898
2.7019867549668874,0.6754801660459009
2.7218543046357615,0.6731726353281245
2.741721854304636,0.6710580688890051
2.76158940397351,0.6691471526791513
2.781456953642384,0.6674496441879985
2.801324503311258,0.6659742955875043
2.821192052980132,0.6647287829261204
2.8410596026490067,0.663719642566539
2.8609271523178808,0.6629522159852284
2.8807947019867552,0.6624306039398731
2.9006622516556293,0.6621576308644654
2.9205298013245033,0.6621348201752876
2.9403973509933774,0.6623623809692069
2.9602649006622515,0.6628392063761369
2.9801324503311255,0.6635628835982583
3.0,0.6645297154376801
3.0198675496688745,0.6657347528912536
3.0397350993377485,0.6671718381836726
3.0596026490066226,0.6688336574258202
3.0794701986754967,0.6707118019299294
3.0993377483443707,0.67279683709149
3.119205298013245,0.6750783776617637
3.1390728476821192,0.6775451681860323
3.1589403973509933,0.6801851673689048
3.1788079470198674,0.6829856351482811
3.198675496688742,0.6859332213085959
3.218543046357616,0.6890140545383894
3.23841059602649,0.6922138309311388
3.2582781456953644,0.6955179010366165
3.2781456953642385,0.6989113546874827
3.2980132450331126,0.7023791029476381
3.3178807947019866,0.705905956650257
3.3377483443708607,0.7094767011114707
3.3576158940397347,0.7130761667165383
3.3774834437086096,0.7166892951775421
3.3973509933774837,0.7203012013531332
3.4172185430463577,0.7238972306013529
3.437086092715232,0.7274630117045778
3.456953642384106,0.7309845054633237
3.47682119205298,0.7344480491009439
3.4966887417218544,0.7378403966572371
3.5165562913907285,0.7411487555750221
3.5364238410596025,0.7443608197020637
3.556291390728477,0.7474647989406485
3.576158940397351,0.7504494457827302
3.596026490066225,0.7533040789667389
3.615894039735099,0.7560186044884674
3.6357615894039736,0.7585835341893861
3.6556291390728477,0.7609900021358564
3.6754966887417218,0.7632297789895306
3.695364238410596,0.765295284555705
3.7152317880794703,0.7671795986815052
3.7350993377483444,0.7688764706604839
3.754966887417219,0.7703803272849921
3.774834437086093,0.7716862796717688
3.794701986754967,0.7727901289715206
3.814569536423841,0.7736883710578932
3.834437086092715,0.7743782002765889
3.854304635761589,0.7748575123214003
3.8741721854304636,0.7751249062895712
3.8940397350993377,0.7751796859555912
3.9139072847682117,0.7750218602889162
3.9337748344370858,0.7746521432279896
3.9536423841059607,0.7740719527097903
3.9735099337748347,0.7732834089411155
3.993377483443709,0.7722893318844919
4.013245033112583,0.7710932379186098
4.033112582781457,0.7696993356194485
4.052980132450331,0.7681125205946703
4.072847682119205,0.7663383692899117
4.0927152317880795,0.7643831316711572
4.112582781456953,0.762253722673085
4.132450331125828,0.7599577122882957
4.152317880794702,0.7575033141577046
4.172185430463576,0.7548993725075037
4.19205298013245,0.7521553472637853
4.211920529801325,0.7492812971619209
4.231788079470199,0.7462878606550132
4.251655629139073,0.7431862344142407
4.271523178807947,0.7399881492045314
4.291390728476821,0.736705842911922
4.311258278145695,0.7333520304957607
4.33112582781457,0.7299398706395082
4.3509933774834435,0.7264829288796457
4.370860927152318,0.7229951370042772
4.390728476821192,0.7194907485320357
4.410596026490066,0.7159842901088371
4.43046357615894,0.7124905086966055
4.450331125827815,0.7090243144738627
4.470198675496689,0.7056007194248715
4.490066225165563,0.702234771661846
4.509933774834438,0.6989414856030699
4.529801324503311,0.6957357682192696
4.549668874172186,0.6926323416593277
4.569536423841059,0.6896456626735726
4.589403973509934,0.6867898393655916
4.6092715231788075,0.6840785459196512
4.629139072847682,0.6815249360660396
4.649006622516556,0.6791415561573492
4.66887417218543,0.676940258830007
4.688741721854305,0.6749321183123518
4.708609271523179,0.6731273485082337
4.728476821192054,0.671535225028768
4.748344370860927,0.6701640123601976
4.768211920529802,0.6690208973392425
4.788079470198675,0.6681119300573983
4.80794701986755,0.6674419732303309
4.827814569536423,0.6670146609500335
4.847682119205298,0.6668323675872826
4.867549668874172,0.6668961874347434
4.887417218543046,0.6672059254827949
4.9072847682119205,0.667760099507065
4.927152317880794,0.6685559534271398
4.947019867549669,0.6695894816779054
4.966887417218543,0.6708554641264641
4.986754966887418,0.6723475108761778
5.006622516556291,0.6740581161317691
5.026490066225166,0.6759787201602699
5.04635761589404,0.6780997782763835
5.066225165562914,0.6804108357082864
5.086092715231788,0.682900607162445
5.105960264900662,0.6855570599015962
5.125827814569536,0.6883674991759624
5.14569536423841,0.6913186549010573
5.1655629139072845,0.6943967685503388
5.185430463576159,0.697587679324171
5.205298013245033,0.7008769087614816
5.225165562913908,0.7042497430734963
5.245033112582782,0.7076913125948623
5.264900662251656,0.7111866678626355
5.28476821192053,0.7147208519445081
5.304635761589404,0.7182789687419487
5.324503311258278,0.721846247089309
5.344370860927152,0.7254081005553317
5.364238410596027,0.7289501829280849
5.3841059602649,0.7324584394278728
5.403973509933775,0.7359191537454096
5.4238410596026485,0.7393189910448316
5.443708609271523,0.742645037103924
5.463576158940397,0.7458848337878575
5.483443708609272,0.7490264110690605
5.503311258278146,0.7520583158153374
5.52317880794702,0.7549696375721999
5.543046357615895,0.7577500315642481
5.562913907284768,0.7603897391358202
5.582781456953643,0.7628796058428613
5.602649006622516,0.7652110973978872
5.622516556291391,0.7673763136575897
5.642384105960264,0.7693680008294996
5.662251655629139,0.7711795620595149
5.682119205298013,0.7728050665480122
5.701986754966887,0.7742392573267604
5.7218543046357615,0.7754775578144315
5.741721854304636,0.776516077253485
5.7615894039735105,0.7773516151167367
5.781456953642384,0.7779816645577373
5.801324503311259,0.7784044149650331
5.821192052980132,0.7786187536668886
5.841059602649007,0.7786242668194636
5.860927152317881,0.7784212394984209
5.880794701986755,0.7780106550008787
5.900662251655629,0.7773941933515184
5.920529801324503,0.7765742289940648
5.940397350993377,0.7755538276358978
5.960264900662251,0.7743367422010258
5.980132450331126,0.7729274078329043
6.0,0.7713309358754662
6.0198675496688745,0.7695531067470257
6.039735099337749,0.7676003616079089
6.059602649006623,0.7654797927087261
6.079470198675497,0.7631991322923835
6.099337748344371,0.760766739908966
6.119205298013245,0.7581915879891469
6.139072847682119,0.7554832455090121
6.158940397350993,0.7526518595666922
6.178807947019867,0.7497081346810486
6.198675496688741,0.7466633096131733
6.218543046357616,0.7435291315050492
6.23841059602649,0.7403178271261962
6.258278145695365,0.7370420710190165
6.2781456953642385,0.7337149503384495
6.298013245033113,0.7303499261914698
6.317880794701987,0.7269607912984284
6.337748344370861,0.7235616238218013
6.357615894039735,0.7201667372396633
6.377483443708609,0.716790626181649
6.397350993377484,0.7134479081952594
6.417218543046357,0.7101532614702927
6.437086092715232,0.7069213586190571
6.456953642384105,0.7037667966897786
6.47682119205298,0.700704023679267
6.496688741721854,0.6977472619074067
6.516556291390729,0.6949104287187008
6.5364238410596025,0.6922070550818267
6.556291390728477,0.6896502027653353
6.5761589403973515,0.687252380870662
6.596026490066225,0.6850254626007409
6.6158940397351,0.6829806032273557
6.635761589403973,0.6811281602898054
6.655629139072848,0.679477617106486
6.675496688741721,0.6780375107055461
6.695364238410596,0.6768153652780903
6.715231788079469,0.6758176322238986
6.735099337748344,0.675049637795745
6.754966887417219,0.674515539252016
6.774834437086093,0.6742182903027082
6.794701986754967,0.6741596164812819
6.814569536423841,0.6743400009012871
6.8344370860927155,0.6747586806661686
6.854304635761589,0.6754136540005988
6.874172185430464,0.6763016979692752
6.894039735099337,0.6774183964513931
6.913907284768212,0.678758177853064
6.933774834437086,0.6803143618730549
6.95364238410596,0.6820792144926103
6.973509933774834,0.6840440102449692
6.993377483443709,0.6861991007337074
7.013245033112583,0.6885339883153191
7.033112582781457,0.6910374038378391
7.052980132450331,0.6936973873340886
7.072847682119205,0.6965013706005073
7.0927152317880795,0.699436260648876
7.112582781456954,0.7024885230931786
7.132450331125828,0.7056442646228899
7.152317880794702,0.7088893138134518
7.172185430463576,0.7122092996298314
7.19205298013245,0.7155897270854885
7.211920529801324,0.7190160496245966
7.231788079470198,0.7224737378960039
7.251655629139073,0.7259483446814681
7.271523178807947,0.7294255658267259
7.291390728476822,0.732891297100293
7.311258278145695,0.7363316869717911
7.33112582781457,0.7397331853580286
7.3509933774834435,0.7430825884320209
7.370860927152318,0.7463670796276897
7.390728476821192,0.7495742670018524
7.410596026490066,0.7526922171362139
7.430463576158941,0.7557094857763285
7.450331125827814,0.7586151454124713
7.470198675496689,0.7613988100105945
7.490066225165562,0.7640506571001042
7.509933774834438,0.7665614474203406
7.52980132450331,0.7689225423204236
7.549668874172186,0.7711259190969381
7.569536423841059,0.7731641844428456
7.589403973509934,0.7750305861685017
7.6092715231788075,0.7767190233421204
7.629139072847682,0.7782240549835516
7.649006622516557,0.7795409074308856
7.66887417218543,0.7806654804856361
7.6887417218543055,0.7815943524279236
7.708609271523178,0.7823247839795887
7.728476821192054,0.7828547212792216
7.748344370860927,0.783182797919746
7.768211920529802,0.7833083360863173
7.788079470198675,0.7832313468187087
7.80794701986755,0.7829525294101667
7.827814569536423,0.7824732699415562
7.847682119205298,0.7817956389371425
7.8675496688741715,0.7809223881157499
7.887417218543046,0.779856946198287
7.907284768211921,0.7786034137200561
7.927152317880795,0.7771665567833442
7.9470198675496695,0.7755517996730539
7.966887417218543,0.7737652162451617
7.986754966887418,0.7718135199851077
8.006622516556291,0.7697040526201266
8.026490066225167,0.7674447711574145
8.046357615894038,0.7650442332076268
8.066225165562914,0.7625115804420592
8.086092715231787,0.7598565200212841
8.105960264900663,0.7570893038240312
8.125827814569536,0.7542207052978199
8.14569536423841,0.751261993747788
8.165562913907285,0.7482249058781346
8.185430463576159,0.7451216144018712
8.205298013245034,0.7419646935403005
8.225165562913906,0.7387670812440659
8.245033112582782,0.7355420379840035
8.264900662251655,0.7323031019825673
8.28476821192053,0.7290640407868944
8.304635761589404,0.7258387991220145
8.324503311258278,0.7226414430088095
8.344370860927151,0.7194861001863623
8.364238410596027,0.7163868969412377
8.3841059602649,0.7133578915182038
8.403973509933774,0.7104130043663215
8.42384105960265,0.7075659455601642
8.443708609271523,0.7048301398269603
8.463576158940398,0.7022186497042736
8.483443708609272,0.699744097446915
8.503311258278146,0.6974185863929808
8.52317880794702,0.6952536225841056
8.543046357615895,0.6932600375098776
8.562913907284768,0.6914479129077317
8.582781456953642,0.6898265085936283
8.602649006622515,0.6884041943210364
8.62251655629139,0.6871883866653784
8.642384105960264,0.6861854919035377
8.66225165562914,0.6854008558040572
8.682119205298013,0.6848387211621574
8.701986754966887,0.6845021938064233
8.721854304635762,0.6843932176728564
8.741721854304636,0.6845125593913564
8.76158940397351,0.6848598026634753
8.781456953642383,0.6854333525346353
8.801324503311259,0.6862304494846311
8.821192052980132,0.6872471930834901
8.841059602649008,0.6884785747918732
8.86092715231788,0.6899185193315446
8.880794701986755,0.691559933916978
8.90066225165563,0.6933947645282046
8.920529801324504,0.6954140583189076
8.940397350993377,0.6976080311957121
8.960264900662251,0.6999661395728928
8.980132450331126,0.702477155302202
9.0,0.7051292427962065
9.019867549668875,0.7079100374046046
9.039735099337747,0.7108067241616327
9.059602649006623,0.713806116095687
9.079470198675496,0.7168947313763089
9.099337748344372,0.7200588686638897
9.119205298013245,0.7232846801215862
9.139072847682119,0.7265582416428231
9.158940397350994,0.7298656199393115
9.178807947019868,0.7331929362215146
9.198675496688743,0.7365264262838567
9.218543046357615,0.7398524968798785
9.23841059602649,0.7431577783374983
9.258278145695364,0.7464291734201046
9.27814569536424,0.7496539024868963
9.298013245033111,0.7528195450448169
9.317880794701987,0.7559140778152239
9.33774834437086,0.7589259094625576
9.357615894039736,0.7618439121488755
9.37748344370861,0.7646574500900415
9.397350993377483,0.7673564052947817
9.417218543046358,0.7699312006702542
9.437086092715232,0.7723728206757449
9.456953642384107,0.7746728297012024
9.47682119205298,0.7768233883404253
9.496688741721854,0.7788172677195365
9.516556291390728,0.780647862030913
9.536423841059603,0.7823091994114101
9.556291390728477,0.7837959512913096
9.57615894039735,0.7851034403280653
9.596026490066224,0.7862276470256375
9.6158940397351,0.7871652151276116
9.635761589403973,0.7879134558588381
9.655629139072847,0.788470351077755
9.675496688741722,0.7888345553885203
9.695364238410596,0.7890053972494231
9.715231788079471,0.7889828791016992
9.735099337748345,0.7887676765301009
9.754966887417218,0.7883611364547783
9.774834437086092,0.7877652743414082
9.794701986754967,0.786982770404647
9.814569536423841,0.786016964767937
9.834437086092716,0.7848718515304879
9.854304635761588,0.7835520716806824
9.874172185430464,0.7820629047829023
9.894039735099337,0.7804102593534745
9.913907284768213,0.7786006618297093
9.933774834437086,0.7766412440250067
9.95364238410596,0.7745397289523506
9.973509933774835,0.772304414888671
9.993377483443709,0.7699441575434466
10.013245033112582,0.767468350187377
10.033112582781456,0.7648869015906601
10.052980132450331,0.7622102116164235
10.072847682119205,0.7594491443131693
10.09271523178808,0.7566149983513896
10.112582781456952,0.7537194746544925
10.132450331125828,0.7507746410831323
10.152317880794701,0.7477928940458209
10.172185430463577,0.7447869169278418
10.192052980132452,0.7417696352553438
10.211920529801324,0.7387541685433081
10.2317880794702,0.7357537788137656
10.251655629139073,0.7327818158166047
10.271523178807948,0.7298516590371569
10.29139072847682,0.7269766566345979
10.311258278145695,0.7241700615206897
10.331125827814569,0.7214449648599397
10.350993377483444,0.7188142273481637
10.370860927152318,0.7162904087050384
10.390728476821192,0.7138856958957682
10.410596026490065,0.7116118306750706
10.43046357615894,0.7094800371206686
10.450331125827816,0.707500949889931
10.470198675496688,0.7056845439904245
10.490066225165563,0.7040400668981879
10.509933774834437,0.7025759738852515
10.529801324503312,0.701299867426522
10.549668874172186,0.7002184415445383
10.56953642384106,0.6993374319165946
10.589403973509933,0.6986615725125143
10.609271523178808,0.6981945594530451
10.629139072847682,0.697939022679387
10.649006622516556,0.6978965059072427
10.66887417218543,0.6980674552057373
