Frequency (Hz),Amplitude
0.0,1.0767659510570442
0.01993355481727575,1.077263513037014
0.0398671096345515,1.0787529666221272
0.059800664451827246,1.0812246661278264
0.079734219269103,1.084662704676693
0.09966777408637874,1.0890451612284422
0.11960132890365449,1.0943444331936043
0.13953488372093023,1.1005276425169968
0.159468438538206,1.1075571011112617
0.17940199335548174,1.11539082038905
0.19933554817275748,1.1239830493804182
0.21926910299003324,1.1332848264515119
0.23920265780730898,1.143244530830708
0.25913621262458475,1.1538084218326548
0.27906976744186046,1.1649211556727357
0.29900332225913623,1.1765262719124066
0.318936877076412,1.1885666437212912
0.3388704318936877,1.2009848881641583
0.3588039867109635,1.2137237345344716
0.37873754152823924,1.226726350307864
0.39867109634551495,1.2399366255543272
0.4186046511627907,1.2532994176277885
0.4385382059800665,1.2667607586627534
0.4584717607973422,1.2802680288790802
0.47840531561461797,1.293770098963274
0.49833887043189373,1.307217444895019
0.5182724252491695,1.320562238557654
0.5382059800664452,1.3337584173445758
0.5581395348837209,1.3467617357790762
0.5780730897009968,1.3595298019274566
0.5980066445182725,1.3720221011244347
0.6179401993355482,1.3842000092608016
0.637873754152824,1.396026797617742
0.6578073089700996,1.4074676309781604
0.6777408637873754,1.4184895605080696
0.6976744186046512,1.4290615126839032
0.717607973421927,1.4391542753459714
0.7375415282392027,1.4487404817844436
0.7574750830564785,1.4577945936119532
0.7774086378737541,1.4662928830443556
0.7973421926910299,1.4742134150979098
0.8172757475083057,1.4815360301142952
0.8372093023255814,1.48824232694358
0.8571428571428572,1.494315647047324
0.877076411960133,1.4997410597278054
0.8970099667774087,1.5045053486434792
0.9169435215946844,1.5085969997335151
0.9368770764119602,1.5120061906445856
0.9568106312292359,1.5147247817294314
0.9767441860465116,1.5167463086685586
0.9966777408637875,1.5180659767520535
1.0166112956810631,1.5186806568479294
1.036544850498339,1.518588883075041
1.0564784053156147,1.51779085219207
1.0764119601328903,1.5162884247091875
1.0963455149501662,1.5140851277238072
1.1162790697674418,1.511186159477289
1.1362126245847177,1.5075983956236267
1.1561461794019936,1.5033303971941832
1.176079734219269,1.498392420233313
1.196013289036545,1.4927964270675178
1.2159468438538206,1.4865560991551834
1.2358803986710964,1.4796868514434076
1.255813953488372,1.47220584813214
1.275747508305648,1.4641320197134289
1.2956810631229239,1.4554860811118306
1.3156146179401993,1.4462905507022776
1.3355481727574752,1.4365697699194335
1.3554817275747508,1.4263499230986305
1.3754152823920267,1.4156590570992356
1.3953488372093024,1.404527100156362
1.4152823920265782,1.3929858792827678
1.435215946843854,1.3810691353996176
1.4551495016611296,1.3688125352096088
1.4750830564784054,1.3562536786383423
1.495016611295681,1.3434321004593608
1.514950166112957,1.3303892644857374
1.5348837209302328,1.3171685484580722
1.5548172757475083,1.3038152174898554
1.5747508305647842,1.290376383652477
1.5946843853820598,1.2769009490030525
1.6146179401993357,1.2634395290924447
1.6345514950166113,1.2500443537553418
1.6544850498338872,1.2367691418017293
1.6744186046511629,1.2236689461266446
1.6943521594684385,1.2107999657653188
1.7142857142857144,1.1982193215793495
1.73421926910299,1.185984792606227
1.754152823920266,1.1741545106770328
1.7740863787375416,1.1627866117418444
1.7940199335548175,1.1519388434649245
1.8139534883720931,1.1416681300749045
1.8338870431893688,1.1320300971704977
1.8538205980066447,1.1230785611530514
1.8737541528239203,1.1148649901162835
1.893687707641196,1.1074379452663983
1.9136212624584719,1.100842514134636
1.9335548172757475,1.0951197488131248
1.9534883720930232,1.090306124010001
1.9734219269102993,1.0864330306984482
1.993355481727575,1.0835263213653987
2.0132890365448506,1.081605922231879
2.0332225913621262,1.080685526267596
2.0531561461794023,1.0807723783862935
2.073089700996678,1.0818671610017372
2.0930232558139537,1.0839639843435036
2.1129568106312293,1.0870504818363502
2.132890365448505,1.091108006731829
2.1528239202657806,1.096111922342737
2.1727574750830567,1.1020319749353504
2.1926910299003324,1.1088327357875785
2.212624584717608,1.116474097248295
2.2325581395348837,1.124911806875994
2.25249169435216,1.1340980238512255
2.2724252491694354,1.143981882737315
2.292358803986711,1.1545100511527109
2.312292358803987,1.1656272698331007
2.332225913621263,1.177276865720637
2.352159468438538,1.1894012309506894
2.3720930232558137,1.2019422627732939
2.39202657807309,1.2148417614384577
2.4119601328903655,1.2280417848186729
2.431893687707641,1.241484960000296
2.4518272425249172,1.2551147532336928
2.471760797342193,1.2688757005022044
2.4916943521594686,1.28271360157537
2.511627906976744,1.2965756807873332
2.5315614617940203,1.3104107179648818
2.551495016611296,1.3241691529602122
2.5714285714285716,1.3378031671572965
2.5913621262458477,1.351266745150906
2.611295681063123,1.3645157195709305
2.6312292358803986,1.377507801765349
2.6511627906976742,1.3902026007802903
2.6710963455149503,1.402561632799504
2.691029900332226,1.4145483229373879
2.7109634551495017,1.4261280010271258
2.7308970099667778,1.4372678928120841
2.7508305647840534,1.4479371077369165
2.770764119601329,1.4581066243459242
2.7906976744186047,1.4677492741296543
2.810631229235881,1.476839724515383
2.8305647840531565,1.4853544615721066
2.850498338870432,1.4932717728938631
2.870431893687708,1.5005717310349436
2.8903654485049834,1.507236177794891
2.910299003322259,1.5132487095887672
2.9302325581395348,1.5185946640865728
2.950166112956811,1.5232611082641772
2.9700996677740865,1.5272368279746125
2.990033222591362,1.5305123191222005
3.0099667774086383,1.5330797805013285
3.029900332225914,1.5349331083459865
3.0498338870431896,1.5360678926240696
3.0697674418604657,1.5364814151017325
3.089700996677741,1.5361726491962657
3.1096345514950166,1.5351422616310568
3.129568106312292,1.5333926159017133
3.1495016611295683,1.5309277775589076
3.169435215946844,1.5277535213086666
3.1893687707641196,1.5238773399256875
3.2093023255813957,1.519308454968025
3.2292358803986714,1.514057829271729
3.249169435215947,1.5081381811909065
3.2691029900332227,1.5015640005316189
3.289036544850499,1.494351566105155
3.3089700996677744,1.4865189647974633
3.32890365448505,1.4780861120148163
3.3488372093023258,1.4690747733197496
3.3687707641196014,1.459508587014875
3.388704318936877,1.4494130873630375
3.4086378737541527,1.4388157280483986
3.428571428571429,1.4277459053833126
3.4485049833887045,1.4162349806466186
3.46843853820598,1.4043163008000992
3.4883720930232562,1.3920252166670823
3.508305647840532,1.3793990974713561
3.5282392026578075,1.3664773404218944
3.548172757475083,1.3533013737919048
3.5681063122923593,1.3399146516775025
3.588039867109635,1.326362638336975
3.60797342192691,1.312692779709489
3.6279069767441863,1.2989544594005582
3.647840531561462,1.2851989361124043
3.6677740863787376,1.2714792592060875
3.6877076411960132,1.2578501588301323
3.7076411960132893,1.2443679068640443
3.727574750830565,1.2310901448367904
3.7475083056478407,1.2180756750281774
3.7674418604651168,1.2053842111870223
3.787375415282392,1.193076085748911
3.807308970099668,1.1812119111508674
3.8272425249169437,1.1698521938595252
3.8471760797342194,1.1590569010775535
3.867109634551495,1.1488849817788787
3.887043189368771,1.1393938457263237
3.9069767441860463,1.130638806393763
3.9269102990033224,1.1226724961561028
3.9468438538205985,1.1155442645935176
3.9667774086378738,1.1092995731099389
3.98671096345515,1.103979401093834
4.0066445182724255,1.0996196803394283
4.026578073089701,1.096250775200989
4.046511627906977,1.0938970258052911
4.0664451827242525,1.092576370497082
4.086378737541528,1.0923000615196645
4.106312292358805,1.0930724848177387
4.1262458471760795,1.0948910909664662
4.146179401993356,1.097746439841702
4.166112956810632,1.101622357067717
4.186046511627907,1.1064961958511095
4.205980066445183,1.1123391938532459
4.225913621262459,1.119116911538402
4.245847176079734,1.126789736143074
4.26578073089701,1.1353134341359852
4.2857142857142865,1.1446397347673312
4.305647840531561,1.1547169279475502
4.325581395348838,1.165490461091433
4.345514950166113,1.1769035215173296
4.365448504983389,1.1888975932937804
4.385382059800665,1.2014129798794133
4.40531561461794,1.2143892863327472
4.425249169435216,1.227765857142926
4.445182724252492,1.2414821677530357
4.465116279069767,1.2554781695594042
4.485049833887043,1.2696945895495113
4.50498338870432,1.28407318679321
4.524916943521594,1.2985569687491152
4.544850498338871,1.3130903708276924
4.5647840531561465,1.3276194029069068
4.584717607973422,1.3420917665681495
4.604651162790698,1.3564569467531735
4.624584717607974,1.3706662813737482
4.644518272425249,1.3846730121674744
4.664451827242526,1.3984323198132045
4.6843853820598005,1.411901346018681
4.704318936877076,1.4250392049878864
4.724252491694353,1.4378069863780825
4.7441860465116275,1.4501677515749434
4.764119601328904,1.4620865248534975
4.78405315614618,1.4735302807561192
4.803986710963455,1.4844679288071825
4.823920265780731,1.4948702964977367
4.8438538205980075,1.5047101113109729
4.863787375415282,1.5139619824195376
4.883720930232559,1.5226023825663215
4.9036544850498345,1.5306096305398795
4.92358803986711,1.5379638745713224
4.943521594684386,1.5446470769100493
4.963455149501661,1.5506429997788707
4.983388704318937,1.5559371928627757
5.003322259136213,1.5605169824492546
5.023255813953488,1.564371462308985
5.043189368770764,1.5674914863835352
5.063122923588041,1.5698696633301705
5.083056478405315,1.571500352961073
5.102990033222592,1.572379664605932
5.122923588039868,1.5725054574203994
5.142857142857143,1.5718773426589132
5.162790697674419,1.5704966879273645
5.182724252491695,1.568366623428736
5.20265780730897,1.5654920502124399
5.222591362126246,1.561879650434736
5.242524916943522,1.5575378996329592
5.262458471760797,1.5524770810093285
5.282392026578074,1.5467093017100966
5.3023255813953485,1.540248511071703
5.322259136212625,1.5331105207866222
5.342192691029901,1.5253130269162893
5.362126245847176,1.5168756336454183
5.382059800664452,1.507819878630337
5.4019933554817285,1.498169259740856
5.421926910299003,1.4879492629296909
5.44186046511628,1.4771873908828055
5.4617940199335555,1.4659131920063877
5.48172757475083,1.454158289188346
5.501661129568107,1.4419564076325924
5.5215946843853825,1.4293434008991408
5.541528239202658,1.4163572740913115
5.561461794019934,1.4030382029093345
5.5813953488372094,1.3894285470375325
5.601328903654485,1.3755728560487086
5.621262458471762,1.3615178656963927
5.641196013289036,1.3473124821256361
5.661129568106313,1.3330077511738088
5.681063122923589,1.3186568095632665
5.700996677740864,1.304314814423309
5.72093023255814,1.2900388472399802
5.740863787375416,1.2758877880458785
5.760797342192691,1.2619221554621325
5.780730897009967,1.2482039081327232
5.800664451827243,1.2347962031948232
5.820598006644518,1.22176310776051
5.840531561461795,1.2091692600000539
5.8604651162790695,1.1970794773659716
5.880398671096346,1.185558310823326
5.900332225913622,1.1746695456795804
5.920265780730897,1.1644756517355985
5.940199335548173,1.1550371879696244
5.960132890365449,1.1464121697355416
5.980066445182724,1.1386554093734298
6.0,1.1318178440116342
6.0199335548172765,1.125945866960755
6.039867109634551,1.1210806812097582
6.059800664451828,1.117257694878513
6.0797342192691035,1.114505978834053
6.099667774086379,1.1128478058754667
6.119601328903655,1.112298288862884
6.139534883720931,1.1128651319538583
6.159468438538206,1.1145485048805206
6.179401993355482,1.117341045234298
6.1993355481727574,1.1212279883854785
6.219269102990033,1.1261874193627572
6.23920265780731,1.1321906361574445
6.259136212624584,1.1392026098488217
6.279069767441861,1.1471825239308329
6.299003322259137,1.1560843733981516
6.318936877076412,1.1658576035423165
6.338870431893688,1.1764477689260568
6.3588039867109645,1.187797194469225
6.378737541528239,1.1998456227610892
6.398671096345516,1.2125308343583276
6.418604651162791,1.2257892306896854
6.438538205980066,1.2395563720520213
6.458471760797343,1.2537674658763802
6.4784053156146175,1.268357802845159
6.498338870431894,1.283263140479074
6.51827242524917,1.2984200354545576
6.538205980066445,1.3137661271617744
6.558139534883721,1.3292403758989408
6.578073089700998,1.3447832596630522
6.598006644518272,1.3603369337926072
6.617940199335549,1.3758453577969643
6.6378737541528245,1.3912543936219819
6.6578073089701,1.406511879396298
6.677740863787376,1.4215676824188235
6.6976744186046515,1.436373734815357
6.717607973421927,1.4508840549384583
6.737541528239203,1.4650547572271124
6.7574750830564785,1.4788440528962452
6.777408637873754,1.4922122435000464
6.797342192691031,1.5051217091122064
6.8172757475083055,1.5175368925954165
6.837209302325582,1.5294242811906746
6.857142857142858,1.5407523864458175
6.877076411960133,1.5514917233190786
6.897009966777409,1.5616147891366514
6.9169435215946855,1.5710960429501457
6.93687707641196,1.5799118857280143
6.956810631229236,1.5880406417226398
6.9767441860465125,1.5954625412785597
6.996677740863787,1.6021597052855523
7.016611295681064,1.608116131431196
7.036544850498339,1.6133176823682802
7.056478405315615,1.6177520758827997
7.076411960132891,1.6214088771253008
7.096345514950166,1.6242794929520197
7.116279069767442,1.6263571684106561
7.136212624584719,1.6276369853979415
7.156146179401993,1.6281158635118638
7.17607973421927,1.6277925631189916
7.196013289036546,1.6266676906568567
7.21594684385382,1.6247437061913033
7.235880398671097,1.6220249332491243
7.2558139534883725,1.6185175709460562
7.275747508305648,1.6142297084284762
7.295681063122924,1.6091713416436693
7.3156146179402,1.603354392446969
7.335548172757475,1.5967927300434817
7.355481727574752,1.589502194746778
7.3754152823920265,1.5815006240152025
7.395348837209303,1.5728078806968897
7.415282392026579,1.5634458833758218
7.435215946843854,1.5534386386610324
7.45514950166113,1.5428122751974014
7.475083056478406,1.531595079096604
7.495016611295681,1.519817530388618
7.514950166112956,1.5075123399735404
7.5348837209302335,1.4947144864085453
7.554817275747508,1.4814612516907717
7.574750830564784,1.4677922549916258
7.5946843853820605,1.4537494830573485
7.614617940199336,1.4393773157125105
7.634551495016611,1.424722544585602
7.6544850498338874,1.4098343828184294
7.674418604651163,1.3947644631260132
7.694352159468439,1.379566821145397
7.714285714285715,1.3642978605597136
7.73421926910299,1.3490162960218595
7.754152823920266,1.3337830694509063
7.774086378737542,1.3186612348631848
7.794019933554818,1.303715806564796
7.813953488372093,1.289013565322262
7.83388704318937,1.274622817097264
7.853820598006645,1.2606130991471527
7.8737541528239205,1.2470548288231091
7.893687707641197,1.2340188913147525
7.913621262458472,1.2215761639565186
7.9335548172757475,1.209796976574696
7.953488372093024,1.1987505097327582
7.9734219269103,1.1885041356042323
7.9933554817275745,1.1791227094882029
8.013289036544851,1.1706678235428618
8.033222591362128,1.1631970379377858
8.053156146179402,1.1567631080457272
8.073089700996679,1.151413229192721
8.093023255813954,1.1471883225285873
8.11295681063123,1.144122386455595
8.132890365448505,1.1422419375185993
8.152823920265782,1.1415655625801675
8.172757475083056,1.1421036004938847
8.192691029900331,1.143857966522733
8.21262458471761,1.146822126758948
8.232558139534884,1.1509812232431123
8.252491694352159,1.1563123438782241
8.272425249169435,1.1627849251200468
8.292358803986712,1.17036127026712
8.312292358803987,1.1789971623210302
8.332225913621263,1.1886425480420886
8.352159468438538,1.1992422690191686
8.372093023255815,1.210736816196645
8.392026578073091,1.2230630861249265
8.411960132890366,1.2361551199242393
8.43189368770764,1.249944809245409
8.451827242524917,1.2643625570580659
8.471760797342194,1.2793378846227321
8.491694352159469,1.294799979291178
8.511627906976745,1.3106781806817183
8.53156146179402,1.3269024052048168
8.551495016611296,1.3434035108413043
8.571428571428573,1.3601136055098784
8.591362126245848,1.3769663033467248
8.611295681063122,1.3938969338161178
8.6312292358804,1.4108427088465336
8.651162790697676,1.427742853209656
8.67109634551495,1.4445387031945338
8.691029900332227,1.4611737783328038
8.710963455149502,1.4775938305500806
8.730897009966778,1.4937468746923435
8.750830564784053,1.509583203933065
8.77076411960133,1.525055393129341
8.790697674418604,1.540118292777163
8.81063122923588,1.554729015828593
8.830564784053157,1.568846919280844
8.850498338870432,1.582433582132877
8.870431893687707,1.5954527810282353
8.890365448504983,1.6078704646630986
8.91029900332226,1.619654727832706
8.930232558139535,1.630775785814849
8.950166112956811,1.641205949643276
8.970099667774086,1.6509196027023318
8.990033222591363,1.6598931789748659
9.00996677740864,1.6681051431952474
9.029900332225914,1.675535973094541
9.049833887043189,1.6821681438749514
9.069767441860467,1.6879861150114097
9.089700996677742,1.69297631944938
9.109634551495017,1.6971271552466294
9.129568106312293,1.7004289796927246
9.14950166112957,1.702874105930812
9.169435215946844,1.7044568021016535
9.189368770764121,1.705173293028631
9.209302325581396,1.7050217644637697
9.22923588039867,1.7040023699175644
9.249169435215949,1.7021172400992977
9.269102990033224,1.6993704949990664
9.289036544850498,1.6957682586460816
9.308970099667773,1.6913186765804493
9.328903654485051,1.6860319360762994
9.348837209302326,1.6799202891516645
9.368770764119601,1.672998078393945
9.388704318936878,1.665281765618643
9.408637873754152,1.6567899633605538
9.428571428571429,1.647543469170838
9.448504983388705,1.6375653026565313
9.46843853820598,1.6268807451509824
9.488372093023255,1.6155173818397097
9.508305647840533,1.603505146085204
9.528239202657808,1.590876365591519
9.548172757475083,1.577665809921932
9.56810631229236,1.5639107387263957
9.588039867109636,1.5496509498452082
9.60797342192691,1.534928826226464
9.627906976744187,1.5197893803235016
9.647840531561462,1.5042802943194526
9.667774086378738,1.4884519541555445
9.687707641196015,1.4723574749172639
9.70764119601329,1.4560527146552853
9.727574750830565,1.439596273192
9.747508305647841,1.4230494718955133
9.767441860465118,1.4064763098064443
9.787375415282392,1.3899433908997292
9.807308970099669,1.3735198166865652
9.827242524916944,1.357277037853342
9.84717607973422,1.3412886582523822
9.867109634551497,1.3256301843728013
9.887043189368772,1.3103787135129068
9.906976744186046,1.2956125543413757
9.926910299003321,1.2814107744706844
9.9468438538206,1.2678526711675526
9.966777408637874,1.255017163467564
9.986710963455149,1.2429821067888613
10.006644518272426,1.2318235346453852
10.026578073089702,1.2216148361644594
10.046511627906977,1.2124258826529555
10.066445182724253,1.2043221211701538
10.086378737541528,1.1973636576032343
10.106312292358805,1.1916043556801184
10.126245847176081,1.1870909812366106
10.146179401993356,1.1838624224434038
10.16611295681063,1.1819490162405955
10.186046511627907,1.1813720087200654
10.205980066445184,1.1821431726380844
10.225913621262459,1.1842645988608762
10.245847176079735,1.18772867079299
10.26578073089701,1.1925182223380064
10.285714285714286,1.198606871414502
10.305647840531563,1.2059595132232719
10.325581395348838,1.214532950963425
10.345514950166113,1.2242766369845295
10.36544850498339,1.235133494677761
10.385382059800666,1.2470407907630052
10.40531561461794,1.2599310288298793
10.425249169435217,1.2737328376966983
10.445182724252492,1.2883718319343387
10.465116279069768,1.3037714263107465
10.485049833887045,1.3198535905268074
10.50498338870432,1.3365395350856655
10.524916943521594,1.3537503232032582
10.544850498338871,1.3714074071610538
10.564784053156147,1.3894330903386833
10.584717607973422,1.4077509183331656
10.604651162790697,1.4262860041102234
10.624584717607974,1.4449652931158476
10.64451827242525,1.463717774790943
10.664451827242525,1.4824746470751755
10.684385382059801,1.5011694403481097
10.704318936877076,1.5197381069181952
10.724252491694353,1.538119081702705
