Frequency (Hz),Amplitude
0.0,8.915479717907939
0.019801980198019802,8.920876727123773
0.039603960396039604,8.937026886666747
0.0594059405940594,8.96380841169618
0.07920792079207921,9.001021018632498
0.09900990099009901,9.04838982406338
0.1188118811881188,9.105570540179919
0.13861386138613863,9.172155731376458
0.15841584158415842,9.24768186469527
0.1782178217821782,9.331636874803351
0.19801980198019803,9.423467970876601
0.21782178217821782,9.522589435125017
0.2376237623762376,9.628390196615326
0.25742574257425743,9.740241005033678
0.27722772277227725,9.857501072774053
0.297029702970297,9.979524096582741
0.31683168316831684,10.105663609164951
0.33663366336633666,10.235277644864547
0.3564356435643564,10.367732730849717
0.37623762376237624,10.502407236006775
0.39603960396039606,10.638694124334252
0.4158415841584158,10.776003168769536
0.43564356435643564,10.9137626859768
0.45544554455445546,11.051420853637852
0.4752475247524752,11.188446670129823
0.495049504950495,11.324330612958066
0.5148514851485149,11.458585047619971
0.5346534653465347,11.590744433252
0.5544554455445545,11.720365365870428
0.5742574257425742,11.847026494557698
0.594059405940594,11.9703283407719
0.613861386138614,12.08989304619517
0.6336633663366337,12.205364070253454
0.6534653465346534,12.316405854661532
0.6732673267326733,12.42270346906561
0.6930693069306931,12.523962249048022
0.7128712871287128,12.619907435385933
0.7326732673267327,12.710283821474437
0.7524752475247525,12.794855414191455
0.7722772277227723,12.873405112148218
0.7920792079207921,12.945734404197495
0.8118811881188118,13.0116630902191
0.8316831683168316,13.071029025537417
0.8514851485148516,13.123687889815402
0.8712871287128713,13.16951298088903
0.891089108910891,13.208395033731312
0.9108910891089109,13.240242064546573
0.9306930693069307,13.264979239878354
0.9504950495049505,13.282548770549974
0.9702970297029703,13.292909830239429
0.99009900990099,13.296038498503208
1.00990099009901,13.291927728103303
1.0297029702970297,13.280587336546319
1.0495049504950495,13.262044021808457
1.0693069306930694,13.236341402287385
1.0891089108910892,13.20354008108505
1.108910891089109,13.163717734778237
1.1287128712871286,13.11696922686757
1.1485148514851484,13.06340674610416
1.1683168316831685,13.003159969865461
1.188118811881188,12.936376252679253
1.2079207920792079,12.863220839862361
1.227722772277228,12.783877106036648
1.2475247524752475,12.698546817989406
1.2673267326732673,12.607450420939902
1.2871287128712872,12.510827346733782
1.3069306930693068,12.40893634178612
1.3267326732673268,12.30205581169845
1.3465346534653466,12.190484178352904
1.3663366336633662,12.074540243894376
1.3861386138613863,11.954563554310297
1.405940594059406,11.83091475325916
1.4257425742574257,11.70397591433944
1.4455445544554455,11.574150837088428
1.4653465346534653,11.441865288617649
1.4851485148514851,11.307567168908792
1.504950495049505,11.171726573409336
1.5247524752475248,11.034835721713195
1.5445544554455446,10.897408715866733
1.5643564356435644,10.759981086344746
1.5841584158415842,10.623109078216443
1.6039603960396038,10.487368624788283
1.6237623762376237,10.353353951509076
1.6435643564356437,10.22167574972424
1.6633663366336633,10.092958858680989
1.683168316831683,9.967839395847475
1.7029702970297032,9.846961281046166
1.7227722772277227,9.730972110070228
1.7425742574257426,9.6205183492336
1.7623762376237624,9.516239844372548
1.782178217821782,9.418763666446218
1.801980198019802,9.328697350772723
1.8217821782178218,9.246621627006306
1.8415841584158414,9.173082780214449
1.8613861386138615,9.108584826898838
1.881188118811881,9.053581729710833
1.900990099009901,9.008469906562427
1.920792079207921,8.973581309357082
1.9405940594059405,8.949177350727124
1.9603960396039604,8.935443941254961
1.98019801980198,8.932487863811398
2.0,8.940334657251775
2.01980198019802,8.958928112471938
2.0396039603960396,8.988131405423347
2.0594059405940595,9.027729811071051
2.0792079207920793,9.0774348667152
2.099009900990099,9.136889789136612
2.118811881188119,9.205675902636427
2.1386138613861387,9.283319807019328
2.1584158415841586,9.369301006388262
2.1782178217821784,9.463059729618317
2.1980198019801978,9.564004698286055
2.217821782178218,9.671520633421096
2.237623762376238,9.78497533422247
2.257425742574257,9.903726205643379
2.2772277227722775,10.027126154005835
2.297029702970297,10.154528807982247
2.3168316831683167,10.28529305475646
2.336633663366337,10.41878690719924
2.3564356435643563,10.554390737410838
2.376237623762376,10.691499925453664
2.3960396039603964,10.829526980291268
2.4158415841584158,10.967903193791763
2.4356435643564356,11.106079889097378
2.455445544554456,11.243529322602965
2.4752475247524752,11.379745295011437
2.495049504950495,11.514243522097779
2.514851485148515,11.646561810433882
2.5346534653465347,11.776260077792953
2.5544554455445545,11.902920252546133
2.5742574257425743,12.026146081269632
2.594059405940594,12.145562869114263
2.6138613861386135,12.260817173307554
2.633663366336634,12.371576466480379
2.6534653465346536,12.477528783324797
2.673267326732673,12.578382361370894
2.6930693069306932,12.673865284376658
2.712871287128713,12.76372513491545
2.7326732673267324,12.847728661172338
2.7524752475247527,12.925661461681356
2.7722772277227725,12.9973276907076
2.792079207920792,13.062549786164084
2.811881188118812,13.121168221319287
2.8316831683168315,13.173041281067466
2.8514851485148514,13.218044863173981
2.8712871287128716,13.256072304651164
2.891089108910891,13.287034233245059
2.910891089108911,13.310858443906673
2.9306930693069306,13.327489800067092
2.9504950495049505,13.336890159522811
2.9702970297029703,13.339038324756979
2.99009900990099,13.333930017563912
3.00990099009901,13.32157787790079
3.0297029702970297,13.302011486955312
3.0495049504950495,13.27527741448424
3.0693069306930694,13.241439290538137
3.089108910891089,13.200577901735992
3.108910891089109,13.15279131228152
3.128712871287129,13.098195009913635
3.148514851485148,13.036922076945926
3.1683168316831685,12.96912338646398
3.1881188118811883,12.894967823602231
3.2079207920792077,12.814642531597224
3.227722772277228,12.728353181996061
3.2475247524752473,12.636324267963532
3.267326732673267,12.538799419058073
3.2871287128712874,12.436041735102846
3.3069306930693068,12.328334135835838
3.3267326732673266,12.215979721842496
3.346534653465347,12.099302140816963
3.366336633663366,11.978645951420877
3.386138613861386,11.854376974865446
3.4059405940594063,11.726882621789718
3.4257425742574257,11.596572179002889
3.4455445544554455,11.463877037170933
3.4653465346534653,11.329250836536346
3.485148514851485,11.193169503274069
3.504950495049505,11.056131144145468
3.5247524752475248,10.918655761807623
3.5445544554455446,10.781284747621616
3.564356435643564,10.64458010332521
3.5841584158415842,10.509123337832827
3.603960396039604,10.375513981169641
3.6237623762376234,10.244367654732578
3.6435643564356437,10.116313636437479
3.6633663366336635,9.991991861712522
3.683168316831683,9.872049307668622
3.702970297029703,9.757135719066541
3.722772277227723,9.647898651750287
3.7425742574257423,9.544977832627074
3.762376237623762,9.448998865216726
3.7821782178217824,9.360566345810236
3.801980198019802,9.280256496114207
3.8217821782178216,9.208609461722011
3.841584158415842,9.146121468713567
3.8613861386138613,9.093237069202594
3.881188118811881,9.050341736301833
3.9009900990099013,9.017755085372086
3.9207920792079207,8.995724997840908
3.9405940594059405,8.98442290395795
3.96039603960396,8.98394044117296
3.98019801980198,8.994287647235788
4.0,9.015392775746403
4.01980198019802,9.047103742702536
4.03960396039604,9.089191132659705
4.0594059405940595,9.141352619597853
4.079207920792079,9.203218596746002
4.099009900990099,9.274358765997105
4.118811881188119,9.354289413483679
4.138613861386139,9.442481093406382
4.158415841584159,9.53836645530716
4.178217821782178,9.641347977165587
4.198019801980198,9.7508054036671
4.217821782178218,9.866102731290288
4.237623762376238,9.986594625421024
4.257425742574258,10.11163219621387
4.2772277227722775,10.24056809700359
4.297029702970297,10.372760940279615
4.316831683168317,10.507579050971014
4.336633663366336,10.644403595100718
4.356435643564357,10.782631134284303
4.376237623762377,10.92167566387052
4.3960396039603955,11.060970195684263
4.415841584158416,11.1999679462784
4.435643564356436,11.33814318920188
4.455445544554455,11.474991825810138
4.475247524752476,11.610031724203273
4.4950495049504955,11.742802870472252
4.514851485148514,11.872867370930173
4.534653465346535,11.999809338663944
4.554455445544555,12.123234692736345
4.574257425742574,12.242770893798994
4.594059405940594,12.358066635796227
4.613861386138614,12.468791509858878
4.633663366336633,12.574635653393942
4.653465346534653,12.675309394738921
4.673267326732674,12.770542901531158
4.693069306930693,12.860085839096724
4.712871287128713,12.943707043646132
4.732673267326733,13.021194213831949
4.752475247524752,13.0923536232355
4.772277227722772,13.157009855568841
4.792079207920793,13.215005563771303
4.811881188118812,13.266201253718993
4.8316831683168315,13.31047509292391
4.851485148514852,13.34772274435632
4.871287128712871,13.377857225362021
4.891089108910891,13.400808791546739
4.910891089108912,13.416524845453075
4.930693069306931,13.424969869847859
4.9504950495049505,13.426125385458949
4.97029702970297,13.419989933045153
4.99009900990099,13.406579079739078
5.00990099009901,13.38592544966686
5.02970297029703,13.358078778912192
5.0495049504950495,13.323105994948284
5.069306930693069,13.281091320704466
5.089108910891089,13.232136403454682
5.108910891089109,13.176360468705488
5.128712871287129,13.113900499211697
5.148514851485149,13.044911439146686
5.1683168316831685,12.96956642328739
5.188118811881188,12.888057030827675
5.207920792079208,12.800593563085972
5.227722772277227,12.707405343906242
5.247524752475248,12.60874104093629
5.267326732673268,12.504869005177715
5.2871287128712865,12.39607762520324
5.306930693069307,12.282675691192477
5.326732673267327,12.164992762406134
5.346534653465346,12.043379529857624
5.366336633663367,11.918208163704204
5.3861386138613865,11.789872632224805
5.405940594059405,11.658788976138283
5.425742574257426,11.525395518414676
5.445544554455446,11.390152985631083
5.465346534653465,11.253544512336807
5.485148514851486,11.116075494870449
5.504950495049505,10.97827325572039
5.524752475247524,10.840686474012845
5.544554455445545,10.703884332312548
5.564356435643565,10.568455324998455
5.584158415841584,10.435005669526989
5.603960396039604,10.304157259543446
5.623762376237624,10.176545098810992
5.643564356435643,10.052814158166703
5.663366336633663,9.933615605124174
5.683168316831684,9.819602368249335
5.702970297029703,9.711424016834318
5.7227722772277225,9.609720961196532
5.742574257425743,9.515118010180124
5.762376237623762,9.428217359514578
5.782178217821782,9.3495911261438
5.801980198019803,9.279773587092208
5.821782178217822,9.219253323579505
5.841584158415841,9.168465507886609
5.861386138613861,9.12778459748536
5.881188118811881,9.097517713907692
5.900990099009901,9.077898979291666
5.920792079207921,9.069085059530455
5.9405940594059405,9.071152119504125
5.96039603960396,9.08409433532214
5.98019801980198,9.107824035361011
6.0,9.142173462361415
6.01980198019802,9.186898070053578
6.03960396039604,9.241681196704855
6.0594059405940595,9.306139900554756
6.079207920792079,9.379831702414556
6.099009900990099,9.462261960620257
6.118811881188119,9.552891602638164
6.138613861386139,9.651144953613453
6.158415841584159,9.756417431358216
6.178217821782178,9.8680829153545
6.198019801980198,9.985500639924002
6.217821782178218,10.108021504876854
6.237623762376237,10.234993737580131
6.257425742574258,10.365767876293717
6.2772277227722775,10.499701074539184
6.297029702970296,10.636160749725848
6.316831683168317,10.774527616408538
6.336633663366337,10.914198155972267
6.356435643564356,11.054586581060253
6.376237623762377,11.195126355613649
6.396039603960396,11.335271330901811
6.415841584158415,11.474496555239073
6.435643564356436,11.612298810938245
6.455445544554456,11.748196927043617
6.475247524752475,11.881731910980017
6.495049504950495,12.01246693679861
6.514851485148515,12.139987222436366
6.534653465346534,12.26389982349311
6.554455445544554,12.383833366561491
6.574257425742575,12.49943774116391
6.594059405940594,12.61038376586432
6.6138613861386135,12.716362841116585
6.633663366336634,12.8170865988528
6.653465346534653,12.912286556664013
6.673267326732673,13.001713782639989
6.693069306930694,13.085138575467855
6.712871287128713,13.162350163199564
6.732673267326732,13.233156423145775
6.752475247524753,13.297383624601908
6.772277227722772,13.354876195529371
6.792079207920792,13.40549651387289
6.811881188118813,13.449124723868835
6.8316831683168315,13.485658577469119
6.851485148514851,13.51501330085125
6.871287128712871,13.537121485894593
6.891089108910891,13.551933006460018
6.910891089108911,13.55941495930602
6.930693069306931,13.55955162949847
6.9504950495049505,13.552344480214709
6.97029702970297,13.537812166899124
6.99009900990099,13.515990575788537
7.00990099009901,13.486932886885324
7.02970297029703,13.450709661507508
7.0495049504950495,13.407408954579811
7.069306930693069,13.357136451841754
7.089108910891089,13.300015632126652
7.108910891089109,13.236187954801304
7.128712871287128,13.165813072336526
7.148514851485149,13.089069067789712
7.1683168316831685,13.006152716706595
7.188118811881187,12.9172797725697
7.207920792079208,12.822685274414782
7.227722772277228,12.722623874575362
7.247524752475247,12.61737018367203
7.267326732673268,12.507219128900813
7.287128712871287,12.392486320357808
7.306930693069306,12.27350841852284
7.326732673267327,12.150643494070595
7.346534653465347,12.024271368837798
7.366336633663366,11.894793924008372
7.3861386138613865,11.762635358347788
7.405940594059406,11.628242375598248
7.425742574257425,11.492084275931893
7.445544554455446,11.354652921672802
7.465346534653466,11.216462542404168
7.485148514851485,11.078049339196212
7.504950495049505,10.939970842216697
7.524752475247524,10.802804970706823
7.544554455445544,10.667148739618334
7.564356435643565,10.53361655363567
7.584158415841584,10.402838027506068
7.603960396039604,10.275455272354172
7.623762376237624,10.152119591850042
7.643564356435643,10.033487540665144
7.663366336633663,9.920216311482829
7.683168316831684,9.812958436662086
7.702970297029703,9.712355816891865
7.7227722772277225,9.619033121718708
7.742574257425743,9.533590644884354
7.762376237623762,9.456596739322423
7.782178217821782,9.388579999854977
7.801980198019803,9.330021402639332
7.821782178217822,9.281346645117967
7.841584158415841,9.242918954230191
7.861386138613862,9.21503263986026
7.881188118811881,9.197907661788248
7.900990099009901,9.19168545023123
7.92079207920792,9.196426172941843
7.9405940594059405,9.212107578562103
7.96039603960396,9.238625471388467
7.980198019801979,9.275795793290914
8.0,9.323358211322489
8.01980198019802,9.380981041318718
8.03960396039604,9.448267284054834
8.05940594059406,9.5247615149169
8.07920792079208,9.609957351931639
8.099009900990099,9.703305229583451
8.118811881188119,9.804220224528652
8.138613861386139,9.912089710295554
8.158415841584159,10.026280656997045
8.178217821782178,10.14614643471063
8.198019801980198,10.271033021763248
8.217821782178218,10.400284558777319
8.237623762376238,10.533248223997145
8.257425742574258,10.669278434017597
8.277227722772277,10.807740396235289
8.297029702970297,10.948013055370806
8.316831683168317,11.0894914868922
8.336633663366337,11.231588795949412
8.356435643564357,11.373737582431712
8.376237623762377,11.515391031889829
8.396039603960396,11.656023689144229
8.415841584158416,11.79513196713164
8.435643564356436,11.932234438495296
8.455445544554456,12.06687195204037
8.475247524752476,12.198607610782963
8.495049504950495,12.327026643142972
8.514851485148515,12.451736194016908
8.534653465346535,12.572365058099429
8.554455445544555,12.688563373939447
8.574257425742575,12.800002293822407
8.594059405940595,12.906373641647889
8.613861386138613,13.00738956848583
8.633663366336634,13.102782213408927
8.653465346534654,13.19230337546654
8.673267326732672,13.275724201244914
8.693069306930694,13.35283489130727
8.712871287128714,13.423444427885885
8.732673267326732,13.487380325472623
8.752475247524753,13.544488405392494
8.772277227722773,13.594632595018687
8.792079207920791,13.637694751975186
8.811881188118813,13.673574513452161
8.831683168316832,13.702189170613707
8.85148514851485,13.723473567991535
8.871287128712872,13.73738002771957
8.891089108910892,13.743878298462313
8.91089108910891,13.742955528914049
8.930693069306932,13.734616265789326
8.950495049504951,13.71888247627892
8.97029702970297,13.695793595002817
8.990099009900991,13.66540659554662
9.00990099009901,13.627796086711347
9.029702970297029,13.583054433632734
9.04950495049505,13.531291903925913
9.06930693069307,13.47263683897524
9.089108910891088,13.407235850407147
9.10891089108911,13.335254041641623
9.12871287128713,13.256875254203663
9.148514851485148,13.17230233816932
9.16831683168317,13.081757445703774
9.188118811881187,12.985482346096841
9.207920792079207,12.883738759987544
9.227722772277229,12.776808709562658
9.247524752475247,12.664994880380501
9.267326732673267,12.548620989070365
9.287128712871288,12.428032149450837
9.306930693069306,12.30359522755063
9.326732673267326,12.175699173562002
9.346534653465348,12.04475531586826
9.366336633663366,11.911197598929272
9.386138613861386,11.775482742964535
9.405940594059407,11.638090299042851
9.425742574257425,11.499522568404274
9.445544554455445,11.360304349684379
9.465346534653467,11.22098247232124
9.485148514851485,11.082125069017865
9.504950495049505,10.944320535023747
9.524752475247526,10.808176117611605
9.544554455445544,10.674316076016721
9.564356435643564,10.543379350956329
9.584158415841586,10.416016684463099
9.603960396039604,10.292887136038527
9.623762376237623,10.17465395098014
9.643564356435645,10.061979752011855
9.663366336633663,9.955521046700147
9.683168316831683,9.85592207085645
9.702970297029704,9.763808021945065
9.722772277227723,9.679777775440762
9.742574257425742,9.604396219255218
9.762376237623764,9.538186383999783
9.782178217821782,9.481621586375718
9.801980198019802,9.435117835208075
9.821782178217823,9.399026770257878
9.841584158415841,9.373629409095646
9.861386138613861,9.359130964228674
9.881188118811881,9.35565696026941
9.900990099009901,9.363250830245653
9.92079207920792,9.3818731044335
9.94059405940594,9.411402229541155
9.96039603960396,9.451636977217374
9.98019801980198,9.50230032568658
10.0,9.563044633295734
10.01980198019802,9.63345787298906
10.03960396039604,9.713070665322691
10.05940594059406,9.801363835492491
10.07920792079208,9.897776225789059
10.099009900990099,10.00171251607222
10.118811881188119,10.112550837379043
10.138613861386139,10.229650003345277
10.158415841584159,10.352356226597474
10.178217821782178,10.480009229117176
10.198019801980198,10.611947694081364
10.217821782178218,10.747514040042043
10.237623762376238,10.886058525578846
10.257425742574258,11.026942713512852
10.277227722772277,11.169542338712654
10.297029702970297,11.313249633116179
10.316831683168317,11.457475166684032
10.336633663366337,11.601649264504351
10.356435643564357,11.745223059066449
10.376237623762377,11.887669233603638
10.396039603960396,12.028482508044819
10.415841584158416,12.167179914054314
10.435643564356436,12.303300900296142
10.455445544554454,12.436407303740076
10.475247524752476,12.566083217742776
10.495049504950495,12.691934782925083
10.514851485148514,12.813589922601059
10.534653465346535,12.930698040728563
10.554455445544555,13.042929697046487
10.574257425742573,13.14997627122031
10.594059405940595,13.251549625401726
10.613861386138614,13.347381772581778
10.633663366336632,13.437224556435025
10.653465346534654,13.520849346973844
10.673267326732674,13.598046755215067
10.693069306930692,13.668626369168116
10.712871287128714,13.73241651275043
10.732673267326733,13.789264028692424
10.752475247524751,13.839034086081957
