Time (s),Filtered Signal
0.0,-0.042973225237984775
0.03337004405286344,-0.2504090462369486
0.06674008810572687,-0.4991761050582157
0.10011013215859031,-0.8183778582065908
0.13348017621145375,-1.2113891360928857
0.16685022026431717,-1.6500241456013887
0.20022026431718062,-2.0770677632775603
0.23359030837004408,-2.417889750671088
0.2669603524229075,-2.5988314346041594
0.3003303964757709,-2.5672153611815545
0.33370044052863435,-2.306836660590175
0.3670704845814978,-1.844269754351207
0.40044052863436125,-1.2443754369967368
0.43381057268722467,-0.5964623283206288
0.46718061674008815,0.0053233049282077555
0.5005506607929515,0.4826236135954529
0.533920704845815,0.7892772779205883
0.5672907488986785,0.9188626974348783
0.6006607929515418,0.901068244147929
0.6340308370044053,0.7885190088791555
0.6674008810572687,0.6395680642975698
0.7007709251101322,0.5040378712158197
0.7341409691629956,0.4166964100614098
0.767511013215859,0.3983710439504011
0.8008810572687225,0.4599669798201777
0.834251101321586,0.6033546589147784
0.8676211453744493,0.8162895892203661
0.9009911894273128,1.0644331329046608
0.9343612334801763,1.2882043439831472
0.9677312775330397,1.4119111643492857
1.001101321585903,1.3665539186934048
1.0344713656387665,1.1189186636423702
1.06784140969163,0.6934221817894675
1.1012114537444935,0.17389999464164674
1.134581497797357,-0.31946875142983094
1.1679515418502202,-0.6714051937094799
1.2013215859030837,-0.8149399094985806
1.2346916299559472,-0.7584251607303003
1.2680616740088106,-0.5832095265623766
1.3014317180616741,-0.4108030579798271
1.3348017621145374,-0.35164678243454955
1.3681718061674009,-0.45670855129885174
1.4015418502202643,-0.6934285579112937
1.4349118942731278,-0.9578702289907804
1.4682819383259913,-1.1189648358006379
1.5016519823788548,-1.0758081625185834
1.535022026431718,-0.8024820084260629
1.5683920704845815,-0.3603348947743655
1.601762114537445,0.1273101722070722
1.6351321585903085,0.5256691201249227
1.668502202643172,0.7407239887171603
1.7018722466960352,0.7502478212430895
1.7352422907488987,0.6023624612455247
1.7686123348017622,0.38643579144071044
1.8019823788546256,0.19298495355860573
1.8353524229074891,0.08142753183056531
1.8687224669603526,0.0674362315053507
1.9020925110132159,0.1304146685228729
1.9354625550660793,0.23243621072977838
1.9688325991189428,0.3369083811480486
2.002202643171806,0.4186163368635986
2.0355726872246698,0.46375266537613274
2.068942731277533,0.46464193900622514
2.1023127753303967,0.41568837575783557
2.13568281938326,0.31416823450195513
2.1690528634361232,0.16451512056347137
2.202422907488987,-0.018541976577077877
2.23579295154185,-0.21205646818799417
2.269162995594714,-0.3924801658693249
2.302533039647577,-0.5449227065368876
2.3359030837004404,-0.668247719110708
2.369273127753304,-0.7718872667817255
2.4026431718061674,-0.8648406261002776
2.436013215859031,-0.9424556524935416
2.4693832599118943,-0.9792792987379895
2.5027533039647576,-0.9343846559210235
2.5361233480176213,-0.7693539634270798
2.5694933920704845,-0.4715016895415043
2.6028634361233483,-0.07036218693642311
2.6362334801762115,0.36284704517103694
2.6696035242290748,0.7353706524427526
2.7029735682819385,0.9654002717970849
2.7363436123348017,1.0129541056748101
2.7697136563876654,0.8953101852049075
2.8030837004405287,0.6799016189242335
2.8364537444933924,0.45749173152401695
2.8698237885462556,0.30686335311864266
2.903193832599119,0.26566149622665686
2.9365638766519826,0.31925460335117856
2.969933920704846,0.4117725076573645
3.0033039647577096,0.47391829270235225
3.036674008810573,0.454713897064346
3.070044052863436,0.3425516974620908
3.1034140969162998,0.16616807255219385
3.136784140969163,-0.023633225915083204
3.1701541850220267,-0.1806817773233192
3.20352422907489,-0.2836889011048438
3.2368942731277532,-0.3397052344234458
3.270264317180617,-0.3709777867940541
3.30363436123348,-0.3954103936695498
3.337004405286344,-0.41409620932915675
3.370374449339207,-0.4140225088367403
3.4037444933920704,-0.3836026855001858
3.437114537444934,-0.3297434010166361
3.4704845814977974,-0.28326321546919964
3.503854625550661,-0.2860457263768543
3.5372246696035243,-0.3648398804990562
3.5705947136563876,-0.5064803362412635
3.6039647577092513,-0.651180223961308
3.6373348017621145,-0.7121700198794312
3.6707048458149782,-0.6151010624118812
3.7040748898678415,-0.33775901531294944
3.737444933920705,0.07191359694190742
3.7708149779735685,0.5110450054647269
3.8041850220264317,0.8638774454726675
3.8375550660792954,1.0492430925509444
3.8709251101321587,1.0492915253842705
3.9042951541850224,0.9063355438238055
3.9376651982378856,0.6927396761811001
3.971035242290749,0.47291179686008566
4.004405286343612,0.2786236984065582
4.037775330396476,0.10873948594644291
4.0711453744493395,-0.05102804362183904
4.104515418502203,-0.20401628247073064
4.137885462555066,-0.33086003988394497
4.171255506607929,-0.3977949264091363
4.2046255506607935,-0.37961425876414356
4.237995594713657,-0.28238048319918135
4.27136563876652,-0.15043196863850966
4.304735682819383,-0.050799958517499376
4.3381057268722465,-0.04105657355460169
4.371475770925111,-0.1367750059420306
4.404845814977974,-0.29658920238397085
4.438215859030837,-0.43499784815826276
4.4715859030837,-0.45926716907091514
4.504955947136564,-0.31400703767329874
4.538325991189428,-0.011984182456351718
4.571696035242291,0.3645362736195201
4.605066079295154,0.6937615718555697
4.638436123348018,0.8624478495451318
4.671806167400881,0.8103291891187723
4.705176211453745,0.5513847939577411
4.738546255506608,0.16405033678001749
4.7719162995594715,-0.242766606570409
4.805286343612335,-0.570691421484965
4.838656387665198,-0.7616415551207371
4.872026431718062,-0.805897646656242
4.905396475770925,-0.7299614034987699
4.938766519823789,-0.5751748255682834
4.972136563876652,-0.38036500068339557
5.005506607929515,-0.17620506239360884
5.038876651982379,0.010579628717482482
5.072246696035243,0.1522485029217796
5.105616740088106,0.22333935595353618
5.138986784140969,0.21375426274632744
5.172356828193832,0.14350165722171299
5.2057268722466965,0.06627547147580265
5.23909691629956,0.05347817826319458
5.272466960352423,0.16183449841425687
5.305837004405286,0.3994326054816226
5.3392070484581495,0.7093179488445455
5.372577092511014,0.9831303249074902
5.405947136563877,1.1024342828258011
5.43931718061674,0.9900918402084846
5.4726872246696034,0.6470052123643215
5.506057268722468,0.1555509023521509
5.539427312775331,-0.3524912158473622
5.572797356828194,-0.7476922945416916
5.606167400881057,-0.949340891648491
5.639537444933921,-0.9460716684849819
5.672907488986785,-0.7857245677156326
5.706277533039648,-0.545522661289797
5.739647577092511,-0.30092125338915504
5.7730176211453745,-0.1067763921047866
5.806387665198238,0.007082894954524551
5.839757709251102,0.03309867067204594
5.873127753303965,-0.0159379166151595
5.9064977973568284,-0.10665678185378893
5.939867841409692,-0.18862398807640082
5.973237885462555,-0.2080880698736755
6.006607929515419,-0.13095467914866593
6.039977973568282,0.03595562446209121
6.073348017621146,0.240180468070765
6.106718061674009,0.4032643344273825
6.140088105726872,0.4579916034944814
6.173458149779736,0.38367343511111596
6.2068281938325995,0.21857497503643242
6.240198237885463,0.04084556598191994
6.273568281938326,-0.07197686489566635
6.306938325991189,-0.08186462039356933
6.3403083700440535,-0.005991160857612913
6.373678414096917,0.09776133970779192
6.40704845814978,0.16452812983162143
6.440418502202643,0.15476270571902218
6.4737885462555065,0.06814717632271183
6.507158590308371,-0.06471422528044131
6.540528634361234,-0.2034501578771442
6.573898678414097,-0.3172694238419698
6.60726872246696,-0.39217586406681676
6.640638766519824,-0.4252643860416771
6.674008810572688,-0.41348270135794557
6.707378854625551,-0.3466233037155371
6.740748898678414,-0.2105297138283897
6.774118942731278,0.000542700757676733
6.807488986784141,0.2697056074476078
6.840859030837005,0.5508330273465427
6.874229074889868,0.7760478949151033
6.9075991189427315,0.876954717377753
6.940969162995595,0.8119071522569768
6.974339207048458,0.5873713435462948
7.007709251101322,0.2626362239877145
7.041079295154185,-0.06653908383146845
7.074449339207049,-0.3008909564424707
7.107819383259912,-0.37512532818547667
7.141189427312775,-0.28466826348580765
7.174559471365639,-0.0895768381509734
7.207929515418503,0.10782717729291863
7.241299559471366,0.2039863947077401
7.274669603524229,0.1374748163099344
7.308039647577092,-0.08377865788386302
7.3414096916299565,-0.3839370570683161
7.37477973568282,-0.6499532307281348
7.408149779735683,-0.7791839401978004
7.441519823788546,-0.7234512238853767
7.47488986784141,-0.5097272033952377
7.508259911894274,-0.2274675843833436
7.541629955947137,0.01210142306369721
7.575,0.12570713207764683
7.608370044052863,0.09281938044796983
7.641740088105728,-0.04105226223704504
7.675110132158591,-0.19263723780234376
7.708480176211454,-0.2842674865070251
7.741850220264317,-0.2787709636943141
7.775220264317181,-0.18880637010549242
7.808590308370045,-0.05920004067778032
7.841960352422908,0.06410160692996925
7.875330396475771,0.15912869215905065
7.9087004405286345,0.23366171690009951
7.942070484581498,0.3111983040021486
7.975440528634362,0.40825783205692984
8.008810572687224,0.5180990313712367
8.042180616740088,0.6108195724501194
8.075550660792953,0.6494457415136338
8.108920704845815,0.6121789078488347
8.142290748898679,0.5074842989467595
8.175660792951541,0.37269676010796404
8.209030837004406,0.25590937775619227
8.24240088105727,0.19030105023713437
8.275770925110132,0.17485302639397066
8.309140969162996,0.17289194251835854
8.342511013215859,0.13093868045716917
8.375881057268723,0.0092428860870321
8.409251101321587,-0.19195412406049484
8.44262114537445,-0.42547437812419286
8.475991189427313,-0.6151622924171938
8.509361233480176,-0.6909555066807358
8.54273127753304,-0.6233561521047991
8.576101321585904,-0.43905464335964356
8.609471365638766,-0.209053761996457
8.64284140969163,-0.015216093594563633
8.676211453744493,0.08739461703524366
8.709581497797357,0.09296369697376194
8.742951541850221,0.04104067370594547
8.776321585903084,-0.010804094068191755
8.809691629955948,-0.022562909162982467
8.84306167400881,0.0039589443157628905
8.876431718061674,0.025864469361487133
8.909801762114538,-0.014880288045260006
8.9431718061674,-0.15394362089802907
8.976541850220265,-0.3761874152637053
9.009911894273127,-0.6127153400970416
9.043281938325991,-0.7666484662013379
9.076651982378856,-0.7559185107107238
9.110022026431718,-0.5526782209385482
9.143392070484582,-0.20060677607252195
9.176762114537445,0.19817132279209934
9.210132158590309,0.5212236295380049
9.243502202643173,0.6730776836095882
9.276872246696035,0.6222009068637501
9.3102422907489,0.4128103508546391
9.343612334801762,0.14711788663791173
9.376982378854626,-0.054253086830370584
9.41035242290749,-0.09731316424911199
9.443722466960352,0.05244388195852985
9.477092511013216,0.3606136330406715
9.510462555066079,0.7385482435202976
9.543832599118943,1.0736840875947702
9.577202643171807,1.2634486385479529
9.61057268722467,1.242625009169295
9.643942731277534,0.9986019782942025
9.677312775330396,0.572837392406934
9.71068281938326,0.04912417274353615
9.744052863436124,-0.4689191449808614
9.777422907488987,-0.8860315915814077
9.81079295154185,-1.1411126434662473
9.844162995594713,-1.2216362307304096
9.877533039647577,-1.1606852802751124
9.910903083700441,-1.0173139423619975
9.944273127753304,-0.8484574948773975
9.977643171806168,-0.6850211157026639
10.01101321585903,-0.5233624864813505
10.044383259911895,-0.33625351618764204
10.077753303964759,-0.09772752988224914
10.111123348017621,0.19120674996631412
10.144493392070485,0.49017292211640245
10.177863436123348,0.7284634190720247
10.211233480176212,0.8329880926299448
10.244603524229076,0.7626329385687606
10.277973568281938,0.5322970700946176
10.311343612334802,0.2138497579177229
10.344713656387665,-0.08819347332356535
10.378083700440529,-0.27640566766132973
10.411453744493393,-0.29815694798732967
10.444823788546255,-0.16463532990281723
10.47819383259912,0.05673358922487711
10.511563876651982,0.27207386289686497
10.544933920704846,0.3989549371925258
10.57830396475771,0.39584430521611425
10.611674008810573,0.2720189959790385
10.645044052863437,0.07669835756330437
10.678414096916299,-0.12492838369553663
10.711784140969163,-0.2771596044583278
10.745154185022027,-0.350843689020687
10.77852422907489,-0.34740944050762534
10.811894273127754,-0.2909106362330787
10.845264317180618,-0.213186596283338
10.87863436123348,-0.13900583930805158
10.912004405286345,-0.07751260258183647
10.945374449339207,-0.0234944671645456
10.978744493392071,0.03255842318492941
11.012114537444935,0.09135539697165425
11.045484581497798,0.13690546172714102
11.078854625550662,0.14029110652122695
11.112224669603524,0.07552133969566284
11.145594713656388,-0.05988380048748155
11.178964757709252,-0.23190564051016654
11.212334801762115,-0.37530783941107937
11.245704845814979,-0.4190436183026511
11.279074889867841,-0.32167971200302753
11.312444933920705,-0.09852193052205933
11.34581497797357,0.17641306884915336
11.379185022026432,0.3985180994561582
11.412555066079296,0.4791991101528976
11.445925110132158,0.38784315540893727
11.479295154185023,0.16709687858024924
11.512665198237887,-0.08681292610640201
11.546035242290749,-0.268309641600895
11.579405286343613,-0.30823540469892463
11.612775330396476,-0.19871862149668273
11.64614537444934,0.012604440670446552
11.679515418502204,0.25205238824156184
11.712885462555066,0.45505981863475153
11.74625550660793,0.5890511472471792
11.779625550660793,0.6554473766027391
11.812995594713657,0.6744055815014837
11.846365638766521,0.663888344264884
11.879735682819383,0.6252567949102873
11.913105726872248,0.5421990944614345
11.94647577092511,0.39235004647496136
11.979845814977974,0.16496158323531018
12.013215859030838,-0.12467182951651436
12.0465859030837,-0.43208410569193495
12.079955947136565,-0.6950578610685539
12.113325991189427,-0.8560493618041474
12.146696035242291,-0.8861615951396652
12.180066079295155,-0.799312336704522
12.213436123348018,-0.6488534176197175
12.246806167400882,-0.5066830843167589
12.280176211453744,-0.43321315334895816
12.313546255506608,-0.45133961754033636
12.346916299559473,-0.5364035655429048
12.380286343612335,-0.6273621613456345
12.413656387665199,-0.6548671378812383
12.447026431718061,-0.5738185580585858
12.480396475770926,-0.3850842314770352
12.51376651982379,-0.13538630318869865
12.547136563876652,0.10541871094950017
12.580506607929516,0.27888633596337997
12.613876651982379,0.3667540427356806
12.647246696035243,0.3984750113905178
12.680616740088107,0.4327449330807988
12.71398678414097,0.5221343784760946
12.747356828193833,0.6795056267209922
12.780726872246696,0.8647082031519703
12.81409691629956,0.9999194170338442
12.847466960352424,1.007162254447667
12.880837004405286,0.8497502491012688
12.91420704845815,0.5567189013068908
12.947577092511013,0.2169867681610946
12.980947136563877,-0.05574677621421598
13.014317180616741,-0.17225286822622685
13.047687224669604,-0.10865750515777445
13.081057268722468,0.08065544721592444
13.11442731277533,0.2854566802021793
13.147797356828194,0.3883741089679865
13.181167400881058,0.31799674888519514
13.21453744493392,0.08152621441609606
13.247907488986785,-0.23893291967985478
13.281277533039647,-0.5252004097169635
13.314647577092511,-0.6784153449661346
13.348017621145376,-0.6637750601460409
13.381387665198238,-0.522406402877808
13.414757709251102,-0.3449946159317282
13.448127753303964,-0.22190700272338507
13.481497797356829,-0.19694401276232668
13.514867841409693,-0.24936504800190049
13.548237885462555,-0.3126497522449519
13.58160792951542,-0.31777404697975303
13.614977973568282,-0.2355337055140994
13.648348017621146,-0.09412894970343932
13.68171806167401,0.03662405942178626
13.715088105726872,0.08383919672083488
13.748458149779736,0.0103204978894292
13.781828193832599,-0.16713381473472305
13.815198237885463,-0.3870981658696429
13.848568281938327,-0.5718537624484419
13.88193832599119,-0.6574570549166386
13.915308370044054,-0.6113301780547618
13.948678414096916,-0.43391498542231133
13.98204845814978,-0.15096078894035805
14.015418502202644,0.19441429715131422
14.048788546255507,0.5460077885965213
14.08215859030837,0.8387753250990259
14.115528634361233,1.009569062556743
14.148898678414097,1.0164801300618644
14.182268722466961,0.8602114916275571
14.215638766519824,0.5946032891078629
14.249008810572688,0.3150658546505398
14.28237885462555,0.12391534502306241
14.315748898678414,0.08537859900682325
14.349118942731279,0.1921126930730227
14.382488986784141,0.3628424716306086
14.415859030837005,0.4765321931581011
14.449229074889868,0.42913603884594675
14.482599118942732,0.1853931477350448
14.515969162995596,-0.20100904481707932
14.549339207048458,-0.6098326703238632
14.582709251101322,-0.9080865956602315
14.616079295154185,-1.0080094804568098
14.649449339207049,-0.9007320598529563
14.682819383259913,-0.6507993051811354
14.716189427312775,-0.35753779349781933
14.74955947136564,-0.10589079785430675
14.782929515418502,0.06688973514750397
14.816299559471366,0.1730803491232988
14.84966960352423,0.24824618390700612
14.883039647577093,0.31648358111300084
14.916409691629957,0.3704203705686786
14.94977973568282,0.37835573346386014
14.983149779735683,0.31242621257432945
15.016519823788547,0.17749978515961942
15.04988986784141,0.019761278894435276
15.083259911894274,-0.09291241395937626
15.116629955947138,-0.10819851476914677
15.15,-0.021693310328901563
15.183370044052865,0.11581577401520421
15.216740088105727,0.2214734215725375
15.250110132158591,0.22127231663722782
15.283480176211455,0.08641178808210279
15.316850220264318,-0.15346208560792293
15.350220264317182,-0.42482095063446296
15.383590308370044,-0.64257703488377
15.416960352422908,-0.7430018591030177
15.450330396475772,-0.703122480828648
15.483700440528635,-0.5418182992827629
15.517070484581499,-0.3069220035766179
15.550440528634361,-0.056769145960817544
15.583810572687225,0.1566508152279115
15.61718061674009,0.29962316116422916
15.650550660792952,0.3632128541229514
15.683920704845816,0.3640666960660625
15.717290748898678,0.3381861915972211
15.750660792951543,0.32679987420283163
15.784030837004407,0.35696161075280924
15.817400881057269,0.4245284565426415
15.850770925110133,0.4897463994122157
15.884140969162996,0.49214546839390816
15.91751101321586,0.38174140378460125
15.950881057268724,0.1524355003729664
15.984251101321586,-0.14161062341609162
16.01762114537445,-0.3998831579658863
16.050991189427315,-0.5174335396521
16.084361233480177,-0.4357394353386195
16.11773127753304,-0.17580141051465972
16.151101321585905,0.1659303447804983
16.184471365638768,0.4590334719715449
16.21784140969163,0.5978318859280903
16.251211453744492,0.5474528403987018
16.284581497797358,0.3540257817944769
16.31795154185022,0.11513502110910658
16.351321585903083,-0.07244850294790257
16.38469162995595,-0.15974384101439043
16.41806167400881,-0.16368771320349224
16.451431718061674,-0.14950392950372834
16.48480176211454,-0.18951109941195524
16.518171806167402,-0.3216732868115018
16.551541850220264,-0.5290049564318492
16.584911894273127,-0.747923726500522
16.618281938325993,-0.8980474861500496
16.651651982378855,-0.9165161884817589
16.685022026431717,-0.7808093750171498
16.718392070484583,-0.512869529020471
16.751762114537446,-0.16763392713839095
16.785132158590308,0.18520565412461518
16.818502202643174,0.47819429247778605
16.851872246696036,0.658530925720661
16.8852422907489,0.6966097975320598
16.91861233480176,0.5918579632024138
16.951982378854627,0.37476686275406634
16.98535242290749,0.10232744835167941
17.01872246696035,-0.15445412442317136
17.052092511013218,-0.3283081900505785
17.08546255506608,-0.3728169561654847
17.118832599118942,-0.2731985890489652
17.152202643171808,-0.04845467400863773
17.18557268722467,0.2537394412632737
17.218942731277533,0.5667293092628823
17.2523127753304,0.8176526755122385
17.28568281938326,0.9430143754862933
17.319052863436124,0.9057358809961858
17.352422907488986,0.7091300752147833
