Frequency (Hz),Amplitude
0.0,0.5176644614159762
0.04,0.5183608577298814
0.08,0.5204417982982701
0.12,0.5238828750988413
0.16,0.5286444984213997
0.19999999999999998,0.5346734215724804
0.24,0.5419046734539187
0.27999999999999997,0.5502637374306787
0.32,0.5596688149827855
0.36,0.5700330316629945
0.39999999999999997,0.5812664742140111
0.44,0.5932779840475281
0.48,0.6059766674444099
0.52,0.6192731126072499
0.5599999999999999,0.6330803260521632
0.6,0.6473144155112669
0.64,0.6618950544410409
0.6799999999999999,0.6767457658718904
0.72,0.6917940622781796
0.76,0.7069714748149608
0.7999999999999999,0.7222135007789784
0.84,0.737459493309018
0.88,0.7526525126615846
0.9199999999999999,0.7677391541764217
0.96,0.7826693644164551
1.0,0.7973962539572654
1.04,0.8118759128784401
1.0799999999999998,0.8260672331070769
1.1199999999999999,0.8399317403038739
1.1600000000000001,0.8534334368860228
1.2,0.866538656976239
1.24,0.8792159334909936
1.28,0.8914358771807406
1.3199999999999998,0.9031710671679593
1.3599999999999999,0.9143959523611181
1.4,0.9250867630276632
1.44,0.9352214317663615
1.48,0.9447795231133455
1.52,0.9537421710352365
1.5599999999999998,0.9620920235984889
1.5999999999999999,0.9698131941499819
1.64,0.9768912183958055
1.68,0.9833130168196454
1.72,0.9890668619374252
1.76,0.9941423499390873
1.7999999999999998,0.9985303763211231
1.8399999999999999,1.0022231151639693
1.88,1.0052140017565672
1.92,1.0074977183162817
1.9599999999999997,1.0090701825960597
2.0,1.0099285392125346
2.0399999999999996,1.010071153568911
2.08,1.0094976082854328
2.12,1.00820870208826
2.1599999999999997,1.0062064511452087
2.2,1.0034940928742744
2.2399999999999998,1.0000760922888932
2.28,0.9959581509824618
2.3200000000000003,0.9911472188946805
2.36,0.9856515090437471
2.4,0.9794805154519911
2.44,0.9726450345384083
2.48,0.9651571903000477
2.5199999999999996,0.9570304636554946
2.56,0.9482797263778843
2.6,0.9389212801016633
2.6399999999999997,0.9289729009464796
2.68,0.9184538903620356
2.7199999999999998,0.9073851328581418
2.76,0.8957891613424546
2.8,0.8836902308408775
2.84,0.8711144014178961
2.88,0.8580896311393139
2.92,0.8446458799186352
2.96,0.8308152250481371
2.9999999999999996,0.8166319891193291
3.04,0.8021328808623339
3.08,0.7873571491502318
3.1199999999999997,0.7723467499842848
3.16,0.7571465256512315
3.1999999999999997,0.7418043943645614
3.2399999999999998,0.7263715474967181
3.28,0.7109026498954375
3.32,0.6954560366647344
3.36,0.6800938970890474
3.4,0.6648824330118374
3.44,0.6498919749098843
3.4799999999999995,0.6351970341685592
3.52,0.6208762648239364
3.5599999999999996,0.6070123026487902
3.5999999999999996,0.5936914445427108
3.64,0.5810031277003899
3.6799999999999997,0.5690391673109878
3.7199999999999998,0.5578927152551475
3.76,0.5476569122461944
3.7999999999999994,0.5384232237379305
3.84,0.5302794765461659
3.88,0.5233076478529433
3.9199999999999995,0.5175814982283699
3.96,0.5131641801102459
4.0,0.510105985245036
4.04,0.5084424105125612
4.079999999999999,0.5081927143529804
4.12,0.5093591026671863
4.16,0.5119266263360925
4.199999999999999,0.5158638010965753
4.24,0.5211238871252771
4.28,0.5276467035761498
4.319999999999999,0.5353608126420039
4.36,0.5441858930322224
4.4,0.5540351326080523
4.4399999999999995,0.5648174982088092
4.4799999999999995,0.5764397791791116
4.5200000000000005,0.5888083417550394
4.56,0.6018305681623409
4.6,0.6154159834357303
4.640000000000001,0.6294770933578762
4.68,0.6439299690371354
4.72,0.6586946189709678
4.76,0.6736951898018346
4.8,0.6888600341102444
4.84,0.704121678948996
4.88,0.7194167234717893
4.92,0.7346856886618326
4.96,0.7498728372459348
5.0,0.7649259775971554
5.039999999999999,0.7797962618515466
5.08,0.7944379855708028
5.12,0.8088083940045647
5.159999999999999,0.8228674982551974
5.2,0.8365779033323606
5.24,0.8499046491187252
5.279999999999999,0.8628150645765885
5.319999999999999,0.8752786350447279
5.36,0.8872668821538959
5.3999999999999995,0.8987532556870667
5.4399999999999995,0.9097130365948994
5.48,0.9201232503231317
5.52,0.9299625895983793
5.56,0.9392113458382217
5.6,0.9478513483900775
5.64,0.9558659108541464
5.68,0.9632397838030793
5.72,0.9699591132715049
5.76,0.9760114044495375
5.8,0.981385490074306
5.84,0.9860715030714002
5.879999999999999,0.9900608530533104
5.92,0.9933462063343621
5.96,0.9959214691711591
5.999999999999999,0.997781773984475
6.04,0.9989234683630736
6.08,0.9993441066924004
6.119999999999999,0.9990424442920368
6.16,0.9980184339854866
6.2,0.9962732250649119
6.239999999999999,0.9938091646521836
6.279999999999999,0.9906298014966722
6.32,0.9867398922900852
6.359999999999999,0.9821454106197087
6.3999999999999995,0.976853558724482
6.44,0.9708727822636507
6.4799999999999995,0.9642127883560379
6.52,0.9568845671997526
6.56,0.9489004176378765
6.6,0.940273977095842
6.64,0.9310202563812147
6.68,0.9211556799065709
6.72,0.9106981319712282
6.76,0.8996670098172008
6.8,0.8880832842582652
6.84,0.8759695687665274
6.88,0.8633501979858914
6.92,0.8502513167221268
6.959999999999999,0.8367009805283391
7.0,0.8227292690537642
7.04,0.8083684133397167
7.08,0.7936529382112547
7.119999999999999,0.7786198208016829
7.16,0.7633086660257308
7.199999999999999,0.7477618994410696
7.239999999999999,0.7320249773477759
7.28,0.7161466130956916
7.32,0.7001790173052501
7.359999999999999,0.6841781479428514
7.3999999999999995,0.6682039637928604
7.4399999999999995,0.652320671688039
7.4799999999999995,0.6365969537548652
7.52,0.6211061557867942
7.5600000000000005,0.6059264116427715
7.599999999999999,0.5911406713967221
7.64,0.5768365932046964
7.68,0.5631062512569257
7.719999999999999,0.5500456060034082
7.76,0.537753679962248
7.800000000000001,0.5263313853355462
7.839999999999999,0.5158799612710973
7.88,0.5064990016974514
7.92,0.4982840909486237
7.959999999999999,0.49132411329686165
8.0,0.4856983598547618
8.040000000000001,0.481473613627619
8.08,0.47870143864119635
8.12,0.4774159186297004
8.159999999999998,0.47763207413024417
8.2,0.47934513060928086
8.24,0.4825307211052602
8.28,0.4871460009443845
8.32,0.49313155064808195
8.36,0.5004138660966032
8.399999999999999,0.508908194928496
8.44,0.5185214774340201
8.48,0.5291551819994277
8.52,0.5407078771367139
8.56,0.5530774409501988
8.6,0.5661628636962075
8.639999999999999,0.5798656431851424
8.68,0.594090803588401
8.72,0.6087475862808984
8.76,0.6237498689820119
8.8,0.6390163695881188
8.84,0.654470686511083
8.879999999999999,0.6700412203119007
8.92,0.6856610135699436
8.959999999999999,0.7012675382927975
9.0,0.7168024533250328
9.040000000000001,0.7322113484060625
9.079999999999998,0.7474434867999272
9.12,0.7624515546977239
9.16,0.7771914227445238
9.2,0.7916219229178859
9.24,0.8057046424404566
9.280000000000001,0.8194037353164861
9.32,0.8326857513337363
9.36,0.8455194818808527
9.399999999999999,0.8578758216267309
9.44,0.8697276449399184
9.48,0.881049695852081
9.52,0.8918184903604481
9.559999999999999,0.9020122298977069
9.6,0.9116107248584582
9.639999999999999,0.9205953271475976
9.68,0.9289488708002693
9.72,0.9366556198097657
9.76,0.9437012223857374
9.8,0.950072670947775
9.84,0.9557582672379602
9.879999999999999,0.9607475920093094
9.92,0.9650314788154577
9.959999999999999,0.9686019914900247
10.0,0.9714524049627541
10.04,0.9735771891137097
10.079999999999998,0.9749719954173423
10.12,0.9756336461756058
10.16,0.9755601261840386
10.2,0.9747505767175467
10.24,0.9732052917640998
10.280000000000001,0.9709257164753279
10.319999999999999,0.9679144478437017
10.36,0.9641752376573415
10.4,0.9597129978261523
10.44,0.9545338082177113
10.48,0.948644927188865
10.52,0.9420548050502756
10.559999999999999,0.9347731007569686
10.6,0.9268107021793288
10.639999999999999,0.9181797503770507
10.68,0.9088936683743438
10.72,0.8989671950194598
10.76,0.888416424606599
10.799999999999999,0.8772588530447407
10.84,0.8655134314769949
10.879999999999999,0.8532006283868391
10.92,0.8403425013745385
10.96,0.826962779948132
11.0,0.8130869608475914
11.04,0.7987424176051247
11.08,0.7839585262339372
11.12,0.7687668091228524
11.16,0.7532010993804449
11.2,0.7372977279971914
11.24,0.721095736243701
11.28,0.7046371156481637
11.319999999999999,0.6879670776255864
11.36,0.6711343542660313
11.4,0.6541915307913783
11.44,0.6371954085758605
11.48,0.6202073951527285
11.52,0.6032939139923253
11.559999999999999,0.5865268216678294
11.6,0.5699838129132072
11.64,0.5537487846213512
11.68,0.5379121177391063
11.72,0.5225708212953338
11.759999999999998,0.507828466034989
11.799999999999999,0.4937948178924475
11.84,0.48058506683717644
11.879999999999999,0.46831853934263856
11.92,0.4571167896836752
11.96,0.4471009945269687
11.999999999999998,0.43838863420927254
12.04,0.43108953588810994
12.08,0.42530147291232007
12.12,0.42110564334765055
12.16,0.41856245805399417
12.200000000000001,0.41770811818260767
12.239999999999998,0.41855242322202885
12.28,0.4210781153622131
12.32,0.4252418565343076
12.36,0.4309767005100344
12.4,0.43819572284687225
12.44,0.44679635213576235
12.479999999999999,0.4566649241529887
12.52,0.46768104306150987
12.559999999999999,0.4797214481849978
12.6,0.49266321439727034
12.64,0.5063862300626102
12.68,0.5207749830007361
12.719999999999999,0.5357197384569286
12.76,0.5511172177960443
12.799999999999999,0.5668708903708851
12.84,0.5828909817592675
12.88,0.5990942858755233
12.92,0.6154038509090681
12.959999999999999,0.6317485923709638
12.999999999999998,0.648062872105191
13.04,0.6642860704008083
13.08,0.6803621692537702
13.12,0.696239358044924
13.16,0.7118696680073153
13.2,0.7272086384392534
13.239999999999998,0.742215015317672
13.28,0.7568504814812419
13.32,0.7710794166510129
13.36,0.7848686850607635
13.4,0.798187448249062
13.44,0.8110070005254741
13.479999999999999,0.8233006246976028
13.52,0.8350434657874021
13.559999999999999,0.8462124206424466
13.6,0.8567860415401243
13.64,0.8667444520762374
13.68,0.8760692738161817
13.719999999999999,0.8847435623617591
13.76,0.8927517516478184
13.799999999999999,0.900079605428877
13.84,0.9067141750474877
13.88,0.9126437626935177
13.919999999999998,0.9178578894682723
13.959999999999999,0.9223472676603272
14.0,0.9261037767227571
14.04,0.9291204425151186
14.08,0.9313914194393168
14.120000000000001,0.9329119751578288
14.16,0.933678477636302
14.2,0.9336883843016814
14.239999999999998,0.9329402331524693
14.28,0.9314336357005218
14.32,0.9291692716647056
14.36,0.9261488853766852
14.399999999999999,0.9223752838989943
14.44,0.9178523368960119
14.479999999999999,0.9125849783408234
14.52,0.9065792101857971
14.56,0.8998421081734895
14.6,0.8923818300182177
14.64,0.8842076262489591
14.68,0.8753298540726008
14.719999999999999,0.8657599946952336
14.76,0.8555106746300989
14.799999999999999,0.8445956916272013
14.84,0.833030045984346
14.879999999999999,0.8208299781468078
14.919999999999998,0.8080130136773898
14.959999999999999,0.7945980168862793
15.0,0.7806052546572827
15.04,0.7660564723018133
15.079999999999998,0.7509749836236612
15.120000000000001,0.7353857777966818
15.159999999999998,0.7193156461558783
15.199999999999998,0.7027933325929642
15.24,0.6858497119427885
15.28,0.6685180015588271
15.319999999999999,0.6508340122103744
15.36,0.6328364454891863
15.399999999999999,0.6145672460677131
15.439999999999998,0.5960720183531877
15.48,0.5774005182257076
15.52,0.5586072314418649
15.559999999999999,0.5397520505969814
15.600000000000001,0.5209010617234586
15.639999999999999,0.5021274487927154
15.679999999999998,0.48351251825267133
15.72,0.4651468343050578
15.76,0.44713143614322537
15.799999999999999,0.4295790772110514
15.84,0.4126153794854263
15.879999999999999,0.39637972896007867
15.919999999999998,0.3810256506675676
15.96,0.36672029838142406
16.0,0.3536425948225706
16.04,0.3419795032461274
16.080000000000002,0.3319199661671807
16.12,0.32364629157603414
16.16,0.31732325832275965
16.200000000000003,0.3130859190850137
16.24,0.31102781879339436
16.279999999999998,0.3111917932287263
16.319999999999997,0.31356533937640707
16.36,0.31808165737871247
16.4,0.3246261284860483
16.439999999999998,0.3330467525716156
16.48,0.34316640398004994
16.52,0.35479482639407806
16.56,0.36773887683043815
16.6,0.38181029372071856
16.64,0.3968309156021222
16.68,0.412635685924764
16.72,0.42907395225303246
16.759999999999998,0.4460095762825347
16.799999999999997,0.46332029322143947
16.84,0.4808966531971872
16.88,0.4986407764032275
16.919999999999998,0.5164650716105228
16.96,0.5342910071033578
17.0,0.5520479814657624
17.04,0.5696723146816147
17.080000000000002,0.5871063635540077
17.12,0.6042977560983683
17.16,0.6211987347990188
17.2,0.6377655966831348
17.24,0.6539582178890614
17.279999999999998,0.6697396510359499
17.32,0.6850757847730062
17.36,0.6999350561211249
17.4,0.7142882074595157
17.44,0.7281080811715877
17.48,0.7413694460095486
17.52,0.754048850153579
17.56,0.7661244967315269
17.6,0.7775761382381966
17.64,0.7883849868625968
17.68,0.7985336382102938
17.72,0.8080060063093546
17.759999999999998,0.8167872681242561
17.799999999999997,0.8248638160828524
17.84,0.8322232173561298
17.88,0.8388541788268051
17.919999999999998,0.8447465168471668
17.96,0.8498911310243954
18.0,0.8542799813874964
18.04,0.8579060683876244
18.080000000000002,0.860763415266033
18.12,0.8628470523939898
18.159999999999997,0.8641530032484803
18.2,0.8646782717386384
18.24,0.8644208306417509
18.279999999999998,0.863379610945784
18.32,0.8615544919288013
18.36,0.8589462918350418
18.4,0.8555567590340808
18.44,0.8513885635735139
18.48,0.8464452890581543
18.52,0.8407314248101252
18.560000000000002,0.8342523582851409
18.6,0.8270143677413642
18.64,0.8190246151790089
18.679999999999996,0.8102911395922847
18.72,0.8008228506007896
18.759999999999998,0.7906295225565836
18.799999999999997,0.7797217892564787
18.84,0.7681111394286789
18.88,0.7558099132101531
18.919999999999998,0.7428312998888946
18.96,0.7291893372564109
19.0,0.7148989130046436
19.04,0.6999757687136468
19.080000000000002,0.6844365071190768
19.119999999999997,0.6682986035318229
19.159999999999997,0.6515804225197579
19.2,0.6343012412720289
19.24,0.6164812814757615
19.279999999999998,0.5981417520796639
19.32,0.5793049060500636
19.36,0.5599941152158987
19.4,0.540233968655413
19.44,0.5200504019532711
19.48,0.4994708672797275
19.52,0.47852455795303034
19.560000000000002,0.4572427064555045
19.6,0.4356589825678982
19.639999999999997,0.41381002958155705
19.68,0.3917361933502984
19.72,0.36948252427476785
19.759999999999998,0.34710017100386287
19.8,0.32464834446081187
19.84,0.30219712423073736
19.88,0.2798315261188051
19.919999999999998,0.25765747972890407
19.96,0.23581071881437746
20.0,0.21447010286216153
20.04,0.19387753560765766
20.08,0.17436709253936747
20.119999999999997,0.15640488478534087
20.159999999999997,0.14063462964744383
20.2,0.1279035876232332
20.24,0.11920396385035797
20.279999999999998,0.11544295491718234
20.32,0.11706756685989103
20.36,0.12381706465827748
20.4,0.1348606513477678
20.44,0.1491735871958498
20.48,0.16583002779360695
20.52,0.18410855725614575
20.560000000000002,0.20348278581044296
20.599999999999998,0.22357628003205665
20.639999999999997,0.24411857678177915
20.68,0.2649118709886356
20.72,0.28580795223436234
20.759999999999998,0.3066927425230826
20.8,0.3274759998650985
20.84,0.34808442510615173
20.88,0.3684569956536301
20.92,0.38854176342478586
20.96,0.4082936257467633
21.0,0.4276727513772041
21.04,0.44664345399340366
21.08,0.4651733757760544
21.119999999999997,0.48323288895464267
21.159999999999997,0.5007946526505834
21.2,0.5178332818007567
21.24,0.5343250979503678
21.279999999999998,0.5502479405201594
21.32,0.5655810232077146
21.36,0.5803048243938171
21.4,0.5944010033898268
21.44,0.6078523364738607
21.48,0.6206426681847396
21.52,0.6327568744499167
21.56,0.6441808349378962
21.599999999999998,0.6549014126303341
21.639999999999997,0.6649064390623642
21.68,0.6741847040226729
21.72,0.6827259487667886
21.759999999999998,0.6905208619989694
21.8,0.6975610780351391
21.84,0.7038391766829362
21.88,0.709348684473116
21.92,0.7140840769557932
21.96,0.7180407818396838
22.0,0.7212151828065069
22.04,0.7236046238785879
22.08,0.7252074142578228
22.119999999999997,0.7260228335902972
22.16,0.7260511376444684
22.2,0.7252935644234039
22.24,0.7237523407640577
22.28,0.7214306895106319
22.32,0.7183328373853336
22.36,0.7144640237202452
22.4,0.7098305102595069
22.44,0.7044395922937969
22.48,0.698299611450792
22.519999999999996,0.6914199705388597
22.56,0.6838111509294494
22.599999999999998,0.6754847330706816
22.639999999999997,0.666453420855245
22.68,0.6567310707263403
22.72,0.6463327266039464
22.759999999999998,0.6352746619605604
22.8,0.6235744306840441
22.84,0.6112509287526166
22.88,0.5983244692357403
22.92,0.5848168737539956
22.96,0.5707515843191958
23.0,0.5561538004828877
23.04,0.541050648012383
23.08,0.5254713869732858
23.119999999999997,0.5094476692366436
23.16,0.49301385818793086
23.2,0.4762074269724421
23.24,0.4590694561843679
23.28,0.441645257747419
23.32,0.4239851591076065
23.36,0.40614549097730357
23.400000000000002,0.3881898327542586
23.44,0.3701905819167336
23.479999999999997,0.3522309256032429
23.519999999999996,0.33440730043721867
23.56,0.3168324224004101
23.599999999999998,0.29963893642342976
23.639999999999997,0.2829836466542584
23.68,0.2670520952856769
23.72,0.2520628908643646
23.759999999999998,0.23827056988546952
23.8,0.22596488814800786
23.84,0.2154634706575885
23.88,0.20709434098406315
23.92,0.2011662059057614
23.96,0.19792866594420191
23.999999999999996,0.19753116815097949
24.04,0.1999945413544615
24.08,0.20520691512355088
24.119999999999997,0.2129458357901035
24.16,0.2229170767051841
24.2,0.23479599333322485
24.24,0.2482607022839483
24.28,0.2630130872283698
24.32,0.2787888156475396
24.36,0.29535968568596
24.400000000000002,0.31253159126629304
24.439999999999998,0.33014050069043677
24.479999999999997,0.3480478999591658
24.52,0.36613645302861214
24.56,0.38430619828491147
24.599999999999998,0.40247136440290604
24.64,0.4205577752042684
24.68,0.4385007679326194
24.72,0.4562435388740295
24.759999999999998,0.47373583553223486
24.8,0.49093292573282254
24.84,0.5077947863008047
24.88,0.5242854652601652
24.92,0.5403725811241916
24.959999999999997,0.5560269306942021
24.999999999999996,0.5712221830355595
25.04,0.5859346422098114
25.08,0.6001430651681616
25.119999999999997,0.6138285241817546
25.16,0.6269743054865681
25.2,0.6395658376055277
25.24,0.6515906441952922
25.28,0.6630383173408524
25.32,0.6739005080569805
25.36,0.6841709314046173
25.4,0.6938453841322053
25.439999999999998,0.7029217731368763
25.479999999999997,0.7114001533306066
25.52,0.7192827737082257
25.56,0.7265741305593668
25.599999999999998,0.7332810268531431
25.64,0.7394126368577931
25.68,0.7449805750406053
25.72,0.7499989682274466
25.76,0.7544845298858185
25.8,0.7584566352293951
25.84,0.7619373956239555
25.880000000000003,0.7649517305027228
25.919999999999998,0.767527434672408
25.959999999999997,0.7696952385103233
25.999999999999996,0.7714888581204399
26.04,0.7729450320388052
26.08,0.7741035405675387
26.119999999999997,0.7750072032894765
26.16,0.7757018497982047
26.2,0.7762362582059474
26.24,0.7766620556104129
26.28,0.7770335744680611
26.32,0.7774076588025888
26.36,0.7778434144486597
26.4,0.7784018981702898
26.439999999999998,0.7791457415750831
26.479999999999997,0.7801387073297285
26.52,0.7814451773024169
26.56,0.7831295749070233
26.599999999999998,0.7852557270408572
26.64,0.7878861744663263
26.68,0.791081443091698
26.72,0.794899292097026
26.76,0.7993939579203733
26.8,0.8046154154395214
26.84,0.8106086789486091
26.88,0.8174131654959925
26.919999999999998,0.8250621416855451
26.959999999999997,0.8335822721552779
27.0,0.8429932837949731
27.04,0.8533077546527229
27.08,0.8645310308227392
27.119999999999997,0.8766612688754958
27.16,0.8896895960537815
27.2,0.9036003759195796
27.24,0.9183715636920331
27.28,0.9339751333259485
27.32,0.9503775574637362
27.36,0.9675403216492523
27.4,0.9854204554258026
27.439999999999998,1.0039710649046674
27.479999999999997,1.0231418538203814
27.52,1.0428796227342534
27.56,1.0631287386948634
27.599999999999998,1.0838315701481638
27.64,1.1049288840978988
27.68,1.126360204384669
27.72,1.1480641314561242
27.76,1.1699786251495992
27.8,1.1920412528315987
