Time (s),Filtered Signal
0.0,-0.015580827411196513
0.0334075723830735,-0.20593389122328248
0.066815144766147,-0.3780523562471247
0.1002227171492205,-0.5091156661046011
0.133630289532294,-0.5712739508626796
0.1670378619153675,-0.5386887291920298
0.200445434298441,-0.3993944209389751
0.23385300668151449,-0.16625514909265685
0.267260579064588,0.11941825165803732
0.3006681514476615,0.39536374712061356
0.334075723830735,0.5958079877498492
0.3674832962138085,0.6727839372834071
0.400890868596882,0.6128321007139037
0.4342984409799555,0.44195435829313007
0.46770601336302897,0.21636861685223627
0.5011135857461025,0.002539703846251073
0.534521158129176,-0.14554365299514405
0.5679287305122495,-0.20284625623052974
0.601336302895323,-0.17740659034386994
0.6347438752783965,-0.10147614198718335
0.66815144766147,-0.01464960045493689
0.7015590200445435,0.052898505674024536
0.734966592427617,0.08970351818359247
0.7683741648106905,0.10167772173050327
0.801781737193764,0.10252411325595201
0.8351893095768375,0.10221890281831542
0.868596881959911,0.10023637551677757
0.9020044543429845,0.08689105695431172
0.9354120267260579,0.051216656767501784
0.9688195991091315,-0.00992570234462372
1.002227171492205,-0.08724176381438989
1.0356347438752784,-0.1616983229894423
1.069042316258352,-0.21293615039918887
1.1024498886414256,-0.22863523715878656
1.135857461024499,-0.20981538282047668
1.1692650334075725,-0.1696204143344658
1.202672605790646,-0.1267752897246363
1.2360801781737194,-0.09745576237721429
1.269487750556793,-0.08950560161491833
1.3028953229398665,-0.10104600852263369
1.33630289532294,-0.12297734654947136
1.3697104677060135,-0.14323678410412136
1.403118040089087,-0.1506612755231162
1.4365256124721606,-0.1374662164467071
1.469933184855234,-0.10056709425287944
1.5033407572383075,-0.04234158972188441
1.536748329621381,0.029107400939262076
1.5701559020044544,0.10085372604925096
1.603563474387528,0.1579467887521926
1.6369710467706016,0.18795817916427945
1.670378619153675,0.18580550447424424
1.7037861915367485,0.15656072323712122
1.737193763919822,0.11435241544285613
1.7706013363028954,0.07710794203012589
1.804008908685969,0.05899215699683276
1.8374164810690425,0.06385486825536153
1.8708240534521159,0.08292640170948051
1.9042316258351895,0.09828157304822364
1.937639198218263,0.09096041848307498
1.9710467706013366,0.05032240151049928
2.00445434298441,-0.01964356135938747
2.0378619153674835,-0.10022731966373552
2.071269487750557,-0.16462515144976556
2.1046770601336307,-0.18869935367179574
2.138084632516704,-0.16122467347794533
2.1714922048997773,-0.0890194041164652
2.204899777282851,0.00539657082802514
2.2383073496659245,0.09255574421267136
2.271714922048998,0.14724479125059722
2.3051224944320716,0.15725354098160166
2.338530066815145,0.12620664692560118
2.3719376391982183,0.06998173859417962
2.405345211581292,0.009140924838276027
2.4387527839643655,-0.038754920642102036
2.472160356347439,-0.06368105129909571
2.5055679287305126,-0.0633832048647212
2.538975501113586,-0.04053512778436601
2.5723830734966593,0.0006113401922039054
2.605790645879733,0.05581199568984432
2.6391982182628064,0.11998051096146439
2.67260579064588,0.1850941381972133
2.7060133630289536,0.23905451908291614
2.739420935412027,0.267279676128096
2.7728285077951007,0.2571816637868194
2.806236080178174,0.20376151519201
2.8396436525612474,0.11342973118916731
2.873051224944321,0.0035807473600531973
2.9064587973273945,-0.102635008502413
2.939866369710468,-0.18441068791862358
2.9732739420935417,-0.23064270336291232
3.006681514476615,-0.2431062503025383
3.0400890868596884,-0.23402750071874853
3.073496659242762,-0.21942294894433964
3.1069042316258355,-0.21159395185769794
3.140311804008909,-0.21436341045268864
3.1737193763919826,-0.2230310953969325
3.207126948775056,-0.2285586321530803
3.2405345211581293,-0.22346552632850775
3.273942093541203,-0.2062708258300093
3.3073496659242765,-0.1822517993304891
3.34075723830735,-0.16026342526518947
3.3741648106904236,-0.147389991381354
3.407572383073497,-0.14432081088755375
3.4409799554565703,-0.14401626624542577
3.474387527839644,-0.13457206288750967
3.5077951002227175,-0.10495814614909613
3.541202672605791,-0.05062991005947208
3.5746102449888646,0.024137637775862045
3.608017817371938,0.10868944391352499
3.6414253897550113,0.19198964478938516
3.674832962138085,0.26869524487386764
3.7082405345211584,0.3414428715854869
3.7416481069042318,0.41748073765394716
3.7750556792873056,0.5011746384072149
3.808463251670379,0.5867384652339864
3.8418708240534527,0.6559581227224113
3.875278396436526,0.68320546437646
3.9086859688195994,0.6459502689975384
3.942093541202673,0.5356288100103623
3.9755011135857465,0.36315269465473354
4.00890868596882,0.1559933706544244
4.042316258351893,-0.051804258425048606
4.075723830734967,-0.23166713088262966
4.109131403118041,-0.3687509416064072
4.142538975501114,-0.4629087686911221
4.1759465478841875,-0.5229117081698661
4.209354120267261,-0.5578629709417402
4.242761692650334,-0.5707508776906836
4.276169265033408,-0.5574036685763184
4.309576837416482,-0.5108762219743855
4.342984409799555,-0.4283232429854276
4.3763919821826285,-0.316212057134347
4.409799554565702,-0.19080106415690387
4.443207126948775,-0.07345033519411823
4.476614699331849,0.016941398111246318
4.510022271714923,0.07068717866770435
4.543429844097996,0.09011974687553839
4.5768374164810695,0.08737958580209146
4.610244988864143,0.0784888439661613
4.643652561247216,0.07654719539785745
4.67706013363029,0.08697011802884967
4.710467706013364,0.10651387748992554
4.743875278396437,0.12609976537934098
4.77728285077951,0.1359379481884769
4.810690423162584,0.13067035397744173
4.844097995545657,0.1123631906382595
4.877505567928731,0.09006759470703794
4.910913140311805,0.0760291387813141
4.944320712694878,0.08002136975689915
4.977728285077951,0.10418730866069731
5.011135857461025,0.14075850098789217
5.044543429844098,0.17395802410543615
5.077951002227172,0.18563389536654662
5.111358574610246,0.1624716371942913
5.144766146993319,0.10181665190885371
5.178173719376392,0.01362772572862332
5.211581291759466,-0.08232714479124614
5.244988864142539,-0.16296576872806898
5.278396436525613,-0.20955383295422833
5.311804008908687,-0.21363110188498388
5.34521158129176,-0.17907501944008797
5.378619153674833,-0.11972849735709618
5.412026726057907,-0.05372730094447958
5.445434298440981,0.003108954297853453
5.478841870824054,0.0421760916719118
5.512249443207128,0.06344023759153151
5.545657015590201,0.07303154678540368
5.579064587973274,0.07858751376690151
5.612472160356348,0.08484723228386043
5.645879732739422,0.09169550594959185
5.679287305122495,0.09536973988322191
5.712694877505569,0.09168730661197982
5.746102449888642,0.07903549758318419
5.779510022271715,0.05920824725135514
5.812917594654789,0.03576612733889305
5.846325167037863,0.011357936018172528
5.879732739420936,-0.01386776871723204
5.91314031180401,-0.04150963135623272
5.946547884187083,-0.0723670666782912
5.979955456570156,-0.10405510071372952
6.01336302895323,-0.13073333118213767
6.046770601336304,-0.14549837885554312
6.080178173719377,-0.14416134967480088
6.1135857461024505,-0.12810451863583236
6.146993318485524,-0.10433372476472212
6.180400890868597,-0.08242541320080984
6.213808463251671,-0.06984570453952191
6.247216035634745,-0.06808093297745832
6.280623608017818,-0.07166667976400806
6.3140311804008915,-0.07075785678141543
6.347438752783965,-0.05610352583831935
6.380846325167038,-0.024055347975648657
6.414253897550112,0.020868701097294974
6.447661469933186,0.06727396043251697
6.481069042316259,0.10167040662097604
6.5144766146993325,0.11469774395307945
6.547884187082406,0.10591138687850202
6.581291759465479,0.0846985124437744
6.614699331848553,0.0665328180643967
6.648106904231627,0.0659527097810764
6.6815144766147,0.08937541765865038
6.7149220489977735,0.13123855489571848
6.748329621380847,0.17564059001140103
6.78173719376392,0.20310254311167109
6.815144766146994,0.19946543513626594
6.848552338530068,0.1626244934886287
6.881959910913141,0.10361471852946129
6.915367483296214,0.041284031903512916
6.948775055679288,-0.006878979591342459
6.982182628062361,-0.033039379112842306
7.015590200445435,-0.042017780617612355
7.048997772828509,-0.047345436889467074
7.082405345211582,-0.06250890022100236
7.115812917594655,-0.09226020062740728
7.149220489977729,-0.1289864707306479
7.182628062360802,-0.15647082086981243
7.216035634743876,-0.159301291191614
7.24944320712695,-0.13287837485243278
7.282850779510023,-0.08828395917168498
7.316258351893096,-0.048724935100439244
7.34966592427617,-0.03869583619742724
7.383073496659243,-0.0711075030055794
7.416481069042317,-0.1391304802960463
7.449888641425391,-0.21742275252642526
7.4832962138084635,-0.27268573922514255
7.516703786191537,-0.27856202129739216
7.550111358574611,-0.22743429813207872
7.583518930957685,-0.13314962623816645
7.616926503340758,-0.0234023182627643
7.650334075723832,0.07404662758741352
7.683741648106905,0.14393591679071846
7.717149220489978,0.1882816670426902
7.750556792873052,0.2211372834586029
7.783964365256126,0.25660728797878485
7.817371937639199,0.297088573742206
7.850779510022273,0.32867513593400843
7.884187082405346,0.3269088463683867
7.917594654788419,0.2704904548134131
7.951002227171493,0.15600035464203119
7.984409799554567,0.00550749350131718
8.01781737193764,-0.138036439232512
8.051224944320714,-0.2267932468586997
8.084632516703786,-0.22863366607364125
8.118040089086861,-0.14263118428940147
8.151447661469934,-0.0016067256889434455
8.184855233853007,0.14020241522590587
8.218262806236082,0.2291526423755089
8.251670378619155,0.23395899265616038
8.285077951002227,0.15739095340521983
8.318485523385302,0.03295330073383113
8.351893095768375,-0.09124524880179963
8.385300668151448,-0.17342261861996244
8.418708240534523,-0.1941629641063499
8.452115812917596,-0.16091035625769548
8.485523385300668,-0.10021557542820032
8.518930957683743,-0.04280336073042841
8.552338530066816,-0.009326946348356274
8.585746102449889,-0.003393509574859774
8.619153674832964,-0.014073165619824544
8.652561247216036,-0.025117669677989396
8.68596881959911,-0.025112718144686574
8.719376391982184,-0.013135747792759804
8.752783964365257,0.0023341392113991133
8.78619153674833,0.009525197789654482
8.819599109131405,0.00028260499253404214
8.853006681514477,-0.02618663157612965
8.88641425389755,-0.06416769207998817
8.919821826280625,-0.10530649064399296
8.953229398663698,-0.14233808435235068
8.98663697104677,-0.17026305265516342
9.020044543429846,-0.18491077896346372
9.053452115812918,-0.18103243469124475
9.086859688195991,-0.15251574252965241
9.120267260579066,-0.09564796066193301
9.153674832962139,-0.013728487514616373
9.187082405345212,0.0803484156014541
9.220489977728286,0.1663121022263577
9.25389755011136,0.2235838363781663
9.287305122494432,0.2400548266679288
9.320712694877507,0.21786383168123147
9.35412026726058,0.1726709665865588
9.387527839643653,0.12634140256886392
9.420935412026727,0.09659817049638218
9.4543429844098,0.08891965757342075
9.487750556792873,0.09476130371230701
9.521158129175948,0.09682727684295968
9.55456570155902,0.07854571438059875
9.587973273942094,0.033005478820902164
9.621380846325168,-0.03281467985017247
9.654788418708241,-0.10023004335695732
9.688195991091314,-0.14620558229460398
9.721603563474389,-0.1525862895240058
9.755011135857462,-0.11345056636538942
9.788418708240535,-0.03788457917114855
9.82182628062361,0.052622661485967615
9.855233853006682,0.1310221979251103
9.888641425389755,0.17331242718120918
9.92204899777283,0.1660372630809694
9.955456570155903,0.11032505609902891
9.988864142538976,0.021312176446458435
10.02227171492205,-0.07673042158093328
10.055679287305123,-0.157930892419499
10.089086859688196,-0.20259862004500212
10.12249443207127,-0.20283665607830878
10.155902004454344,-0.16430789516414618
10.189309576837417,-0.10371177440697663
10.222717149220491,-0.042870576450990995
10.256124721603564,-0.001391911195591017
10.289532293986637,0.009644756142894192
10.322939866369712,-0.00916635156356602
10.356347438752785,-0.04662819253936855
10.389755011135858,-0.08569175351861899
10.423162583518932,-0.1098942733511695
10.456570155902005,-0.1088642509711279
10.489977728285078,-0.08084289050304476
10.523385300668153,-0.03168074545066591
10.556792873051226,0.028588710251726577
10.590200445434299,0.0896005873931136
10.623608017817373,0.1431954419263833
10.657015590200446,0.18401529493629623
10.69042316258352,0.20873843386962224
10.723830734966594,0.21512888763184873
10.757238307349667,0.2018394811666667
10.790645879732741,0.16913849731917666
10.824053452115814,0.11997507874589877
10.857461024498887,0.06048990801520884
10.890868596881962,-0.0006722457651672882
10.924276169265035,-0.054275860711075985
10.957683741648108,-0.09301872047109148
10.991091314031182,-0.11368612748099799
11.024498886414255,-0.11802516463529165
11.057906458797328,-0.11191008649920611
11.091314031180403,-0.10306665570867396
11.124721603563476,-0.09823352269763465
11.158129175946549,-0.10087712293783245
11.191536748329623,-0.11031989783800907
11.224944320712696,-0.12250783639897715
11.25835189309577,-0.1319374977521958
11.291759465478844,-0.1338152855352588
11.325167037861917,-0.12551899283370876
11.35857461024499,-0.10683881464417692
11.391982182628064,-0.07908308018820516
11.425389755011137,-0.04367502797489888
11.45879732739421,-0.0011172352261946362
11.492204899777285,0.048963441128693164
11.525612472160358,0.10654038915971362
11.55902004454343,0.16929792390203077
11.592427616926505,0.23133995261647258
11.625835189309578,0.28370493346234205
11.659242761692651,0.3170828963673924
11.692650334075726,0.3257736199716012
11.726057906458799,0.31077141470976116
11.759465478841872,0.27977060344265114
11.792873051224946,0.24324233038888657
11.82628062360802,0.20803904507193513
11.859688195991092,0.17196442963121703
11.893095768374167,0.12302120721541909
11.92650334075724,0.04501980032402442
11.959910913140313,-0.07232780267491523
11.993318485523387,-0.22383729449305437
12.02672605790646,-0.3854461628581885
12.060133630289533,-0.51995680347213
12.093541202672608,-0.5902062048232891
12.12694877505568,-0.5738490090673661
12.160356347438753,-0.4728696270982379
12.193763919821828,-0.3134782554786705
12.227171492204901,-0.1366737922049975
12.260579064587974,0.016085166191116263
12.293986636971049,0.11598829055666057
12.327394209354122,0.15391669580218137
12.360801781737194,0.13972457407544092
12.39420935412027,0.09535404398136764
12.427616926503342,0.045390795290086654
12.461024498886415,0.008854263583183595
12.49443207126949,-0.005280766586913815
12.527839643652563,0.0017640087419655537
12.561247216035635,0.02174821419757948
12.59465478841871,0.04415704400768855
12.628062360801783,0.060762387821324496
12.661469933184856,0.06865773235657589
12.69487750556793,0.0709216312849051
12.728285077951004,0.07466668969842453
12.761692650334076,0.08707364989827861
12.795100222717151,0.11097245920258166
12.828507795100224,0.14210905615741037
12.861915367483297,0.16985119823737188
12.895322939866372,0.18160144077479745
12.928730512249444,0.16918329761732578
12.962138084632517,0.1340394937780662
12.995545657015592,0.0882075855108962
13.028953229398665,0.0499193838830187
13.062360801781738,0.03546349569499154
13.095768374164813,0.051139936889946336
13.129175946547885,0.08940058171439914
13.162583518930958,0.13132328645934027
13.195991091314033,0.15440699215376527
13.229398663697106,0.14202121095015874
13.262806236080179,0.09012268980747687
13.296213808463254,0.008370928859620663
13.329621380846326,-0.08440010607897527
13.3630289532294,-0.16781763320480697
13.396436525612474,-0.2271042784671218
13.429844097995547,-0.25686728919978075
13.46325167037862,-0.26066095283249496
13.496659242761694,-0.24745447625762956
13.530066815144767,-0.2272039456646383
13.56347438752784,-0.2074842211089779
13.596881959910915,-0.19199328771563812
13.630289532293988,-0.18057629655616522
13.66369710467706,-0.169973161783266
13.697104677060135,-0.15485276291660136
13.730512249443208,-0.12926349279358834
13.763919821826281,-0.08870347811349336
13.797327394209356,-0.032452198589335894
13.830734966592429,0.034846540750007544
13.864142538975502,0.10340513306315557
13.897550111358576,0.1606283147757368
13.93095768374165,0.19483805666753826
13.964365256124722,0.19902400111964508
13.997772828507797,0.1733416143314675
14.03118040089087,0.12565659091312273
14.064587973273943,0.07004011375869235
14.097995545657017,0.023497898983011824
14.13140311804009,0.0014624625108608663
14.164810690423163,0.012924217284825925
14.198218262806238,0.05655119754217557
14.23162583518931,0.11943647978420634
14.265033407572384,0.17975394809789413
14.298440979955458,0.21336833793178733
14.331848552338531,0.20264129669056494
14.365256124721604,0.14413204938228957
14.398663697104679,0.05158315382482633
14.432071269487752,-0.047954489493865195
14.465478841870825,-0.12411690354245039
14.4988864142539,-0.15553112110522951
14.532293986636972,-0.13895917728095056
14.565701559020045,-0.09069043388720606
14.59910913140312,-0.03893287545008505
14.632516703786193,-0.010336172311654577
14.665924276169266,-0.016999656838527014
14.69933184855234,-0.05052080884241989
14.732739420935413,-0.08641706668096037
14.766146993318486,-0.09705741497785639
14.79955456570156,-0.06673493895647024
14.832962138084634,-0.0011466730874698304
14.866369710467707,0.0738318375931774
14.899777282850781,0.12384916325415848
14.933184855233854,0.12268533222273617
14.966592427616927,0.06558114829527645
15.0,-0.027416671560849547
