Frequency (Hz),Amplitude
0.0,0.37663830602336734
0.04,0.41628772949011017
0.08,0.5171950418917407
0.12,0.6512117696661794
0.16,0.8015274702702339
0.19999999999999998,0.9600792899964838
0.24,1.122903040238206
0.27999999999999997,1.2878694288602355
0.32,1.453718956766178
0.36,1.6196360011634672
0.39999999999999997,1.7850477179885793
0.44,1.9495224080436506
0.48,2.112714932704956
0.52,2.2743358212328078
0.5599999999999999,2.434132988118812
0.6,2.591880495377724
0.64,2.7473714203721995
0.6799999999999999,2.900413206002657
0.72,3.050824561089459
0.76,3.198433356709692
0.7999999999999999,3.3430751786370014
0.84,3.484592321669659
0.88,3.622833087438992
0.9199999999999999,3.7576512942485647
0.96,3.8889059372820887
1.0,4.016460956825791
1.04,4.140185084914214
1.0799999999999998,4.259951749399605
1.1199999999999999,4.3756390203237086
1.1600000000000001,4.4871295875560895
1.2,4.594310761541918
1.24,4.697074491058485
1.28,4.795317393365828
1.3199999999999998,4.888940793224234
1.3599999999999999,4.977850768055074
1.4,5.061958197121954
1.44,5.141178813062224
1.48,5.215433254444045
1.52,5.284647118289407
1.5599999999999998,5.348751011709387
1.5999999999999999,5.407680601959012
1.64,5.461376664346345
1.68,5.509785127531804
1.72,5.552857115835545
1.76,5.590548988236988
1.7999999999999998,5.622822373805233
1.8399999999999999,5.649644203344551
1.88,5.670986737077304
1.92,5.686827588219487
1.9599999999999997,5.697149742332386
2.0,5.701941572359092
2.0399999999999996,5.701196849277163
2.08,5.694914748319783
2.12,5.6830998507373724
2.1599999999999997,5.665762141090805
2.2,5.642917000086335
2.2399999999999998,5.614585192981681
2.28,5.580792853613068
2.3200000000000003,5.541571464114625
2.36,5.496957830425576
2.4,5.44699405370735
2.44,5.3917274978234335
2.48,5.33121075307051
2.5199999999999996,5.265501596391698
2.56,5.194662948353371
2.6,5.118762827228841
2.6399999999999997,5.0378743006078635
2.68,4.952075435045589
2.7199999999999998,4.861449244382955
2.76,4.766083637521372
2.8,4.666071366627321
2.84,4.561509976992449
2.88,4.452501760100874
2.92,4.339153711885696
2.96,4.221577498730164
2.9999999999999996,4.099889434540536
3.04,3.9742104732679104
3.08,3.844666222701683
3.1199999999999997,3.7113869873711085
3.16,3.5745078512335504
3.1999999999999997,3.434168814895204
3.2399999999999998,3.2905150080181533
3.28,3.1436970062897007
3.32,2.993871295434754
3.36,2.8412009448232247
3.4,2.6858565846193936
3.44,2.52801783067811
3.4799999999999995,2.36787538393713
3.52,2.205634170548889
3.5599999999999996,2.041518132367931
3.5999999999999996,1.8757777175170895
3.64,1.7087019495569284
3.6799999999999997,1.5406385881720412
3.7199999999999998,1.372029291394093
3.76,1.2034741879997175
3.7999999999999994,1.0358579909841543
3.84,0.8706149513941824
3.88,0.7103341095733582
3.9199999999999995,0.5602633334977312
3.96,0.43216927538889127
4.0,0.35184253370989493
4.04,0.35398891406135347
4.079999999999999,0.43750409736481677
4.12,0.5673996014377295
4.16,0.7186789797026915
4.199999999999999,0.8800149830004464
4.24,1.046337140804349
4.28,1.2151294729026538
4.319999999999999,1.3849898394550872
4.36,1.5550481536501584
4.4,1.7247106776319978
4.4399999999999995,1.8935378758428134
4.4799999999999995,2.0611816851193114
4.5200000000000005,2.2273512709601784
4.56,2.3917933541209955
4.6,2.5542804148034786
4.640000000000001,2.714603363586659
4.68,2.872566851244232
4.72,3.027986194127402
4.76,3.180685319852543
4.8,3.3304953751521515
4.84,3.4772537738661575
4.88,3.620803543706913
4.92,3.7609928795998626
4.96,3.897674842149934
5.0,4.0307071594609365
5.039999999999999,4.159952103394135
5.08,4.285276419917842
5.12,4.406551299005848
5.159999999999999,4.52365237354235
5.2,4.6364597394877824
5.24,4.744857991542272
5.279999999999999,4.848736269967398
5.319999999999999,4.947988315261505
5.36,5.042512528144539
5.3999999999999995,5.1322120328735314
5.4399999999999995,5.21699474233406
5.48,5.296773423674728
5.52,5.371465763497763
5.56,5.440994431808928
5.6,5.505287144078287
5.64,5.56427672087986
5.68,5.617901144670794
5.72,5.666103613344965
5.76,5.708832590255962
5.8,5.74604185045355
5.84,5.777690522918329
5.879999999999999,5.803743128613282
5.92,5.824169614199684
5.96,5.838945381289565
5.999999999999999,5.848051311128358
6.04,5.8514737846204055
6.08,5.849204697627202
6.119999999999999,5.841241471483646
6.16,5.82758705869257
6.2,5.808249943771359
6.239999999999999,5.783244139238232
6.279999999999999,5.752589176739297
6.32,5.716310093330826
6.359999999999999,5.674437412945904
6.3999999999999995,5.627007123089347
6.44,5.574060646821461
6.4799999999999995,5.515644810109482
6.52,5.45181180464602
6.56,5.382619146257946
6.6,5.308129629057143
6.64,5.2284112755179155
6.68,5.1435372827067605
6.72,5.053585964939999
6.76,4.958640693207225
6.8,4.858789831777367
6.84,4.754126672504612
6.88,4.644749367481778
6.92,4.530760860858708
6.959999999999999,4.412268820868287
7.0,4.289385573403673
7.04,4.162228038897269
7.08,4.030917674809757
7.119999999999999,3.895580426810383
7.16,3.756346692815879
7.199999999999999,3.6133513056032256
7.239999999999999,3.466733541950124
7.28,3.3166371695480703
7.32,3.16321054785739
7.359999999999999,3.0066068065834877
7.3999999999999995,2.8469841371510105
7.4399999999999995,2.684506251199534
7.4799999999999995,2.51934309062426
7.52,2.351671925027464
7.5600000000000005,2.1816790617120474
7.599999999999999,2.0095625543364073
7.64,1.8355365990912045
7.68,1.6598389047261601
7.719999999999999,1.4827435701817928
7.76,1.304584787225471
7.800000000000001,1.125803412971305
7.839999999999999,0.9470463747716436
7.88,0.7694026842233322
7.92,0.5950475597655074
7.959999999999999,0.4293487466845564
8.0,0.289196878289994
8.040000000000001,0.2292970044527326
8.08,0.30250662478747775
8.12,0.4477794454380137
8.159999999999998,0.6159269851539235
8.2,0.7922234253612137
8.24,0.971864520538288
8.28,1.152850626243203
8.32,1.3341571969678894
8.36,1.5151628811017024
8.399999999999999,1.6954363090087745
8.44,1.8746451053697657
8.48,2.052512830088249
8.52,2.2287968938461473
8.56,2.4032764890809646
8.6,2.575745653590784
8.639999999999999,2.7460091224162313
8.68,2.9138797702515773
8.72,3.0791769994899343
8.76,3.2417257107401802
8.8,3.4013556432055787
8.84,3.5579009561507204
8.879999999999999,3.711199971084563
8.92,3.861095023135276
8.959999999999999,4.007432387781991
9.0,4.1500622602345745
9.040000000000001,4.288838771912481
9.079999999999998,4.423620033178622
9.12,4.554268194634596
9.16,4.680649521430182
9.2,4.802634476526404
9.24,4.920097809895774
9.280000000000001,5.032918651387561
9.32,5.140980605523076
9.36,5.2441718468784915
9.399999999999999,5.342385215002926
9.44,5.435518308036555
9.48,5.523473574357523
9.52,5.606158401711839
9.559999999999999,5.683485203377287
9.6,5.755371500987909
9.639999999999999,5.821740003705399
9.68,5.8825186834713605
9.72,5.937640846112864
9.76,5.987045198105214
9.8,6.030675908821883
9.84,6.068482668123349
9.879999999999999,6.100420739155321
9.92,6.126451006242482
9.959999999999999,6.146540017778209
10.0,6.160660024022757
10.04,6.168789009733653
10.079999999999998,6.1709107215619605
10.12,6.16701469015734
10.16,6.157096246933393
10.2,6.141156535452739
10.24,6.119202517398812
10.280000000000001,6.0912469731087615
10.319999999999999,6.057308496648442
10.36,6.017411485417538
10.4,5.971586124278978
10.44,5.919868364213308
10.48,5.862299895504885
10.52,5.798928115472669
10.559999999999999,5.729806090764318
10.6,5.65499251423846
10.639999999999999,5.57455165646537
10.68,5.488553311882474
10.72,5.397072739646505
10.76,5.3001905992301035
10.799999999999999,5.197992880816156
10.84,5.090570830549247
10.879999999999999,4.978020870709143
10.92,4.860444514877578
10.96,4.737948278175657
11.0,4.610643582655899
11.04,4.478646657940124
11.08,4.3420784372021926
11.12,4.201064448603748
11.16,4.055734702301816
11.2,3.9062235731601973
11.24,3.752669679313744
11.28,3.5952157567571548
11.319999999999999,3.4340085301616674
11.36,3.2691985801685846
11.4,3.1009402074772634
11.44,2.9293912941511357
11.48,2.7547131627353725
11.52,2.5770704340613104
11.559999999999999,2.396630885096275
11.6,2.2135653090598066
11.64,2.0280473816339994
11.68,1.8402535402392768
11.72,1.6503628898593405
11.759999999999998,1.45855716334001
11.799999999999999,1.2650207988643716
11.84,1.0699412901526588
11.879999999999999,0.8735102481160372
11.92,0.675926647538182
11.96,0.4774086618520884
11.999999999999998,0.27825727171678766
12.04,0.07988261184380316
12.08,0.12432443079008827
12.12,0.32406734616649724
12.16,0.5245244823150469
12.200000000000001,0.7249265813930793
12.239999999999998,0.9250017413807837
12.28,1.1245329881214456
12.32,1.3233169751197846
12.36,1.5211553623580605
12.4,1.7178523286732703
12.44,1.9132137526516486
12.479999999999999,2.107046961475308
12.52,2.299160705011595
12.559999999999999,2.489365229652376
12.6,2.677472400045505
12.64,2.863295845151695
12.68,3.0466511170453967
12.719999999999999,3.227355856372237
12.76,3.405229961062733
12.799999999999999,3.5800957562908864
12.84,3.751778164418535
12.88,3.920104874090953
12.92,4.084906507897941
12.959999999999999,4.246016788165191
12.999999999999998,4.403272700534799
13.04,4.5565146550544595
13.08,4.705586644535169
13.12,4.850336399964991
13.16,4.990615542785899
13.2,5.126279733855469
13.239999999999998,5.257188818926164
13.28,5.383206970484006
13.32,5.5042028257957964
13.36,5.620049621020711
13.4,5.7306253212478735
13.44,5.835812746327019
13.479999999999999,5.935499692364747
13.52,6.029579048763707
13.559999999999999,6.117948910687499
13.6,6.200512686838854
13.64,6.277179202444003
13.68,6.3478627973413175
13.719999999999999,6.412483419077662
13.76,6.470966710921581
13.799999999999999,6.523244094707907
13.84,6.569252848434525
13.88,6.608936178538105
13.919999999999998,6.642243286781977
13.959999999999999,6.669129431696265
14.0,6.689555984517166
14.04,6.703490479580172
14.08,6.71090665912964
14.120000000000001,6.711784512515895
14.16,6.706110309760143
14.2,6.69387662947751
14.239999999999998,6.675082381159387
14.28,6.649732821828436
14.32,6.617839567092886
14.36,6.579420596642079
14.399999999999999,6.53450025424233
14.44,6.483109242311989
14.479999999999999,6.425284611177661
14.52,6.361069743140546
14.56,6.290514331514108
14.6,6.213674354832707
14.64,6.1306120464780305
14.68,6.04139586002732
14.719999999999999,5.946100430698895
14.76,5.844806533359515
14.799999999999999,5.737601037670835
14.84,5.624576861096142
14.879999999999999,5.505832920673781
14.919999999999998,5.381474084705056
14.959999999999999,5.251611125821393
15.0,5.116360677316762
15.04,4.975845195196482
15.079999999999998,4.830192929160236
15.120000000000001,4.679537906790017
15.159999999999998,4.524019936675897
15.199999999999998,4.3637846382717695
15.24,4.198983509211349
15.28,4.0297740450727115
15.319999999999999,3.856319932848199
15.36,3.678791348770817
15.399999999999999,3.497365405497175
15.439999999999998,3.3122268160308455
15.48,3.123568877505956
15.52,2.9315949364892195
15.559999999999999,2.7365205961380306
15.600000000000001,2.5385770973366597
15.639999999999999,2.338016616055679
15.679999999999998,2.1351208027185877
15.72,1.9302150408538454
15.76,1.7236933033231308
15.799999999999999,1.516063824407691
15.84,1.308038622387668
15.879999999999999,1.1007235797624078
15.919999999999998,0.8960642258911815
15.96,0.6980267038861147
16.0,0.5161718787947206
16.04,0.37690744407174875
16.080000000000002,0.3395644762896158
16.12,0.4324123267963047
16.16,0.5979325280792074
16.200000000000003,0.7918247909772245
16.24,0.997517245095809
16.279999999999998,1.208707052231887
16.319999999999997,1.4225635142313062
16.36,1.637591872864217
16.4,1.8528844242995393
16.439999999999998,2.0678210450900987
16.48,2.2819352957391397
16.52,2.494848918150811
16.56,2.7062373871161736
16.6,2.91581070179016
16.64,3.123302154023939
16.68,3.3284615036014507
16.72,3.5310507021953432
16.759999999999998,3.7308411503243155
16.799999999999997,3.927611908143576
16.84,4.121148517436623
16.88,4.311242225438917
16.919999999999998,4.497689478827863
16.96,4.68029160292613
17.0,4.858854610022677
17.04,5.033189098985641
17.080000000000002,5.2031102201665504
17.12,5.368437687405589
17.16,5.528995824201325
17.2,5.684613634702688
17.24,5.835124892678808
17.279999999999998,5.9803682433830945
17.32,6.120187314486308
17.36,6.254430833163967
17.4,6.3829527470904965
17.44,6.505612347586748
17.48,6.622274393537816
17.52,6.732809234978717
17.56,6.837092935460457
17.6,6.935007392475591
17.64,7.026440455353086
17.68,7.111286040136167
17.72,7.189444241040527
17.759999999999998,7.260821438158911
17.799999999999997,7.325330401135425
17.84,7.382890388581682
17.88,7.43342724304957
17.919999999999998,7.476873481413702
17.96,7.513168380551832
18.0,7.542258058245121
18.04,7.564095549252982
18.080000000000002,7.5786408765506925
18.12,7.585861117752355
18.159999999999997,7.585730466778722
18.2,7.578230290869884
18.24,7.563349183087294
18.279999999999998,7.541083010500642
18.32,7.511434958313271
18.36,7.4744155702475865
18.4,7.430042785591945
18.44,7.378341973404906
18.48,7.319345964486691
18.52,7.253095081864587
18.560000000000002,7.17963717070602
18.6,7.099027628777706
18.64,7.011329438821779
18.679999999999996,6.916613204533543
18.72,6.814957192218329
18.759999999999998,6.706447380699323
18.799999999999997,6.591177522675831
18.84,6.46924922153305
18.88,6.340772028635739
18.919999999999998,6.205863567476314
18.96,6.064649692796051
19.0,5.917264695102759
19.04,5.763851564071845
19.080000000000002,5.604562328428232
19.119999999999997,5.43955849547526
19.159999999999997,5.2690116210582465
19.2,5.093104051296207
19.24,4.9120298921761245
19.279999999999998,4.725996284021401
19.32,4.535225087878444
19.36,4.339955134593552
19.4,4.140445251981677
19.44,3.9369783825474998
19.48,3.729867252484634
19.52,3.51946228330272
19.560000000000002,3.3061628030972474
19.6,3.0904332059823596
19.639999999999997,2.8728266849251947
19.68,2.65402080929569
19.72,2.434872045460786
19.759999999999998,2.2165012450200208
19.8,2.000430746671141
19.84,1.7888085347125644
19.88,1.584778325105036
19.919999999999998,1.3930820227664942
19.96,1.2209701571872256
20.0,1.0792663714681296
20.04,0.9825391371874919
20.08,0.9458117289386384
20.119999999999997,0.9767048088781773
20.159999999999997,1.0698943540440056
20.2,1.2113371208484411
20.24,1.3863801697949154
20.279999999999998,1.5837953084862033
20.32,1.7959663507476555
20.36,2.017891363288751
20.4,2.2462506641285414
20.44,2.478774322725224
20.48,2.7138503501716764
20.52,2.950286932760821
20.560000000000002,3.187167138838646
20.599999999999998,3.423758519631577
20.639999999999997,3.659455616069159
20.68,3.8937425572245337
20.72,4.126168194020927
20.759999999999998,4.356329229797076
20.8,4.58385856448757
20.84,4.808417108713227
20.88,5.029687952291802
20.92,5.247372159178186
20.96,5.461185704698189
21.0,5.670857227373738
21.04,5.876126369832972
21.08,6.0767425512147835
21.119999999999997,6.272464059344211
21.159999999999997,6.463057382401123
21.2,6.648296721670384
21.24,6.827963642368558
21.279999999999998,7.0018468305334025
21.32,7.169741931895729
21.36,7.331451454442886
21.4,7.486784720652376
21.44,7.635557858553769
21.48,7.777593823167514
21.52,7.912722441683
21.56,8.040780477126638
21.599999999999998,8.161611706342926
21.639999999999997,8.275067008946605
21.68,8.381004464561094
21.72,8.479289456179357
21.759999999999998,8.569794777901741
21.8,8.65240074564472
21.84,8.726995309693535
21.88,8.79347416820499
21.92,8.85174088096545
21.96,8.901706982881516
22.0,8.94329209683537
22.04,8.976424045678241
22.08,9.00103896326985
22.119999999999997,9.017081404603339
22.16,9.02450445518844
22.2,9.023269840005186
22.24,9.013348032490406
22.28,8.994718364184742
22.32,8.967369135854698
22.36,8.931297731118137
22.4,8.886510733851512
22.44,8.83302405095108
22.48,8.770863042371353
22.519999999999996,8.700062660785711
22.56,8.62066760372524
22.599999999999998,8.53273248167562
22.639999999999997,8.43632200637861
22.68,8.331511204531695
22.72,8.218385663258006
22.759999999999998,8.0970418151928
22.8,7.96758727288783
22.84,7.830141224584496
22.88,7.684834906399214
22.92,7.531812169801283
22.96,7.371230168214734
23.0,7.203260193006186
23.04,7.0280886975322865
23.08,6.845918558999397
23.119999999999997,6.656970642588676
23.16,6.461485751950899
23.2,6.259727076645678
23.24,6.051983283032035
23.28,5.838572444271747
23.32,5.61984707286226
23.36,5.396200613192357
23.400000000000002,5.168075883104475
23.44,4.935976138245622
23.479999999999997,4.700479693649576
23.519999999999996,4.4622594048566615
23.56,4.2221088276544885
23.599999999999998,3.980977591827811
23.639999999999997,3.740019488346843
23.68,3.5006579887588614
23.72,3.264675251484048
23.759999999999998,3.034331575497611
23.8,2.8125211921976505
23.84,2.602963529551505
23.88,2.4104090023881257
23.92,2.240792731247708
23.96,2.101189144443194
23.999999999999996,1.9993310455168751
24.04,1.9424777390426822
24.08,1.9357419695614044
24.119999999999997,1.9805766096021007
24.16,2.074367075461711
24.2,2.211410038209595
24.24,2.3845839771737003
24.28,2.586795987858525
24.32,2.8117936236190957
24.36,3.05442452985332
24.400000000000002,3.3105850241880366
24.439999999999998,3.577048984153186
24.479999999999997,3.8512796637047493
24.52,4.131265470386574
24.56,4.415389681603279
24.599999999999998,4.702331632978778
24.64,4.990993330842369
24.68,5.280445388653809
24.72,5.569887235908656
24.759999999999998,5.858617738530476
24.8,6.1460133879899725
24.84,6.431512001958135
24.88,6.714600457490599
24.92,6.994805393850527
24.959999999999997,7.271686118638678
24.999999999999996,7.544829161715142
25.04,7.81384407150853
25.08,8.078360155649031
25.119999999999997,8.338023945064839
25.16,8.592497216583581
25.2,8.84145544985413
25.24,9.084586624367823
25.28,9.321590284546298
25.32,9.552176817418802
25.36,9.776066899857701
25.4,9.992991081766197
25.439999999999998,10.202689478802505
25.479999999999997,10.404911553747993
25.52,10.59941596989983
25.56,10.78597050319702
25.599999999999998,10.96435200239899
25.64,11.134346388697356
25.68,11.295748687780879
25.72,11.44836308868713
25.76,11.592003024835101
25.8,11.726491273496752
25.84,11.851660070676054
25.880000000000003,11.967351238954505
25.919999999999998,12.073416326359707
25.959999999999997,12.169716754738477
25.999999999999996,12.256123976485933
26.04,12.332519638810098
26.08,12.398795755009779
26.119999999999997,12.454854882521179
26.16,12.500610307754997
26.2,12.53598623800732
26.24,12.560918000993373
26.28,12.575352252828436
26.32,12.57924719557363
26.36,12.57257280578279
26.4,12.55531107583894
26.439999999999998,12.52745627026376
26.479999999999997,12.489015199632874
26.52,12.440007515244355
26.56,12.38046602828414
26.599999999999998,12.310437057926082
26.64,12.229980813617836
26.68,12.139171817761259
26.72,12.038099376128644
26.76,11.926868104699492
26.8,11.805598523203017
26.84,11.674427727562092
26.88,11.533510155722125
26.919999999999998,11.383018464093873
26.959999999999997,11.223144535139836
27.0,11.054100640609738
27.04,10.876120789723492
27.08,10.689462297383168
27.119999999999997,10.494407614472832
27.16,10.291266470715088
27.2,10.080378390671628
27.24,9.862115655604693
27.28,9.636886798378496
27.32,9.405140735677406
27.36,9.167371661780814
27.4,8.924124851006765
27.439999999999998,8.676003541394994
27.479999999999997,8.42367709923721
27.52,8.16789069048402
27.56,7.909476706665229
27.599999999999998,7.649368202296817
27.64,7.388614585209216
27.68,7.128399740359377
27.72,6.870062629552794
27.76,6.615120146430203
27.8,6.365291550865591
27.839999999999996,6.122523072581116
27.88,5.889010163251896
27.919999999999998,5.66721331403958
27.959999999999997,5.45986135780431
28.0,5.269933977227797
28.04,5.100613372805488
28.08,4.955194891843876
28.12,4.836949558880523
28.16,4.748939468045583
28.2,4.693800091253349
28.240000000000002,4.673518906311238
28.28,4.689251048375208
28.32,4.741212514380791
28.359999999999996,4.828676295166929
28.4,4.950071107124542
28.439999999999998,5.103157070599326
28.479999999999997,5.285238335055046
28.52,5.493373061892826
28.56,5.724552452858362
