Frequency (Hz),Amplitude
0.0,0.4482473358924164
0.01993355481727575,0.4486130897476789
0.0398671096345515,0.44970696731252546
0.059800664451827246,0.45151890536536077
0.079734219269103,0.45403242208114253
0.09966777408637874,0.4572250329748342
0.11960132890365449,0.461068796768834
0.13953488372093023,0.46553095966300523
0.159468438538206,0.4705746635635087
0.17940199335548174,0.47615968403724745
0.19933554817275748,0.4822431666326159
0.21926910299003324,0.4887803350152255
0.23920265780730898,0.495725150277662
0.25913621262458475,0.5030309070132007
0.27906976744186046,0.5106507576601829
0.29900332225913623,0.5185381617847739
0.318936877076412,0.5266472611350471
0.3388704318936877,0.534933184396951
0.3588039867109635,0.5433522876668707
0.37873754152823924,0.551862337859865
0.39867109634551495,0.5604226467669519
0.4186046511627907,0.5689941634373227
0.4385382059800665,0.5775395321540299
0.4584717607973422,0.5860231226342044
0.47840531561461797,0.5944110383255251
0.49833887043189373,0.6026711078712023
0.5182724252491695,0.6107728640326755
0.5382059800664452,0.6186875136277166
0.5581395348837209,0.6263879013837769
0.5780730897009968,0.6338484700287751
0.5980066445182725,0.6410452184476846
0.6179401993355482,0.6479556593180791
0.637873754152824,0.6545587772941758
0.6578073089700996,0.6608349885300676
0.6777408637873754,0.6667661021087666
0.6976744186046512,0.6723352837670143
0.717607973421927,0.6775270221683197
0.7375415282392027,0.6823270978720124
0.7574750830564785,0.686722555067821
0.7774086378737541,0.6907016760886511
0.7973421926910299,0.6942539586749823
0.8172757475083057,0.6973700959382858
0.8372093023255814,0.7000419589561088
0.8571428571428572,0.7022625819249564
0.877076411960133,0.7040261497970584
0.8970099667774087,0.7053279883326711
0.9169435215946844,0.7061645565082052
0.9368770764119602,0.7065334412331311
0.9568106312292359,0.7064333543423443
0.9767441860465116,0.7058641318467571
0.9966777408637875,0.7048267354422952
1.0166112956810631,0.703323256294049
1.036544850498339,0.7013569211318308
1.0564784053156147,0.6989321007093485
1.0764119601328903,0.6960543206983143
1.0963455149501662,0.69273027510323
1.1162790697674418,0.6889678422984977
1.1362126245847177,0.684776103800189
1.1561461794019936,0.6801653658943203
1.176079734219269,0.6751471842460937
1.196013289036545,0.6697343916127109
1.2159468438538206,0.6639411287701404
1.2358803986710964,0.6577828787422885
1.255813953488372,0.6512765043837553
1.275747508305648,0.6444402893116155
1.2956810631229239,0.637293982102742
1.3156146179401993,0.6298588435640516
1.3355481727574752,0.6221576967370483
1.3554817275747508,0.61421497910683
1.3754152823920267,0.6060567962386229
1.3953488372093024,0.5977109757524949
1.4152823920265782,0.5892071201553118
1.435215946843854,0.5805766565698681
1.4551495016611296,0.5718528808198823
1.4750830564784054,0.563070992642601
1.495016611295681,0.5542681180024762
1.514950166112957,0.5454833135794925
1.5348837209302328,0.5367575475229184
1.5548172757475083,0.5281336495372182
1.5747508305647842,0.5196562223678789
1.5946843853820598,0.5113715058794953
1.6146179401993357,0.5033271843069334
1.6345514950166113,0.4955721270889691
1.6544850498338872,0.4881560541797321
1.6744186046511629,0.481129118115091
1.6943521594684385,0.47454139762205083
1.7142857142857144,0.4684423013885198
1.73421926910299,0.4628798858387206
1.754152823920266,0.4579000972984232
1.7740863787375416,0.453545956454613
1.7940199335548175,0.4498567109154586
1.8139534883720931,0.4468669890839858
1.8338870431893688,0.44460599440238785
1.8538205980066447,0.4430967821952013
1.8737541528239203,0.442355660893398
1.893687707641196,0.4423917548250695
1.9136212624584719,0.44320675707001006
1.9335548172757475,0.44479488883550083
1.9534883720930232,0.44714306776155377
1.9734219269102993,0.4502312732327895
1.993355481727575,0.4540330839369891
2.0132890365448506,0.45851635305892535
2.0332225913621262,0.4636439805677569
2.0531561461794023,0.46937474031467274
2.073089700996678,0.4756641217356883
2.0930232558139537,0.4824651510172835
2.1129568106312293,0.48972916355139817
2.132890365448505,0.4974065072866468
2.1528239202657806,0.5054471642358362
2.1727574750830567,0.5138012842405073
2.1926910299003324,0.5224196307126378
2.212624584717608,0.5312539423175056
2.2325581395348837,0.5402572174614042
2.25249169435216,0.5493839301652191
2.2724252491694354,0.5585901866593643
2.292358803986711,0.5678338320665851
2.312292358803987,0.5770745160672441
2.332225913621263,0.5862737256571835
2.352159468438538,0.595394792158288
2.3720930232558137,0.6044028786386849
2.39202657807309,0.6132649529165031
2.4119601328903655,0.6219497504082183
2.431893687707641,0.6304277302636235
2.4518272425249172,0.6386710275174466
2.471760797342193,0.646653403382445
2.4916943521594686,0.6543501953036045
2.511627906976744,0.6617382679801833
2.5315614617940203,0.6687959662290973
2.551495016611296,0.6755030702985927
2.5714285714285716,0.6818407540352824
2.5913621262458477,0.6877915461483963
2.611295681063123,0.6933392946963902
2.6312292358803986,0.6984691348327265
2.6511627906976742,0.7031674597862438
2.6710963455149503,0.7074218950081422
2.691029900332226,0.7112212753919918
2.7109634551495017,0.7145556254587123
2.7308970099667778,0.7174161423938337
2.7508305647840534,0.719795181827075
2.770764119601329,0.721686246253016
2.7906976744186047,0.72308397600413
2.810631229235881,0.7239841427037034
2.8305647840531565,0.7243836451449929
2.850498338870432,0.72428050756374
2.870431893687708,0.7236738802934716
2.8903654485049834,0.7225640428170103
2.910299003322259,0.7209524092523484
2.9302325581395348,0.7188415363369752
2.950166112956811,0.716235134001133
2.9700996677740865,0.7131380786480837
2.990033222591362,0.7095564292866107
3.0099667774086383,0.7054974466887785
3.029900332225914,0.7009696157732874
3.0498338870431896,0.6959826714406421
3.0697674418604657,0.6905476281107509
3.089700996677741,0.6846768132342675
3.1096345514950166,0.6783839050653713
3.129568106312292,0.671683974991764
3.1495016611295683,0.6645935347165441
3.169435215946844,0.6571305885701844
3.1893687707641196,0.6493146911948836
3.2093023255813957,0.6411670107813234
3.2292358803986714,0.6327103979398951
3.249169435215947,0.6239694601445378
3.2691029900332227,0.6149706414839895
3.289036544850499,0.6057423071752535
3.3089700996677744,0.5963148319188478
3.32890365448505,0.586720690681772
3.3488372093023258,0.5769945498565403
3.3687707641196014,0.5671733559366108
3.388704318936877,0.5572964178436324
3.4086378737541527,0.5474054778184477
3.428571428571429,0.5375447643335204
3.4485049833887045,0.5277610188080064
3.46843853820598,0.5181034860430416
3.4883720930232562,0.5086238563297811
3.508305647840532,0.49937614525966045
3.5282392026578075,0.49041649561295986
3.548172757475083,0.48180288464120974
3.5681063122923593,0.4735947200125829
3.588039867109635,0.46585230916475096
3.60797342192691,0.4586361903510627
3.6279069767441863,0.4520063197646967
3.647840531561462,0.4460211180881415
3.6677740863787376,0.4407363915861378
3.6877076411960132,0.4362041568506943
3.7076411960132893,0.43247141326071464
3.727574750830565,0.429578921216557
3.7475083056478407,0.4275600548509112
3.7674418604651168,0.42643980273104815
3.787375415282392,0.4262339870934719
3.807308970099668,0.4269487605448691
3.8272425249169437,0.4285804196302455
3.8471760797342194,0.43111554953506065
3.867109634551495,0.4345314870041659
3.887043189368771,0.4387970633395351
3.9069767441860463,0.4438735696382929
3.9269102990033224,0.4497158745922592
3.9468438538205985,0.45627362191494114
3.9667774086378738,0.4634924389757667
3.98671096345515,0.4713150985704197
4.0066445182724255,0.4796825894958382
4.026578073089701,0.48853506635009747
4.046511627906977,0.4978126628285632
4.0664451827242525,0.5074561644859646
4.086378737541528,0.5174075458827682
4.106312292358805,0.5276103831651443
4.1262458471760795,0.538010156734753
4.146179401993356,0.5485544602234629
4.166112956810632,0.5591931320332217
4.186046511627907,0.569878324730251
4.205980066445183,0.5805645260113259
4.225913621262459,0.5912085431089483
4.245847176079734,0.6017694605956097
4.26578073089701,0.6122085797325544
4.2857142857142865,0.6224893458672276
4.305647840531561,0.6325772689576981
4.325581395348838,0.6424398410972834
4.345514950166113,0.6520464539212407
4.365448504983389,0.6613683179770106
4.385382059800665,0.6703783855065552
4.40531561461794,0.6790512775974095
4.425249169435216,0.6873632162834851
4.445182724252492,0.6952919618955483
4.465116279069767,0.7028167557555841
4.485049833887043,0.7099182681630021
4.50498338870432,0.7165785515198325
4.524916943521594,0.7227809983774062
4.544850498338871,0.7285103041484917
4.5647840531561465,0.7337524342107523
4.584717607973422,0.7384945951239577
4.604651162790698,0.7427252096910963
4.624584717607974,0.7464338956084197
4.644518272425249,0.7496114474707729
4.664451827242526,0.7522498219229796
4.6843853820598005,0.754342125775669
4.704318936877076,0.7558826069328757
4.724252491694353,0.7568666480102234
4.7441860465116275,0.7572907625531636
4.764119601328904,0.7571525937984481
4.78405315614618,0.7564509159546576
4.803986710963455,0.755185638012964
4.823920265780731,0.753357810134306
4.8438538205980075,0.750969632696962
4.863787375415282,0.7480244681265966
4.883720930232559,0.744526855672273
4.9036544850498345,0.740482529334034
4.92358803986711,0.7358984391938398
4.943521594684386,0.7307827764488267
4.963455149501661,0.7251450024970783
4.983388704318937,0.7189958824791585
5.003322259136213,0.7123475237343003
5.023255813953488,0.7052134196873183
5.043189368770764,0.6976084997402194
5.063122923588041,0.689549185798474
5.083056478405315,0.6810534561143935
5.102990033222592,0.6721409171735221
5.122923588039868,0.6628328843799735
5.142857142857143,0.6531524723035073
5.162790697674419,0.6431246952252466
5.182724252491695,0.6327765786428583
5.20265780730897,0.6221372822518684
5.222591362126246,0.6112382346777798
5.242524916943522,0.6001132798608921
5.262458471760797,0.5887988344464766
5.282392026578074,0.5773340547526224
5.3023255813953485,0.5657610108079318
5.322259136212625,0.5541248634960719
5.342192691029901,0.5424740389254722
5.362126245847176,0.530860391676047
5.382059800664452,0.5193393454876736
5.4019933554817285,0.5079699962110019
5.421926910299003,0.49681515747731797
5.44186046511628,0.4859413247181986
5.4617940199335555,0.47541852822497294
5.48172757475083,0.46532004148971523
5.501661129568107,0.45572190804755536
5.5215946843853825,0.4467022497415376
5.541528239202658,0.4383403233582493
5.561461794019934,0.4307153026556659
5.5813953488372094,0.42390478038179225
5.601328903654485,0.4179830105671645
5.621262458471762,0.41301894420254853
5.641196013289036,0.409074148224807
5.661129568106313,0.4062007329516898
5.681063122923589,0.40443943930658766
5.700996677740864,0.4038180466335817
5.72093023255814,0.40435024889173626
5.740863787375416,0.4060351101597246
5.760797342192691,0.40885715399613204
5.780730897009967,0.4127870748413527
5.800664451827243,0.4177829956733723
5.820598006644518,0.4237921461955562
5.840531561461795,0.4307528076413584
5.8604651162790695,0.4385963658980255
5.880398671096346,0.4472493308184641
5.900332225913622,0.45663520958384196
5.920265780730897,0.4666761580295515
5.940199335548173,0.47729436918724255
5.960132890365449,0.4884131883044971
5.980066445182724,0.4999579660345709
6.0,0.5118566760460838
6.0199335548172765,0.5240403309640804
6.039867109634551,0.5364432328937885
6.059800664451828,0.5490030934688428
6.0797342192691035,0.56166105487448
6.099667774086379,0.5743616387622533
6.119601328903655,0.5870526451865319
6.139534883720931,0.5996850191508001
6.159468438538206,0.6122126983177297
6.179401993355482,0.6245924520226876
6.1993355481727574,0.6367837189403361
6.219269102990033,0.6487484485424938
6.23920265780731,0.6604509497753739
6.259136212624584,0.6718577490931241
6.279069767441861,0.6829374590309363
6.299003322259137,0.6936606578155623
6.318936877076412,0.703999780029468
6.338870431893688,0.7139290180215763
6.3588039867109645,0.7234242335482793
6.378737541528239,0.7324628790060874
6.398671096345516,0.7410239275547171
6.418604651162791,0.7490878114107992
6.438538205980066,0.7566363676026197
6.458471760797343,0.7636527905068441
6.4784053156146175,0.770121590530242
6.498338870431894,0.7760285583496346
6.51827242524917,0.7813607341765845
6.538205980066445,0.7861063815681794
6.558139534883721,0.7902549653599493
6.578073089700998,0.7937971333501141
6.598006644518272,0.7967247014162028
6.617940199335549,0.7990306417945744
6.6378737541528245,0.8007090743017633
6.6578073089701,0.8017552603224165
6.677740863787376,0.8021655994342827
6.6976744186046515,0.8019376285847479
6.717607973421927,0.8010700237776484
6.737541528239203,0.7995626042737014
6.7574750830564785,0.7974163393530599
6.777408637873754,0.794633357735818
6.797342192691031,0.7912169598056574
6.8172757475083055,0.7871716328344646
6.837209302325582,0.7825030694626726
6.857142857142858,0.7772181897515897
6.877076411960133,0.7713251671920041
6.897009966777409,0.764833459127751
6.9169435215946855,0.7577538421362702
6.93687707641196,0.7500984529998201
6.956810631229236,0.7418808360036595
6.9767441860465125,0.7331159974107397
6.996677740863787,0.7238204680876446
7.016611295681064,0.7140123753933986
7.036544850498339,0.703711525590722
7.056478405315615,0.692939498196423
7.076411960132891,0.6817197538496332
7.096345514950166,0.6700777574370167
7.116279069767442,0.6580411183618093
7.136212624584719,0.6456397499610577
7.156146179401993,0.6329060501379294
7.17607973421927,0.6198751052449571
7.196013289036546,0.6065849190765394
7.21594684385382,0.5930766684288933
7.235880398671097,0.5793949859584486
7.2558139534883725,0.5655882698744176
7.275747508305648,0.5517090181530315
7.295681063122924,0.5378141822224372
7.3156146179402,0.5239655311518843
7.335548172757475,0.5102300119564595
7.355481727574752,0.4966800843626234
7.3754152823920265,0.48339399899098195
7.395348837209303,0.47045597630818103
7.415282392026579,0.45795623016916853
7.435215946843854,0.44599076527705117
7.45514950166113,0.4346608644275108
7.475083056478406,0.4240721723691483
7.495016611295681,0.41433328347595433
7.514950166112956,0.4055537564740519
7.5348837209302335,0.3978415176508318
7.554817275747508,0.39129967865980664
7.574750830564784,0.38602288514107524
7.5946843853820605,0.38209341794630014
7.614617940199336,0.3795773693118659
7.634551495016611,0.3785212834402711
7.6544850498338874,0.37894965630719774
7.674418604651163,0.3808636166814793
7.694352159468439,0.38424096505975314
7.714285714285715,0.3890375595923062
7.73421926910299,0.395189853668493
7.754152823920266,0.4026182528802798
7.774086378737542,0.41123089649455485
7.794019933554818,0.42092748259218554
7.813953488372093,0.4316028280178128
7.83388704318937,0.44314995550683345
7.853820598006645,0.4554626034278744
7.8737541528239205,0.4684371396434951
7.893687707641197,0.4819739215391577
7.913621262458472,0.4959781791279732
7.9335548172757475,0.5103605119975035
7.953488372093024,0.5250370901215916
7.9734219269103,0.5399296392341488
7.9933554817275745,0.5549652782303458
8.013289036544851,0.5700762620607644
8.033222591362128,0.5851996706322126
8.053156146179402,0.600277073180328
8.073089700996679,0.6152541886689159
8.093023255813954,0.6300805558876833
8.11295681063123,0.6447092217873501
8.132890365448505,0.6590964528851474
8.152823920265782,0.673201471978829
8.172757475083056,0.6869862206536396
8.192691029900331,0.7004151469284942
8.21262458471761,0.7134550166928059
8.232558139534884,0.7260747471987778
8.252491694352159,0.738245260699238
8.272425249169435,0.7499393562851029
8.292358803986712,0.7611315980304304
8.312292358803987,0.7717982176591073
8.332225913621263,0.7819170300832322
8.352159468438538,0.7914673603118721
8.372093023255815,0.8004299803797709
8.392026578073091,0.8087870550920996
8.411960132890366,0.8165220955201492
8.43189368770764,0.8236199193114014
8.451827242524917,0.8300666169953074
8.471760797342194,0.8358495235730482
8.491694352159469,0.8409571947767677
8.511627906976745,0.84537938747106
8.53156146179402,0.8491070437491017
8.551495016611296,0.8521322783473629
8.571428571428573,0.8544483690690169
8.591362126245848,0.8560497499663376
8.611295681063122,0.8569320070891675
8.6312292358804,0.85709187665997
8.651162790697676,0.8565272455872431
8.67109634551495,0.8552371542794983
8.691029900332227,0.8532218017724381
8.710963455149502,0.8504825532332528
8.730897009966778,0.8470219499594693
8.750830564784053,0.842843722046582
8.77076411960133,0.8379528039603272
8.790697674418604,0.8323553533167846
8.81063122923588,0.8260587732485427
8.830564784053157,0.8190717388202676
8.850498338870432,0.8114042280525527
8.870431893687707,0.8030675582238451
8.890365448504983,0.7940744282464008
8.91029900332226,0.7844389680592336
8.930232558139535,0.7741767961507527
8.950166112956811,0.7633050865208673
8.970099667774086,0.7518426466205594
8.990033222591363,0.7398100080712989
9.00996677740864,0.7272295322711088
9.029900332225914,0.7141255333426844
9.049833887043189,0.7005244212743291
9.069767441860467,0.6864548685472525
9.089700996677742,0.6719480040275604
9.109634551495017,0.6570376384181925
9.129568106312293,0.6417605260889819
9.14950166112957,0.6261566685917472
9.169435215946844,0.6102696655474799
9.189368770764121,0.5941471187510186
9.209302325581396,0.577841095093076
9.22923588039867,0.5614086529798724
9.249169435215949,0.5449124349343913
9.269102990033224,0.5284213254176189
9.289036544850498,0.5120111668183853
9.308970099667773,0.49576551697693383
9.328903654485051,0.4797764172264456
9.348837209302326,0.4641451192979618
9.368770764119601,0.44898269120628714
9.388704318936878,0.4344103858131295
9.408637873754152,0.4205596123602725
9.428571428571429,0.40757130556369664
9.448504983388705,0.3955944491190985
9.46843853820598,0.3847834983518641
9.488372093023255,0.37529448520017233
9.508305647840533,0.3672797052929428
9.528239202657808,0.36088109986894007
9.548172757475083,0.35622274511170077
9.56810631229236,0.3534031926378576
9.588039867109636,0.35248866368894916
9.60797342192691,0.3535081634541465
9.627906976744187,0.356451369199245
9.647840531561462,0.3612696757413252
9.667774086378738,0.3678801883962877
9.687707641196015,0.3761719305810793
9.70764119601329,0.3860132394580195
9.727574750830565,0.39725931100900486
9.747508305647841,0.40975906772571274
9.767441860465118,0.4233608406958224
9.787375415282392,0.43791667084275965
9.807308970099669,0.4532852721653602
9.827242524916944,0.46933384208394474
9.84717607973422,0.48593896256356284
9.867109634551497,0.5029868364784319
9.887043189368772,0.5203730726433258
9.906976744186046,0.5380021896165957
9.926910299003321,0.5557869648282859
9.9468438538206,0.5736477178100985
9.966777408637874,0.5915115863340655
9.986710963455149,0.6093118319407804
10.006644518272426,0.6269871955141644
10.026578073089702,0.6444813128290712
10.046511627906977,0.6617421930388335
10.066445182724253,0.6787217587859362
10.086378737541528,0.6953754441671706
10.106312292358805,0.7116618455448565
10.126245847176081,0.727542419730467
10.146179401993356,0.7429812240753526
10.16611295681063,0.7579446932843885
10.186046511627907,0.7724014481908154
10.205980066445184,0.7863221322119526
10.225913621262459,0.799679271695756
10.245847176079735,0.8124471568371431
10.26578073089701,0.8246017402765806
10.285714285714286,0.8361205508843886
10.305647840531563,0.846982620580409
10.325581395348838,0.8571684223435833
10.345514950166113,0.8666598178298318
10.36544850498339,0.8754400132471087
10.385382059800666,0.8834935223340077
10.40531561461794,0.8908061354595681
10.425249169435217,0.8973648940096972
10.445182724252492,0.9031580693531758
10.465116279069768,0.9081751457910825
10.485049833887045,0.9124068069901196
10.50498338870432,0.9158449254852769
10.524916943521594,0.9184825549124445
10.544850498338871,0.9203139246992319
10.564784053156147,0.9213344370034179
10.584717607973422,0.9215406657457925
10.604651162790697,0.9209303576370453
10.624584717607974,0.9195024351511499
10.64451827242525,0.9172570014480815
10.664451827242525,0.914195347301403
