Time (s),Filtered Signal
0.0,-0.024092709223364733
0.03337028824833703,-0.09792077228096396
0.06674057649667406,-0.12753763147710798
0.10011086474501109,-0.09215146408110005
0.13348115299334812,-0.005625723969305935
0.16685144124168516,0.08873689865477173
0.20022172949002218,0.13766564476474846
0.2335920177383592,0.10225238563679884
0.26696230598669624,-0.02422814495088554
0.3003325942350333,-0.2129069691082931
0.3337028824833703,-0.4112243678920468
0.3670731707317073,-0.5640151445606301
0.40044345898004435,-0.6339109973306422
0.4338137472283814,-0.6123914524155639
0.4671840354767184,-0.5180150997805305
0.5005543237250555,-0.38464140855632994
0.5339246119733925,-0.24655876663827683
0.5672949002217295,-0.12758017981750988
0.6006651884700666,-0.03783516049457084
0.6340354767184035,0.022622075122452873
0.6674057649667406,0.057599232578824704
0.7007760532150776,0.07064193665833751
0.7341463414634146,0.0654012431331129
0.7675166297117517,0.049355876521373555
0.8008869179600887,0.037099301424486524
0.8342572062084257,0.049238036071995867
0.8676274944567628,0.105461796912057
0.9009977827050998,0.21415809214421838
0.9343680709534368,0.3638349344586386
0.9677383592017739,0.5217674692112946
1.001108647450111,0.642326254005649
1.0344789356984478,0.6827194040831928
1.067849223946785,0.6197950113836356
1.101219512195122,0.46034059010437706
1.134589800443459,0.23984385483989723
1.167960088691796,0.009879471257295722
1.2013303769401331,-0.18039019872285414
1.23470066518847,-0.30041780356412273
1.268070953436807,-0.3453781300619061
1.3014412416851442,-0.33210880117267366
1.3348115299334813,-0.2873180674931821
1.3681818181818182,-0.234827624673971
1.4015521064301553,-0.18814391851088091
1.4349223946784924,-0.15089105115638868
1.4682926829268292,-0.12284705963005935
1.5016629711751663,-0.10617929108297468
1.5350332594235034,-0.10669324625567794
1.5684035476718403,-0.12842643320493716
1.6017738359201774,-0.16484971664437512
1.6351441241685145,-0.1933792830047443
1.6685144124168514,-0.17939849544133515
1.7018847006651885,-0.09109966917243141
1.7352549889135256,0.08054353307455299
1.7686252771618625,0.3073843796086552
1.8019955654101996,0.5254562654301026
1.8353658536585367,0.6554262467919686
1.8687361419068735,0.6354929370338651
1.9021064301552106,0.4522053872150441
1.9354767184035477,0.15359518150071036
1.9688470066518848,-0.16404914302034623
2.002217294900222,-0.39244191195281003
2.035587583148559,-0.45592659581656814
2.0689578713968957,-0.34472301885105583
2.102328159645233,-0.12102314983079318
2.13569844789357,0.10623217296982358
2.1690687361419068,0.22789111170065643
2.202439024390244,0.1822051554875471
2.235809312638581,-0.017988161411289165
2.269179600886918,-0.29123035797191915
2.302549889135255,-0.5241026505386046
2.335920177383592,-0.6216704151288337
2.369290465631929,-0.5482197859248784
2.4026607538802662,-0.3395998280664086
2.436031042128603,-0.08243467690806815
2.46940133037694,0.12844662528202913
2.5027716186252773,0.23294796144747976
2.536141906873614,0.22850884269738353
2.569512195121951,0.163329204707919
2.6028824833702884,0.10571572445352545
2.6362527716186253,0.10656848106344158
2.6696230598669626,0.17405518520099747
2.7029933481152995,0.2719453991714555
2.7363636363636363,0.3405053208551817
2.7697339246119737,0.3280051483727211
2.8031042128603105,0.21695358696340375
2.8364745011086474,0.03328648185011776
2.8698447893569847,-0.16415440945804347
2.9032150776053216,-0.3075134965974214
2.9365853658536585,-0.3460980559195897
2.969955654101996,-0.2644924559866809
3.0033259423503327,-0.08689063717206776
3.0366962305986696,0.13235772019349726
3.070066518847007,0.3274689954666854
3.1034368070953438,0.4423762053247272
3.1368070953436806,0.44738156539147267
3.170177383592018,0.34620329213680195
3.203547671840355,0.1716033858734891
3.2369179600886917,-0.02821276395842754
3.270288248337029,-0.20683999081068308
3.303658536585366,-0.3337155537103327
3.337028824833703,-0.3998253930470143
3.37039911308204,-0.4140028558112602
3.403769401330377,-0.39318034582250033
3.437139689578714,-0.3524333778479136
3.470509977827051,-0.29987492788103337
3.503880266075388,-0.23793715104364677
3.537250554323725,-0.16842569200837818
3.5706208425720622,-0.09646978234206639
3.603991130820399,-0.0295888240769361
3.637361419068736,0.02799793065257646
3.6707317073170733,0.08144494156375007
3.70410199556541,0.14583942887204673
3.737472283813747,0.2381982336469031
3.7708425720620844,0.36382879922799666
3.8042128603104213,0.5052447838898865
3.8375831485587586,0.6223258303130087
3.8709534368070955,0.6668564159176141
3.9043237250554323,0.6058167528605595
3.9376940133037697,0.44128331300447937
3.9710643015521065,0.21505119505274034
4.004434589800444,-0.00639744265279048
4.037804878048781,-0.16025798181353243
4.071175166297118,-0.2151187654514469
4.1045454545454545,-0.18398635993536586
4.137915742793791,-0.11623229921870791
4.171286031042128,-0.07303253096661118
4.204656319290466,-0.0989472638512461
4.238026607538803,-0.2032516246108388
4.27139689578714,-0.3585646433746446
4.304767184035477,-0.5152185014195658
4.3381374722838135,-0.6228202979626738
4.371507760532151,-0.6488113072352629
4.404878048780488,-0.5872843356961108
4.438248337028825,-0.456955920730905
4.471618625277162,-0.2916575352617822
4.504988913525499,-0.12827234531665366
4.538359201773836,0.0038732097679568924
4.571729490022173,0.08993852959170996
4.60509977827051,0.1319238571508225
4.638470066518847,0.14622673022469634
4.671840354767184,0.15683878813600388
4.705210643015521,0.18584141041823682
4.738580931263858,0.24431830636738902
4.771951219512196,0.3273744152160025
4.8053215077605325,0.4156622600246043
4.838691796008869,0.4829257721761723
4.872062084257206,0.5061620682850303
4.905432372505543,0.4738684151827155
4.93880266075388,0.3891177646684556
4.972172949002218,0.26696396997447036
5.005543237250555,0.12824326376423403
5.0389135254988915,-0.007030963617232376
5.072283813747228,-0.1240083501226701
5.105654101995565,-0.21398256050954698
5.139024390243902,-0.2726634686441568
5.17239467849224,-0.2975618680458705
5.205764966740577,-0.2865046902564006
5.239135254988914,-0.2385161102669881
5.2725055432372505,-0.15689887699016714
5.305875831485587,-0.05292407654592107
5.339246119733925,0.05229774606017468
5.372616407982262,0.12999870183139176
5.405986696230599,0.15088411558773226
5.439356984478936,0.09590645966201017
5.472727272727273,-0.03295558540531077
5.5060975609756095,-0.2069450349434852
5.539467849223947,-0.3742209305317922
5.572838137472284,-0.4743324091258812
5.606208425720621,-0.4599650895698917
5.639578713968958,-0.31788347121144145
5.672949002217295,-0.07931254734013748
5.706319290465632,0.1870288270582226
5.7396895787139695,0.3988978919175747
5.773059866962306,0.4928809240076519
5.806430155210643,0.4513233351503801
5.83980044345898,0.31107391845220694
5.873170731707317,0.1486967987791714
5.906541019955654,0.04743774084090706
5.939911308203992,0.06008300094888588
5.9732815964523285,0.18450733475734282
6.006651884700665,0.3635317789741847
6.040022172949002,0.5097657579027777
6.073392461197339,0.5443933415132929
6.106762749445676,0.4320699795597263
6.140133037694014,0.19578394356364734
6.173503325942351,-0.0948742172203066
6.2068736141906875,-0.3557905206840039
6.240243902439024,-0.5249710016361105
6.273614190687361,-0.5864704543120461
6.306984478935698,-0.5713715255444802
6.340354767184036,-0.537194445981995
6.373725055432373,-0.5371830246582796
6.40709534368071,-0.5945491248163415
6.4404656319290465,-0.6928306480492716
6.473835920177383,-0.784868786541827
6.507206208425721,-0.8143532991095975
6.540576496674058,-0.7393785827871572
6.573946784922395,-0.5482507646954436
6.607317073170732,-0.2624642142262923
6.640687361419069,0.07237936256899141
6.674057649667406,0.40239849812837475
6.707427937915743,0.6809762730613126
6.74079822616408,0.8784005265678333
6.774168514412417,0.9836141150969951
6.807538802660754,1.0000616638202937
6.840909090909091,0.9398523246992929
6.874279379157428,0.8198725055512114
6.9076496674057655,0.6607534200218534
6.941019955654102,0.4867748192753344
6.974390243902439,0.32389862889611565
7.007760532150776,0.19474453628767885
7.041130820399113,0.11215467393789696
7.07450110864745,0.07487112207748496
7.107871396895788,0.06831283924433053
7.1412416851441245,0.07077595509903419
7.174611973392461,0.06234868678059339
7.207982261640798,0.03236571790277409
7.241352549889135,-0.017866003761566968
7.274722838137472,-0.07779504372841374
7.30809312638581,-0.13396355939468055
7.341463414634147,-0.1768532672148994
7.3748337028824835,-0.20549103992485718
7.40820399113082,-0.22838910475359364
7.441574279379157,-0.2607721887657159
7.474944567627494,-0.3189635389688779
7.508314855875832,-0.4133482046757019
7.541685144124169,-0.54183393643296
7.575055432372506,-0.6862131454040846
7.6084257206208425,-0.8137886706481704
7.641796008869179,-0.8853850103601839
7.675166297117517,-0.8682946970358391
7.708536585365854,-0.7497266103932397
7.741906873614191,-0.5446804648224555
7.775277161862528,-0.29343866635096666
7.808647450110865,-0.04816940269775323
7.842017738359202,0.14639371929587935
7.875388026607539,0.2696207982592078
7.908758314855876,0.3310223013546428
7.942128603104213,0.36252411759016206
7.97549889135255,0.4005707992522593
8.008869179600888,0.46675009152995633
8.042239467849225,0.5564698608302219
8.075609756097561,0.6413254896583565
8.108980044345898,0.6840597045642016
8.142350332594235,0.6587186687663208
8.175720620842572,0.5658423672813759
8.209090909090909,0.43473102045807605
8.242461197339246,0.3110727060418201
8.275831485587583,0.23555943765489748
8.30920177383592,0.22391176820575703
8.342572062084257,0.25839719974843944
8.375942350332595,0.2954138269067618
8.409312638580932,0.28574137133434035
8.442682926829269,0.19777719525915896
8.476053215077606,0.03271946473687945
8.509423503325943,-0.17523062462250588
8.54279379157428,-0.3733241663907826
8.576164079822616,-0.5123692781878593
8.609534368070953,-0.5664288498466107
8.64290465631929,-0.5416906772290656
8.676274944567627,-0.4712562570483992
8.709645232815964,-0.3987853976342235
8.743015521064303,-0.3585270749614266
8.77638580931264,-0.3605247084830517
8.809756097560976,-0.38733395651600355
8.843126385809313,-0.4034649839841558
8.87649667405765,-0.3730776731838175
8.909866962305987,-0.2777055674444015
8.943237250554324,-0.12576673375453873
8.97660753880266,0.05051309225569581
9.009977827050998,0.20915865463978278
9.043348115299334,0.316690093788633
9.076718403547671,0.36190456414431066
9.110088691796008,0.3588634509308988
9.143458980044347,0.3380273981883521
9.176829268292684,0.3301340658839767
9.21019955654102,0.3507755196333071
9.243569844789358,0.3931255589650173
9.276940133037694,0.4321177448542919
9.310310421286031,0.43760145096839637
9.343680709534368,0.38955417234493256
9.377050997782705,0.2876738390642372
9.410421286031042,0.1509984272285948
9.443791574279379,0.008642135822643298
9.477161862527716,-0.11287887454320039
9.510532150776053,-0.19932949019948262
9.543902439024391,-0.2516806899015337
9.577272727272728,-0.2826120058283117
9.610643015521065,-0.3097980074829788
9.644013303769402,-0.3494182038709398
9.677383592017739,-0.4115751836544541
9.710753880266076,-0.4974529493637103
9.744124168514412,-0.5976022645537852
9.77749445676275,-0.6917156251325977
9.810864745011086,-0.7513348138530817
9.844235033259423,-0.7466389003475393
9.87760532150776,-0.6563907511114206
9.910975609756099,-0.47741794471476573
9.944345898004435,-0.2287071754483053
9.977716186252772,0.05317950187730822
10.01108647450111,0.3264004920542678
10.044456762749446,0.5583082626221592
10.077827050997783,0.7347233922677977
10.11119733924612,0.8591551663793721
10.144567627494457,0.9428502441218493
10.177937915742794,0.9920581238068812
10.21130820399113,1.0006641300905053
10.244678492239467,0.9531107641259502
10.278048780487804,0.8361647484296785
10.311419068736143,0.652387377476136
10.34478935698448,0.426566855464254
10.378159645232817,0.19995498348788598
10.411529933481154,0.014028456717634464
10.44490022172949,-0.10817730061544033
10.478270509977827,-0.17303098154203939
10.511640798226164,-0.21301445539607297
10.545011086474501,-0.2700719662377915
10.578381374722838,-0.37371220872557814
10.611751662971175,-0.5249405442632016
10.645121951219512,-0.6941791537869475
10.67849223946785,-0.8341687507415873
10.711862527716187,-0.9012978874887021
10.745232815964524,-0.8747641841756645
10.778603104212861,-0.7643493087926875
10.811973392461198,-0.6035191160135965
10.845343680709535,-0.4319911828607967
10.878713968957872,-0.2771352900224422
10.912084257206208,-0.14396038991086804
10.945454545454545,-0.018724314244196242
10.978824833702882,0.11627181224449182
11.012195121951219,0.2654354762407391
11.045565410199556,0.4105029300126041
11.078935698447895,0.515153276764916
11.112305986696231,0.541931011340799
11.145676274944568,0.4727276428107763
11.179046563192905,0.3217943453325621
11.212416851441242,0.13403690237636118
11.245787139689579,-0.031046816203603427
11.279157427937916,-0.12226165300184094
11.312527716186253,-0.1159222116426769
11.34589800443459,-0.023197271078286244
11.379268292682926,0.11660220204949935
11.412638580931263,0.2526678295613207
11.4460088691796,0.34148222428570174
11.479379157427939,0.3602016501359725
11.512749445676276,0.31046155647277585
11.546119733924613,0.21293402815072096
11.57949002217295,0.09650894309218885
11.612860310421286,-0.012693289645048879
11.646230598669623,-0.09826097981993392
11.67960088691796,-0.15468144554368407
11.712971175166297,-0.18385977394111339
11.746341463414634,-0.18989301283237775
11.77971175166297,-0.17526099346949456
11.813082039911308,-0.14026967821692743
11.846452328159646,-0.0854664977924561
11.879822616407983,-0.014990753703367925
11.91319290465632,0.06161544000410756
11.946563192904657,0.13053618542725282
11.979933481152994,0.17731260076726488
12.01330376940133,0.1911508332246444
12.046674057649668,0.16797271911274037
12.080044345898004,0.1112873289158835
12.113414634146341,0.031175194750429097
12.146784922394678,-0.05778089172808823
12.180155210643015,-0.13905111494809574
12.213525498891352,-0.1971304495884404
12.24689578713969,-0.22091070790639225
12.280266075388028,-0.20688596132173784
12.313636363636364,-0.16095543697005427
12.347006651884701,-0.09752285789003155
12.380376940133038,-0.03549061550744671
12.413747228381375,0.007739424216022763
12.447117516629712,0.02191697520871189
12.480487804878049,0.006809863758444608
12.513858093126386,-0.028919685362636074
12.547228381374723,-0.07211916634710447
12.58059866962306,-0.11058683165326386
12.613968957871396,-0.13698352926650761
12.647339246119735,-0.14966793696729216
12.680709534368072,-0.15067103467605295
12.714079822616409,-0.1425512422068646
12.747450110864746,-0.1263129423092086
12.780820399113082,-0.1016864339832666
12.81419068736142,-0.06939018684555544
12.847560975609756,-0.03355666930999422
12.880931263858093,-0.00221261336711262
12.91430155210643,0.015221628467280564
12.947671840354767,0.012637732527115442
12.981042128603104,-0.008106950166336174
13.014412416851442,-0.03515637331874773
13.04778270509978,-0.0488147547937279
13.081152993348116,-0.027703562203930845
13.114523281596453,0.04300634709034385
13.14789356984479,0.1642697391861369
13.181263858093127,0.3198020167662799
13.214634146341464,0.4787031989877277
13.2480044345898,0.6040704570628721
13.281374722838137,0.6650609062103019
13.314745011086474,0.6478704023012058
13.348115299334811,0.5608767358972057
13.381485587583148,0.43133070592147915
13.414855875831487,0.2947079160893003
13.448226164079824,0.18127662239078565
13.48159645232816,0.10568154027488146
13.514966740576497,0.06367140258312852
13.548337028824834,0.0364630384901377
13.581707317073171,-0.00030637372891155934
13.615077605321508,-0.06760631317122559
13.648447893569845,-0.17743538585939939
13.681818181818182,-0.3312543396175422
13.715188470066519,-0.5206154723458989
13.748558758314855,-0.7277614531617108
13.781929046563192,-0.9256702874256533
13.815299334811531,-1.0793250942582533
13.848669623059868,-1.1508529326234893
13.882039911308205,-1.1095269397083027
13.915410199556542,-0.9441614390869403
13.948780487804878,-0.6723084549946992
13.982150776053215,-0.3402421642781996
14.015521064301552,-0.011039237305844052
14.048891352549889,0.25606601225477693
14.082261640798226,0.4265593703879316
14.115631929046563,0.5018701975265044
14.1490022172949,0.5150247449638586
14.182372505543238,0.5124538575199313
14.215742793791575,0.5308772044408662
14.249113082039912,0.580798308590167
14.282483370288249,0.6445397866748376
14.315853658536586,0.6888778480553011
14.349223946784923,0.684643053744891
14.38259423503326,0.6224567758582398
14.415964523281596,0.5166898961125169
14.449334811529933,0.39676716042648874
14.48270509977827,0.2918085074604078
14.516075388026607,0.21741800639733472
14.549445676274944,0.17104950407399463
14.582815964523283,0.1368265621855364
14.61618625277162,0.09559891154944983
14.649556541019956,0.03417821252775363
14.682926829268293,-0.05048169822986798
14.71629711751663,-0.1527022337341186
14.749667405764967,-0.26255342156472367
14.783037694013304,-0.3699541363917078
14.81640798226164,-0.466289106304992
14.849778270509978,-0.5437262685449719
14.883148558758315,-0.5941229664000804
14.916518847006651,-0.6095398855300105
14.949889135254988,-0.5849979888501923
14.983259423503327,-0.5221762298607742
15.016629711751664,-0.43151168651025923
15.05,-0.3304797864383426
15.083370288248338,-0.2376888043393405
15.116740576496674,-0.16490954155410822
15.150110864745011,-0.11088503585384299
15.183481152993348,-0.06058404147215021
15.216851441241685,0.008705860654045256
15.250221729490022,0.11638720460007257
15.283592017738359,0.2672789897932245
15.316962305986696,0.4452233063830129
15.350332594235034,0.614841560214723
15.383702882483371,0.731364891305769
15.417073170731708,0.7552840649361366
15.450443458980045,0.666805212997226
15.483813747228382,0.47511128005468556
15.517184035476719,0.2188796185570092
15.550554323725056,-0.04306665957320328
15.583924611973393,-0.2490434529311434
15.61729490022173,-0.35466318009280345
15.650665188470066,-0.3486877892283434
15.684035476718403,-0.2577229412601828
15.71740576496674,-0.1364386667510611
15.750776053215079,-0.0459072745045867
15.784146341463416,-0.02837116081519104
15.817516629711752,-0.08926004014466207
15.85088691796009,-0.1948539144488001
15.884257206208426,-0.2873733405843951
15.917627494456763,-0.31139439845707506
15.9509977827051,-0.2400101817853738
15.984368070953437,-0.08878606555222802
16.017738359201775,0.08927915295095043
16.05110864745011,0.2260109961595259
16.08447893569845,0.2677115775308017
16.117849223946784,0.19876126373418695
16.151219512195123,0.04844248411255803
16.184589800443458,-0.12191206377151788
16.217960088691797,-0.24523741261638923
16.251330376940132,-0.27637525832540794
16.28470066518847,-0.2088717619435345
16.31807095343681,-0.07438120947383291
16.351441241685144,0.07367060220407703
16.384811529933483,0.18376985428124187
16.418181818181818,0.2266595404220658
16.451552106430157,0.20432543825713148
16.48492239467849,0.145332990869502
16.51829268292683,0.0900512467070903
16.551662971175165,0.0728062203995614
16.585033259423504,0.10826604969915885
16.61840354767184,0.18688016608251543
16.651773835920178,0.28027298734339756
16.685144124168513,0.35360356631904133
16.71851441241685,0.3793586363199939
16.75188470066519,0.34677335457852837
16.785254988913525,0.26327366245115685
16.818625277161864,0.14815726829106715
16.8519955654102,0.022397835578181934
16.885365853658538,-0.09992124366308355
16.918736141906873,-0.21433725925532154
16.95210643015521,-0.32217430135969793
16.985476718403547,-0.42313116461174843
17.018847006651885,-0.5092385151225143
17.05221729490022,-0.5643593722933964
17.08558758314856,-0.5703176602754025
17.118957871396898,-0.5168761597598445
17.152328159645233,-0.41013455771401075
17.18569844789357,-0.2740411507383763
17.219068736141907,-0.1428917832472298
17.252439024390245,-0.04752728904892086
17.28580931263858,-0.0018455345849140731
