Frequency (Hz),Amplitude
0.0,4.813329895032745
0.019823788546255508,4.810984875105313
0.039647577092511016,4.803952195626862
0.059471365638766524,4.792238995967493
0.07929515418502203,4.775857169958375
0.09911894273127755,4.754823358278402
0.11894273127753305,4.729158937928149
0.13876651982378857,4.698890008928592
0.15859030837004406,4.664047378428906
0.17841409691629956,4.624666542460798
0.1982378854625551,4.580787665637101
0.2180616740088106,4.532455559164859
0.2378854625550661,4.479719657627866
0.25770925110132165,4.422633995096838
0.27753303964757714,4.361257181251005
0.29735682819383263,4.295652378350026
0.31718061674008813,4.225887280087975
0.3370044052863437,4.152034093603144
0.3568281938325991,4.074169526224424
0.37665198237885467,3.9923747789258144
0.3964757709251102,3.906735548964576
0.41629955947136565,3.8173420448318427
0.4361233480176212,3.7242890174994243
0.4559471365638767,3.6276758130753928
0.4757709251101322,3.5276064534844944
0.49559471365638774,3.4241897538114787
0.5154185022026433,3.317539487692852
0.5352422907488987,3.2077746159140337
0.5550660792951543,3.0950195986072933
0.5748898678414097,2.9794048188073265
0.5947136563876653,2.8610671556025413
0.6145374449339208,2.740150760248425
0.6343612334801763,2.6168081107716614
0.6541850220264318,2.491201453578001
0.6740088105726874,2.3635047905161586
0.6938325991189428,2.2339066468608397
0.7136563876651982,2.1026139768121794
0.7334801762114539,1.9698577577447776
0.7533039647577093,1.8359011443854507
0.7731277533039648,1.7010515929126868
0.7929515418502204,1.5656792956407564
0.8127753303964759,1.4302459162876657
0.8325991189427313,1.295350611155539
0.8524229074889869,1.1618058695783737
0.8722466960352424,1.0307660552325528
0.8920704845814978,0.9039503391983924
0.9118942731277534,0.7840319703021488
0.931718061674009,0.6752925907804253
0.9515418502202644,0.5845491231796068
0.9713656387665199,0.5217221021180977
0.9911894273127755,0.49778265997338833
1.0110132158590308,0.5182467975864837
1.0308370044052866,0.5783543488799285
1.0506607929515421,0.6672895203022376
1.0704845814977975,0.7749151426276042
1.090308370044053,0.8941713609187333
1.1101321585903086,1.0206094836088209
1.1299559471365639,1.1514553520533348
1.1497797356828194,1.284930275703441
1.1696035242290752,1.4198442529089355
1.1894273127753305,1.5553628168470246
1.209251101321586,1.690872782764635
1.2290748898678416,1.8259032055223894
1.248898678414097,1.9600775260562733
1.2687224669603525,2.0930837593679663
1.288546255506608,2.2246554092966337
1.3083700440528636,2.354558940621682
1.3281938325991192,2.482585367817356
1.3480176211453747,2.6085444932890574
1.36784140969163,2.7322608903781687
1.3876651982378856,2.8535710597406854
1.4074889867841411,2.9723213900932404
1.4273127753303965,3.0883666800554583
1.4471365638766522,3.2015690576221747
1.4669603524229078,3.311797185469485
1.4867841409691631,3.4189256743789493
1.5066079295154187,3.5228346499315664
1.5264317180616742,3.623409433214145
1.5462555066079295,3.720540307069435
1.5660792951541853,3.814122346991586
1.5859030837004409,3.9040553011489725
1.6057268722466962,3.99024350788756
1.6255506607929517,4.072595841884739
1.6453744493392073,4.15102568219519
1.6651982378854626,4.225450896969616
1.6850220264317182,4.295793840781685
1.7048458149779737,4.361981361372404
1.7246696035242293,4.4239448132887045
1.7444933920704848,4.481620076406907
1.7643171806167404,4.534947577730875
1.7841409691629957,4.583872315167314
1.8039647577092512,4.628343882227038
1.8237885462555068,4.668316492797631
1.8436123348017623,4.703749005290234
1.863436123348018,4.73460494559107
1.8832599118942732,4.7608525283528245
1.9030837004405288,4.782464676247042
1.9229074889867843,4.799419036871803
1.9427312775330399,4.81169799706979
1.9625550660792954,4.8192886944655795
1.982378854625551,4.82218302607764
2.002202643171806,4.820377653902873
2.0220264317180616,4.813874007410637
2.041850220264317,4.802678282920249
2.061674008810573,4.786801439872618
2.0814977973568287,4.766259194043107
2.1013215859030843,4.741072007781442
2.1211453744493394,4.711265077405163
2.140969162995595,4.676868317918762
2.1607929515418505,4.637916345281037
2.180616740088106,4.594448456502567
2.2004405286343616,4.546508607923008
2.220264317180617,4.494145392100258
2.2400881057268722,4.437412013841444
2.2599118942731278,4.376366266025541
2.2797356828193833,4.311070506015435
2.299559471365639,4.241591633640227
2.319383259911895,4.168001071959337
2.3392070484581504,4.090374752310821
2.3590308370044055,4.008793105518135
2.378854625550661,3.923341061607423
2.3986784140969166,3.834108061006886
2.418502202643172,3.741188081010782
2.4383259911894277,3.644679682359812
2.4581497797356833,3.5446860822139454
2.4779735682819384,3.4413152617082345
2.497797356828194,3.3346801188821824
2.5176211453744495,3.2248986813412555
2.537444933920705,3.112094397962806
2.5572687224669606,2.996396535917477
2.577092511013216,2.877940719181357
2.5969162995594717,2.7568696590048374
2.6167400881057272,2.6333341477323846
2.6365638766519828,2.507494418508151
2.6563876651982383,2.379522020539767
2.676211453744494,2.2496024322776798
2.6960352422907494,2.1179387492028363
2.715859030837005,1.9847569666770308
2.73568281938326,1.8503136805534965
2.7555066079295156,1.7149075377709297
2.775330396475771,1.578896650740439
2.7951541850220267,1.4427257560144693
2.8149779735682823,1.306969755660931
2.834801762114538,1.1724056122465873
2.854625550660793,1.0401346405547192
2.874449339207049,0.9117959844793001
2.8942731277533045,0.7899438884468863
2.91409691629956,0.6786970116730574
2.9339207048458156,0.5847094401536249
2.953744493392071,0.5179388309267747
2.9735682819383262,0.48996065910452036
2.993392070484582,0.5073599720362177
3.0132158590308373,0.5659204924101913
3.033039647577093,0.6545114304510148
3.0528634361233484,0.7624707881449783
3.072687224669604,0.882388087887168
3.092511013215859,1.009636159908629
3.1123348017621146,1.1413581480477966
3.1321585903083706,1.2757382412033709
3.151982378854626,1.4115700964043296
3.1718061674008817,1.5480123062220439
3.1916299559471373,1.6844489766303483
3.2114537444933924,1.8204083132575475
3.231277533039648,1.9555136677656595
3.2511013215859035,2.0894532140643514
3.270925110132159,2.221960628695816
3.2907488986784146,2.3528024610994622
3.31057268722467,2.4817696840962227
3.3303964757709252,2.6086719239723752
3.350220264317181,2.733333449039487
3.3700440528634363,2.855590337205981
3.389867841409692,2.9752884496296734
3.4096916299559474,3.092281965336974
3.4295154185022034,3.206432312543943
3.4493392070484585,3.3176073846050627
3.469162995594714,3.4256809628461915
3.4889867841409696,3.5305322915188357
3.508810572687225,3.632045765746814
3.5286343612334807,3.730110704134168
3.5484581497797363,3.8246211852658805
3.5682819383259914,3.915475932699713
3.588105726872247,4.002578236902528
3.6079295154185025,4.085835905386407
3.627753303964758,4.165161234357232
3.6475770925110136,4.2404709967157705
3.667400881057269,4.311686442395472
3.6872246696035247,4.378733307886508
3.7070484581497802,4.441541832455521
3.726872246696036,4.500046779078925
3.7466960352422913,4.554187458501202
3.7665198237885464,4.603907755138275
3.7863436123348024,4.649156153789047
3.8061674008810575,4.689885766311499
3.8259911894273135,4.726054357574911
3.8458149779735686,4.757624370125185
3.8656387665198246,4.7845629471029065
3.8854625550660797,4.806841953038715
3.905286343612335,4.824437992221105
3.925110132158591,4.8373324243924225
3.9449339207048464,4.845511377580465
3.964757709251102,4.84896575791865
3.9845814977973575,4.847691256349049
4.004405286343612,4.841688352139865
4.024229074889869,4.830962313185092
4.044052863436123,4.815523193088615
4.06387665198238,4.795385825070183
4.083700440528634,4.770569812766854
4.103524229074891,4.741099518042301
4.123348017621146,4.7070040459585405
4.143171806167401,4.668317227112467
4.162995594713657,4.625077597593803
4.182819383259912,4.577328376884879
4.2026431718061685,4.525117444098161
4.222466960352423,4.468497313037907
4.242290748898679,4.407525106683135
4.262114537444934,4.342262531824598
4.28193832599119,4.272775854757275
4.301762114537445,4.199135879141274
4.321585903083701,4.121417927411298
4.3414096916299565,4.03970182745563
4.361233480176212,3.9540719067235375
4.381057268722468,3.8646169964882136
4.400881057268723,3.7714304497345266
4.420704845814979,3.6746101771211954
4.440528634361234,3.5742587067707308
4.46035242290749,3.4704832753945163
4.4801762114537445,3.363395960640907
4.500000000000001,3.2531138678230063
4.5198237885462555,3.139759388719648
4.539647577092512,3.0234605565194634
4.559471365638767,2.904351530054639
4.579295154185023,2.782573253574046
4.599118942731278,2.6582743575048626
4.618942731277533,2.531612394241138
4.63876651982379,2.402755546315522
4.658590308370044,2.2718850111893207
4.678414096916301,2.1391983722712617
4.6982378854625555,2.0049144355003885
4.718061674008811,1.869280290776238
4.737885462555067,1.7325818312435353
4.757709251101322,1.595159787272009
4.777533039647578,1.4574348063471056
4.797356828193833,1.3199478265223035
4.817180616740089,1.1834271339961613
4.837004405286344,1.0489034308853684
4.856828193832599,0.9179134443063961
4.876651982378855,0.792867754173875
4.896475770925111,0.6777084478007782
4.9162995594713665,0.578969878325378
4.936123348017622,0.5068590637646057
4.955947136563877,0.4740499682196325
4.975770925110133,0.48868307027577623
4.995594713656388,0.5469374395160553
5.015418502202644,0.6367893799597264
5.035242290748899,0.7466588128235805
5.055066079295155,0.8686567358457784
5.07488986784141,0.9979711664552112
5.094713656387666,1.131689310504323
5.114537444933921,1.2679872249455426
5.134361233480177,1.40566587454726
5.154185022026432,1.543894706288469
5.174008810572688,1.6820681766261614
5.193832599118943,1.8197231831636307
5.213656387665199,1.9564899824022874
5.2334801762114544,2.0920620646745447
5.25330396475771,2.226177105192785
5.2731277533039655,2.358604589448815
5.292951541850221,2.4891375788481866
5.312775330396477,2.617587114189172
5.332599118942731,2.7437783413034182
5.352422907488988,2.8675477862610865
5.372246696035242,2.9887414135129906
5.392070484581499,3.107213227060472
5.4118942731277535,3.222824254493057
5.43171806167401,3.3354418049871732
5.451541850220265,3.444938925943321
5.47136563876652,3.5511940053427735
5.491189427312777,3.6540904821005977
5.511013215859031,3.753516637157836
5.530837004405288,3.8493654453687327
5.550660792951542,3.941534473416508
5.570484581497798,4.029925812703541
5.5903083700440535,4.114446038854489
5.610132158590309,4.195006191445383
5.6299559471365646,4.27152176903494
5.64977973568282,4.343912735669077
5.669603524229076,4.412103535856414
5.689427312775331,4.476023115642759
5.709251101321586,4.53560494789663
5.729074889867842,4.590787060293508
5.748898678414098,4.641512064779711
5.768722466960353,4.687727187528024
5.788546255506609,4.729384298580807
5.808370044052864,4.766439940523678
5.82819383259912,4.798855355651781
5.848017621145375,4.826596511187996
5.867841409691631,4.849634122192646
5.887665198237886,4.867943671871447
5.907488986784142,4.881505429045148
5.927312775330397,4.890304462593438
5.9471365638766525,4.894330652728373
5.966960352422908,4.8935786989911385
5.986784140969164,4.888048124901321
6.00660792951542,4.8777432792207795
6.026431718061675,4.862673333826755
6.04625550660793,4.8428522782208425
6.066079295154186,4.818298910733758
6.085903083700441,4.78903682652077
6.105726872246697,4.75509440248141
6.125550660792952,4.716504779279268
6.145374449339208,4.673305840687064
6.1651982378854635,4.625540190538515
6.185022026431718,4.573255127636023
6.204845814977975,4.5165026190433215
6.224669603524229,4.455339272290291
6.244493392070486,4.389826307136927
6.264317180616741,4.320029527692358
6.284140969162996,4.246019295871309
6.303964757709252,4.1678705074056435
6.323788546255507,4.085662571928678
6.3436123348017635,3.999479399035594
6.363436123348018,3.909409392722632
6.3832599118942746,3.815545457261592
6.403083700440529,3.7179850184275267
6.422907488986785,3.6168300651456584
6.44273127753304,3.5121872181665337
6.462555066079296,3.4041678344748236
6.482378854625551,3.2928881590161363
6.502202643171807,3.178469539325027
6.5220264317180625,3.061038724261412
6.541850220264318,2.9407282760758715
6.561674008810574,2.8176771366048743
6.581497797356829,2.692031405387943
6.601321585903085,2.563945412841701
6.62114537444934,2.433583210100281
6.640969162995596,2.3011206566787474
6.6607929515418505,2.1667483812242287
6.680616740088107,2.0306760427699526
6.700440528634362,1.8931385720687455
6.720264317180618,1.754405501901834
6.740088105726873,1.6147952478302066
6.759911894273129,1.474697561992724
6.779735682819384,1.33460992669034
6.799559471365639,1.195198569796915
6.819383259911895,1.0574045680394086
6.83920704845815,0.9226353332829492
6.859030837004407,0.793121285114128
6.8788546255506615,0.6725865475591278
6.898678414096917,0.5674354631117263
6.918502202643173,0.4882865526983088
6.938325991189428,0.4495132940535892
6.958149779735684,0.46160587608588255
6.977973568281939,0.5210300427503749
6.997797356828195,0.6140422018032882
7.01762114537445,0.7276189387717682
7.037444933920705,0.8532614231875641
7.0572687224669615,0.985992343474727
7.077092511013216,1.1228905324590919
7.096916299559473,1.2621656182603846
7.116740088105728,1.4026567798376088
7.136563876651983,1.5435662170661442
7.156387665198239,1.6843141393896115
7.176211453744494,1.8244570341807493
7.19603524229075,1.9636398518720002
7.215859030837005,2.1015670251777423
7.235682819383261,2.2379843285332437
7.255506607929516,2.3726671921397844
7.275330396475772,2.5054129813020003
7.295154185022027,2.63603578202189
7.314977973568283,2.764362811918821
7.334801762114538,2.890231909916519
7.354625550660794,3.0134897570535655
7.374449339207049,3.1339906022134616
7.394273127753305,3.251595342497464
7.4140969162995605,3.3661708564846533
7.433920704845816,3.477589520260813
7.453744493392072,3.5857288571130286
7.473568281938327,3.690471285985143
7.493392070484583,3.7917039435366204
7.513215859030838,3.8893185614371295
7.533039647577093,3.983211385323337
7.552863436123348,4.073283125273822
7.572687224669605,4.1594389301396015
7.59251101321586,4.241588379884165
7.612334801762115,4.319645491430656
7.6321585903083715,4.3935287345171234
7.651982378854627,4.463161054817862
7.671806167400882,4.5284699021648915
7.691629955947137,4.589387262145743
7.711453744493394,4.645849689696264
7.731277533039649,4.697798343574477
7.751101321585904,4.745179020811962
7.7709251101321595,4.787942190406483
7.790748898678416,4.826043025653528
7.81057268722467,4.859441434622335
7.830396475770926,4.888102088370916
7.850220264317182,4.911994446566751
7.870044052863436,4.931092780241463
7.889867841409693,4.945376191458665
7.909691629955948,4.954828629718868
7.929515418502204,4.95943890496413
7.9493392070484585,4.959200697079381
7.969162995594715,4.954112561819569
7.9889867841409705,4.94417793312111
8.008810572687224,4.929405121784849
8.02863436123348,4.909807310546446
8.048458149779737,4.885402545578875
8.068281938325994,4.856213724502705
8.088105726872246,4.822268581012844
8.107929515418503,4.783599666267315
8.12775330396476,4.740244327225391
8.147577092511014,4.6922446821708075
8.167400881057269,4.639647593712447
8.187224669603525,4.582504639623245
8.207048458149782,4.520872081959816
8.226872246696036,4.454810835006587
8.246696035242293,4.38438643271268
8.266519823788547,4.309668996445722
8.286343612334802,4.230733204083786
8.306167400881058,4.147658261717169
8.325991189427315,4.060527879553478
8.345814977973568,3.969430254036652
8.365638766519824,3.8744580587360464
8.38546255506608,3.7757084472809757
8.405286343612337,3.6732830725746646
8.42511013215859,3.567288127810862
8.444933920704846,3.457834416568854
8.464757709251103,3.34503746167131
8.484581497797357,3.2290176658384158
8.504405286343614,3.109900541887337
8.524229074889869,2.9878170369544703
8.544052863436125,2.8629039849577045
8.56387665198238,2.7353047358350073
8.583700440528636,2.605170031503119
8.60352422907489,2.4726592310725173
8.623348017621145,2.337942038471013
8.643171806167402,2.2012009659527534
8.662995594713658,2.0626348974983313
8.682819383259913,1.9224643338076117
8.702643171806168,1.7809392741786287
8.722466960352424,1.6383513521257065
8.74229074889868,1.495053054031821
8.762114537444935,1.3514891566475773
8.78193832599119,1.208250084862043
8.801762114537446,1.066166300236454
8.821585903083701,0.9264829310548955
8.841409691629957,0.7911975701222553
8.861233480176212,0.663735281785526
8.881057268722468,0.550276590599467
8.900881057268723,0.46191622799242427
8.92070484581498,0.4154938786764599
8.940528634361234,0.42523206181105966
8.960352422907489,0.48779896939235246
8.980176211453745,0.5863777281007619
9.000000000000002,0.7057834255334263
9.019823788546258,0.8368190315783287
9.039647577092511,0.9744237285466406
9.059471365638768,1.1157535403623993
9.079295154185024,1.259113120929805
9.099118942731279,1.4034207101460148
9.118942731277533,1.5479381752748183
9.13876651982379,1.6921294324016056
9.158590308370046,1.8355827524516113
9.1784140969163,1.977966211996823
9.198237885462555,2.119001109226907
9.218061674008812,2.2584455298385366
9.237885462555067,2.396083868965392
9.257709251101323,2.5317199695069035
9.27753303964758,2.665172524408016
9.297356828193834,2.7962719354779737
9.317180616740089,2.9248581324586036
9.337004405286345,3.0507790391328964
9.356828193832602,3.1738894840220357
9.376651982378855,3.2940504219329507
9.396475770925111,3.4111283762399927
9.416299559471367,3.524995040064367
9.436123348017622,3.6355269932057395
9.455947136563877,3.742605504253815
9.475770925110133,3.8461163959058067
9.49559471365639,3.945949957483968
9.515418502202644,4.042000892849549
9.5352422907489,4.134168294906328
9.555066079295155,4.222355640050564
9.57488986784141,4.306470797504621
9.594713656387666,4.386426049637733
9.614537444933923,4.462138120247418
9.634361233480178,4.533528208430011
9.654185022026432,4.6005220261664785
9.674008810572689,4.663049838131854
9.693832599118945,4.721046502531303
9.713656387665198,4.774451511996847
9.733480176211454,4.823209033759736
9.75330396475771,4.867267948457446
9.773127753303967,4.9065818870496285
9.792951541850222,4.941109265410392
9.812775330396477,4.9708133162403785
9.832599118942733,4.995662118005084
9.852422907488988,5.015628620657766
9.872246696035244,5.030690667950508
9.892070484581499,5.040831016174197
9.911894273127754,5.04603734920238
9.93171806167401,5.046302289743102
9.951541850220266,5.041623406730339
9.971365638766521,5.032003218811693
9.991189427312776,5.017449193913564
10.011013215859032,4.997973744888865
10.030837004405289,4.973594221276536
10.050660792951543,4.944332897227879
10.070484581497798,4.910216955681543
10.090308370044054,4.871278468899195
10.11013215859031,4.827554375507579
10.129955947136565,4.779086454231103
10.14977973568282,4.725921294544635
10.169603524229077,4.668110264529667
10.189427312775331,4.605709476281658
10.209251101321588,4.538779749295524
10.229074889867842,4.467386572353477
10.248898678414099,4.391600064560835
10.268722466960353,4.311494936328634
10.28854625550661,4.227150451296162
10.308370044052865,4.138650390436359
10.32819383259912,4.046083019910232
10.348017621145376,3.9495410646591678
10.367841409691632,3.849121690281555
10.387665198237887,3.7449264964833477
10.407488986784141,3.6370615263921993
10.427312775330398,3.5256372973855123
10.447136563876654,3.410768860954318
10.466960352422909,3.2925759017310625
10.486784140969164,3.171182889483467
10.50660792951542,3.0467193031293003
10.526431718061675,2.919319953445352
10.546255506607931,2.789125442372385
10.566079295154186,2.656282813653033
10.585903083700442,2.5209464752593416
10.605726872246697,2.3832795141731062
10.625550660792953,2.2434555880434637
10.645374449339208,2.1016616828084196
10.665198237885463,1.9581022010428897
10.685022026431719,1.8130051500477606
10.704845814977975,1.6666317437308622
10.724669603524232,1.5192917461971795
10.744493392070485,1.3713688518652163
