Frequency (Hz),Amplitude
0.0,6.606573254165947
0.019867549668874173,6.608946913443856
0.039735099337748346,6.616053411602744
0.059602649006622516,6.627849501680419
0.07947019867549669,6.644263739464318
0.09933774834437085,6.665197413419757
0.11920529801324503,6.690525805560505
0.13907284768211922,6.720099745114849
0.15894039735099338,6.753747409761234
0.17880794701986755,6.791276324515934
0.1986754966887417,6.832475506127245
0.2185430463576159,6.877117700961542
0.23841059602649006,6.9249616666005025
0.2582781456953642,6.975754451338942
0.27814569536423844,7.0292336310467975
0.2980132450331126,7.0851294689849675
0.31788079470198677,7.143166970710776
0.33774834437086093,7.203067812789552
0.3576158940397351,7.264552130328442
0.3774834437086093,7.327340154128938
0.3973509933774834,7.391153693352622
0.4172185430463576,7.455717463922117
0.4370860927152318,7.520760266406457
0.45695364238410596,7.586016019886633
0.4768211920529801,7.651224660318219
0.49668874172185434,7.7161329132809895
0.5165562913907285,7.780494951821511
0.5364238410596026,7.844072950447932
0.5562913907284769,7.9066375463185405
0.5761589403973509,7.967968218364002
0.5960264900662252,8.0278535945715
0.6158940397350993,8.086091697004836
0.6357615894039735,8.14249013339137
0.6556291390728477,8.196866243317874
0.6754966887417219,8.24904720627881
0.695364238410596,8.298870118036163
0.7152317880794702,8.346182040999789
0.7350993377483444,8.390840033632529
0.7549668874172186,8.432711163234
0.7748344370860927,8.471672505864312
0.7947019867549668,8.50761113663368
0.8145695364238411,8.540424113108953
0.8344370860927152,8.570018454164442
0.8543046357615894,8.596311116235263
0.8741721854304636,8.619228968606814
0.8940397350993378,8.63870876909297
0.9139072847682119,8.65469714121099
0.9337748344370861,8.667150553749105
0.9536423841059603,8.676035303439106
0.9735099337748344,8.681327501284219
0.9933774834437087,8.683013062950062
1.0132450331125828,8.681087703497619
1.033112582781457,8.67555693661812
1.0529801324503312,8.666436078416332
1.0728476821192052,8.653750255677583
1.0927152317880795,8.637534418439184
1.1125827814569538,8.617833356566928
1.1324503311258278,8.594701719906023
1.1523178807947019,8.568204041429773
1.1721854304635762,8.538414762643983
1.1920529801324504,8.505418260316224
1.2119205298013245,8.469308873380887
1.2317880794701985,8.430190928620613
1.2516556291390728,8.38817876343469
1.271523178807947,8.34339674367321
1.2913907284768211,8.295979274134849
1.3112582781456954,8.246070798894426
1.3311258278145695,8.193825788137975
1.3509933774834437,8.139408707637081
1.370860927152318,8.082993966388917
1.390728476821192,8.02476583728648
1.410596026490066,7.96491834496676
1.4304635761589404,7.903655114225651
1.4503311258278146,7.841189171595806
1.4701986754966887,7.777742691881867
1.4900662251655628,7.713546680659812
1.5099337748344372,7.648840583012382
1.5298013245033113,7.583871808134526
1.5496688741721854,7.5188951589592
1.5695364238410596,7.454172155691644
1.5894039735099337,7.389970242177402
1.609271523178808,7.326561864454347
1.6291390728476822,7.2642234117425515
1.6490066225165563,7.203234011606101
1.6688741721854303,7.143874173163714
1.6887417218543048,7.086424275108845
1.7086092715231789,7.031162898971289
1.728476821192053,6.978365012527059
1.7483443708609272,6.928300013499764
1.7682119205298013,6.881229649596042
1.7880794701986755,6.8374058373034385
1.8079470198675496,6.797068408498421
1.8278145695364238,6.760442820437124
1.847682119205298,6.727737870734039
1.8675496688741722,6.699143464036962
1.8874172185430464,6.674828480825801
1.9072847682119205,6.65493880067339
1.9271523178807946,6.639595532056426
1.9470198675496688,6.628893498159698
1.9668874172185429,6.6229000230015656
1.9867549668874174,6.6216540547322404
2.0066225165562916,6.625165653419956
2.0264900662251657,6.63341585952393
2.0463576158940397,6.646356947180568
2.066225165562914,6.663913054111947
2.086092715231788,6.685981168140044
2.1059602649006623,6.7124324396429875
2.1258278145695364,6.743113780402803
2.1456953642384105,6.7778497025884255
2.165562913907285,6.816444347330499
2.185430463576159,6.858683650519628
2.205298013245033,6.904337593964574
2.2251655629139075,6.953162492602802
2.2450331125827816,7.0049032726812595
2.2649006622516556,7.059295701280595
2.2847682119205297,7.116068533790418
2.3046357615894038,7.174945552527872
2.324503311258278,7.235647476254791
2.3443708609271523,7.297893726583293
2.364238410596027,7.361404042942312
2.384105960264901,7.425899942758092
2.403973509933775,7.491106027700574
2.423841059602649,7.556751140247293
2.443708609271523,7.622569377440672
2.463576158940397,7.688300970624607
2.4834437086092715,7.753693041222664
2.5033112582781456,7.818500243353855
2.52317880794702,7.882485304369006
2.543046357615894,7.945419474320919
2.562913907284768,8.00708289504021
2.5827814569536423,8.067264898950267
2.6026490066225163,8.125764247082023
2.622516556291391,8.182389314995943
2.642384105960265,8.236958234526357
2.662251655629139,8.28929899846508
2.6821192052980134,8.339249534521496
2.7019867549668874,8.38665775415267
2.7218543046357615,8.431381581161029
2.741721854304636,8.47328896431544
2.76158940397351,8.51225787766864
2.781456953642384,8.548176311718372
2.801324503311258,8.580942258093055
2.821192052980132,8.610463690028256
2.8410596026490067,8.636658540538715
2.8609271523178808,8.659454679873157
2.8807947019867552,8.67878989356421
2.9006622516556293,8.694611862146763
2.9205298013245033,8.70687814341104
2.9403973509933774,8.715556157875902
2.9602649006622515,8.720623178009939
2.9801324503311255,8.722066321587194
3.0,8.71988254943696
3.0198675496688745,8.714078667728993
3.0397350993377485,8.704671334822326
3.0596026490066226,8.69168707259314
3.0794701986754967,8.675162282042265
3.0993377483443707,8.655143262858866
3.119205298013245,8.631686236484251
3.1390728476821192,8.604857372067505
3.1589403973509933,8.574732814536153
3.1788079470198674,8.54139871380858
3.198675496688742,8.50495125395039
3.218543046357616,8.465496680817761
3.23841059602649,8.4231513264315
3.2582781456953644,8.378041627982713
3.2781456953642385,8.330304138978324
3.2980132450331126,8.280085529589783
3.3178807947019866,8.22754257276555
3.3377483443708607,8.172842112107316
3.3576158940397347,8.116161006889357
3.3774834437086096,8.057686048922564
3.3973509933774837,7.997613845233961
3.4172185430463577,7.936150659760046
3.437086092715232,7.873512206449357
3.456953642384106,7.80992338536168
3.47682119205298,7.745617952562458
3.4966887417218544,7.680838113883555
3.5165562913907285,7.615834032000157
3.5364238410596025,7.550863235818695
3.556291390728477,7.486189920952435
3.576158940397351,7.422084130159247
3.596026490066225,7.358820803120592
3.615894039735099,7.29667868594485
3.6357615894039736,7.235939092379285
3.6556291390728477,7.176884510998661
3.6754966887417218,7.11979705567956
3.695364238410596,7.064956760509618
3.7152317880794703,7.012639724927966
3.7350993377483444,6.963116120294828
3.754966887417219,6.916648075131902
3.774834437086093,6.873487462770923
3.794701986754967,6.833873621825964
3.814569536423841,6.798031046421382
3.834437086092715,6.766167089055052
3.854304635761589,6.738469723905463
3.8741721854304636,6.715105421850051
3.8940397350993377,6.696217190029421
3.9139072847682117,6.681922828133337
3.9337748344370858,6.672313450487224
3.9536423841059607,6.667452317440657
3.9735099337748347,6.667374011641853
3.993377483443709,6.67208398486609
4.013245033112583,6.681558489658472
4.033112582781457,6.69574489780401
4.052980132450331,6.714562395273662
4.072847682119205,6.737903031552333
4.0927152317880795,6.76563309081058
4.112582781456953,6.7975947437955
4.132450331125828,6.833607932980566
4.152317880794702,6.8734724396333915
4.172185430463576,6.916970080045902
4.19205298013245,6.963866979060569
4.211920529801325,7.01391587191865
4.231788079470199,7.066858389953084
4.251655629139073,7.122427291303293
4.271523178807947,7.1803486041892395
4.291390728476821,7.240343656925553
4.311258278145695,7.302130975417645
4.33112582781457,7.365428035070036
4.3509933774834435,7.429952859636853
4.370860927152318,7.495425464420516
4.390728476821192,7.56156914530879
4.410596026490066,7.6281116184202595
4.43046357615894,7.694786017639279
4.450331125827815,7.761331759126345
4.470198675496689,7.827495283072946
4.490066225165563,7.8930306836246364
4.509933774834438,7.957700238117629
4.529801324503311,8.021274846651808
4.549668874172186,8.083534392642923
4.569536423841059,8.144268034427396
4.589403973509934,8.203274437302296
4.6092715231788075,8.260361954615458
4.629139072847682,8.315348765723394
4.649006622516556,8.368062977833224
4.66887417218543,8.418342697968367
4.688741721854305,8.466036080556655
4.708609271523179,8.511001355450368
4.728476821192054,8.55310684055275
4.748344370860927,8.592230942649296
4.768211920529802,8.628262149525193
4.788079470198675,8.661099015989565
4.80794701986755,8.690650146021323
4.827814569536423,8.716834172894448
4.847682119205298,8.73957973883046
4.867549668874172,8.758825475454799
4.887417218543046,8.77451998610021
4.9072847682119205,8.786621830796143
4.927152317880794,8.795099514606054
4.947019867549669,8.79993147981844
4.966887417218543,8.801106102358046
4.986754966887418,8.79862169265773
5.006622516556291,8.79248650111283
5.026490066225166,8.782718728126012
5.04635761589404,8.769346538636777
5.066225165562914,8.752408080911458
5.086092715231788,8.73195150924389
5.105960264900662,8.70803501007753
5.125827814569536,8.68072683090491
5.14569536423841,8.650105311122932
5.1655629139072845,8.616258913819596
5.185430463576159,8.579286257234209
5.205298013245033,8.539296144362124
5.225165562913908,8.49640758886594
5.245033112582782,8.450749835096758
5.264900662251656,8.402462369623432
5.28476821192053,8.351694921204887
5.304635761589404,8.298607445621887
5.324503311258278,8.243370091204312
5.344370860927152,8.186163140250793
5.364238410596027,8.12717692084067
5.3841059602649,8.066611682789139
5.403973509933775,8.004677430706929
5.4238410596026485,7.941593706310295
5.443708609271523,7.8775893113096815
5.463576158940397,7.812901961415438
5.483443708609272,7.747777861278277
5.503311258278146,7.682471189579826
5.52317880794702,7.617243483067713
5.543046357615895,7.552362908162004
5.562913907284768,7.488103408929474
5.582781456953643,7.424743720820387
5.602649006622516,7.362566240686092
5.622516556291391,7.3018557453392505
5.642384105960264,7.242897953369894
5.662251655629139,7.185977928157831
5.682119205298013,7.131378324063201
5.701986754966887,7.079377482628553
5.7218543046357615,7.030247391224402
5.741721854304636,6.984251522788291
5.7615894039735105,6.941642581935566
5.781456953642384,6.902660189473283
5.801324503311259,6.867528543863225
5.821192052980132,6.836454104035406
5.841059602649007,6.809623342690919
5.860927152317881,6.787200622398921
5.880794701986755,6.769326247973318
5.900662251655629,6.7561147474943875
5.920529801324503,6.747653430732094
5.940397350993377,6.744001267625783
5.960264900662251,6.745188121058237
5.980132450331126,6.751214357809938
6.0,6.762050849837207
6.0198675496688745,6.777639365561343
6.039735099337749,6.797893338424
6.059602649006623,6.822698988297367
6.079470198675497,6.85191676109995
6.099337748344371,6.885383043697361
6.119205298013245,6.9229121052236895
6.139072847682119,6.96429821251072
6.158940397350993,7.009317866337179
6.178807947019867,7.057732106513241
6.198675496688741,7.109288837072057
6.218543046357616,7.163725127633227
6.23841059602649,7.220769452880292
6.258278145695365,7.280143838599227
6.2781456953642385,7.341565889442102
6.298013245033113,7.404750680154499
6.317880794701987,7.469412498154312
6.337748344370861,7.535266430876469
6.357615894039735,7.602029796074486
6.377483443708609,7.669423417241651
6.397350993377484,7.737172749479016
6.417218543046357,7.8050088635348125
6.437086092715232,7.872669297439734
6.456953642384105,7.939898786252174
6.47682119205298,8.006449881001949
6.496688741721854,8.072083468074137
6.516556291390729,8.136569200099682
6.5364238410596025,8.19968584899546
6.556291390728477,8.261221591196945
6.5761589403973515,8.320974234411866
6.596026490066225,8.378751394441956
6.6158940397351,8.434370629812472
6.635761589403973,8.487659541144948
6.655629139072848,8.538455841430224
6.675496688741721,8.586607402621143
6.695364238410596,8.631972283278555
6.715231788079469,8.674418741374318
6.735099337748344,8.713825235785
6.754966887417219,8.750080419499039
6.774834437086093,8.783083127105318
6.794701986754967,8.812742358731054
6.814569536423841,8.838977262245901
6.8344370860927155,8.86171711524296
6.854304635761589,8.880901308041924
6.874172185430464,8.896479328728477
6.894039735099337,8.908410751043812
6.913907284768212,8.916665225762944
6.933774834437086,8.921222476045687
6.95364238410596,8.922072297106697
6.973509933774834,8.919214560423516
6.993377483443709,8.912659222583475
7.013245033112583,8.902426338754108
7.033112582781457,8.888546080645458
7.052980132450331,8.871058758711065
7.072847682119205,8.850014848203601
7.0927152317880795,8.825475018556562
7.112582781456954,8.797510165400894
7.132450331125828,8.766201444339986
7.152317880794702,8.731640305393853
7.172185430463576,8.693928526777187
7.19205298013245,8.653178246393585
7.211920529801324,8.609511989102252
7.231788079470198,8.563062687439901
7.251655629139073,8.513973693055487
7.271523178807947,8.462398775632819
7.291390728476822,8.408502105535216
7.311258278145695,8.352458215803704
7.33112582781457,8.294451938477255
7.3509933774834435,8.234678309482986
7.370860927152318,8.173342435573295
7.390728476821192,8.110659315976859
7.410596026490066,8.046853610599408
7.430463576158941,7.982159345782166
7.450331125827814,7.916819547835277
7.470198675496689,7.851085793852092
7.490066225165562,7.785217668733349
7.509933774834438,7.719482116970922
7.52980132450331,7.65415267763839
7.549668874172186,7.589508591294027
7.569536423841059,7.525833768216779
7.589403973509934,7.463415608665774
7.6092715231788075,7.402543667773549
7.629139072847682,7.343508160338092
7.649006622516557,7.2865983042335225
7.66887417218543,7.232100505442433
7.6887417218543055,7.180296392810705
7.708609271523178,7.1314607164590225
7.728476821192054,7.085859130207892
7.748344370860927,7.04374588515571
7.768211920529802,7.005361468385008
7.788079470198675,6.970930227276522
7.80794701986755,6.940658025648373
7.827814569536423,6.914729982438934
7.847682119205298,6.893308346463538
7.8675496688741715,6.8765305614943
7.887417218543046,6.864507574243187
7.907284768211921,6.857322433619642
7.927152317880795,6.855029222918652
7.9470198675496695,6.857652357599677
7.966887417218543,6.865186270464649
7.986754966887418,6.877595493919924
8.006622516556291,6.894815136317176
8.026490066225167,6.916751736866572
8.046357615894038,6.943284472041796
8.066225165562914,6.974266676400264
8.086092715231787,7.009527632832037
8.105960264900663,7.048874581752528
8.125827814569536,7.092094895796006
8.14569536423841,7.138958366085017
8.165562913907285,7.189219547918442
8.185430463576159,7.24262011738312
8.205298013245034,7.298891195519128
8.225165562913906,7.35775560279231
8.245033112582782,7.418930013295571
8.264900662251655,7.482126984902319
8.28476821192053,7.5470568481853935
8.304635761589404,7.6134294430280045
8.324503311258278,7.680955697301018
8.344370860927151,7.749349046654147
8.364238410596027,7.818326698321893
8.3841059602649,7.887610744886029
8.403973509933774,7.956929136214052
8.42384105960265,8.026016519381415
8.443708609271523,8.094614957375287
8.463576158940398,8.162474537865249
8.483443708609272,8.229353883408633
8.503311258278146,8.295020574223551
8.52317880794702,8.359251494193735
8.543046357615895,8.421833110134688
8.562913907284768,8.482561693610567
8.582781456953642,8.541243493793251
8.602649006622515,8.59769486903624
8.62251655629139,8.651742384026548
8.642384105960264,8.7032228785972
8.66225165562914,8.751983513546566
8.682119205298013,8.797881798127655
8.701986754966887,8.840785603245115
8.721854304635762,8.880573163832889
8.741721854304636,8.917133073379407
8.76158940397351,8.95036427311851
8.781456953642383,8.98017603800939
8.801324503311259,9.006487961282225
8.821192052980132,9.029229939025239
8.841059602649008,9.048342156026477
8.86092715231788,9.063775073856275
8.880794701986755,9.075489421978244
8.90066225165563,9.083456192503066
8.920529801324504,9.087656639046175
8.940397350993377,9.088082280011918
8.960264900662251,9.084734906499769
8.980132450331126,9.077626594907292
9.0,9.066779724186407
9.019867549668875,9.05222699758906
9.039735099337747,9.034011468611471
9.059602649006623,9.012186570709863
9.079470198675496,8.986816150207154
9.099337748344372,8.957974501639248
9.119205298013245,8.92574640459254
9.139072847682119,8.890227160858636
9.158940397350994,8.851522630472159
9.178807947019868,8.809749264897485
9.198675496688743,8.76503413528534
9.218543046357615,8.717514953325928
9.23841059602649,8.667340081775988
9.258278145695364,8.614668531230143
9.27814569536424,8.559669939138061
9.298013245033111,8.502524526438833
9.317880794701987,8.443423026491228
9.33774834437086,8.382566580230463
9.357615894039736,8.320166590683472
9.37748344370861,8.256444529141898
9.397350993377483,8.191631684443328
9.417218543046358,8.125968845973137
9.437086092715232,8.059705910211324
9.456953642384107,7.993101399953298
9.47682119205298,7.92642188479226
9.496688741721854,7.8599412911309114
9.516556291390728,7.79394008997277
9.536423841059603,7.72870435111953
9.556291390728477,7.664524653267659
9.57615894039735,7.60169484095449
9.596026490066224,7.540510621447777
9.6158940397351,7.481267997583472
9.635761589403973,7.424261536292979
9.655629139072847,7.369782477142835
9.675496688741722,7.318116690604457
9.695364238410596,7.269542501884668
9.715231788079471,7.224328402806361
9.735099337748345,7.1827306811812415
9.754966887417218,7.144991004027346
9.774834437086092,7.111333997448735
9.794701986754967,7.081964871556544
9.814569536423841,7.057067142993911
9.834437086092716,7.036800509979475
9.854304635761588,7.021298934918725
9.874172185430464,7.010668987284205
9.894039735099337,7.004988494524671
9.913907284768213,7.0043055413133555
9.933774834437086,7.008637847769805
9.95364238410596,7.0179725458632225
9.973509933774835,7.032266360659043
9.993377483443709,7.051446190140782
10.013245033112582,7.075410064793753
10.033112582781456,7.1040284567124985
10.052980132450331,7.137145898316742
10.072847682119205,7.174582863304379
10.09271523178808,7.216137857515609
10.112582781456952,7.261589665009319
10.132450331125828,7.3106996947527625
10.152317880794701,7.3632143756315145
10.172185430463577,7.418867551613561
10.192052980132452,7.477382834400812
10.211920529801324,7.5384758772979
10.2317880794702,7.601856540871465
10.251655629139073,7.667230927860292
10.271523178807948,7.734303271395792
10.29139072847682,7.80277766665355
10.311258278145695,7.872359641409958
10.331125827814569,7.94275756552764
10.350993377483444,8.013683903108308
10.370860927152318,8.084856313951509
10.390728476821192,8.155998613098554
10.410596026490065,8.22684159870238
10.43046357615894,8.297123759342314
10.450331125827816,8.366591872293709
10.470198675496688,8.435001504264035
10.490066225165563,8.502117425807993
10.509933774834437,8.567713950113513
10.529801324503312,8.631575206178251
10.549668874172186,8.69349535562812
10.56953642384106,8.75327876161169
10.589403973509933,8.810740117374785
10.609271523178808,8.865704541302225
10.629139072847682,8.91800764443227
10.649006622516556,8.967495575712848
10.66887417218543,9.014025049589094
10.688741721854305,9.057463359890608
10.70860927152318,9.097688383427638
10.728476821192054,9.134588576204214
10.748344370860927,9.168062964714576
10.7682119205298,9.198021134398102
10.788079470198676,9.224383216987924
10.80794701986755,9.24707987819049
10.827814569536423,9.266052306876118
10.847682119205297,9.281252206734417
10.867549668874172,9.29264179115452
10.887417218543046,9.300193781915866
10.907284768211921,9.303891412123932
10.927152317880793,9.303728433685032
10.947019867549669,9.29970912948621
10.966887417218544,9.291848330322109
