Time (s),Filtered Signal
0.0,-0.06658071038864496
0.033370165745856356,0.08780999290877918
0.06674033149171271,0.08303503287607898
0.10011049723756907,-0.16402630873362747
0.13348066298342542,-0.6200312936819801
0.16685082872928178,-1.1515192676578756
0.20022099447513814,-1.5871601839998173
0.2335911602209945,-1.7942176887473988
0.26696132596685085,-1.7329616124099627
0.30033149171270723,-1.4661350035860081
0.33370165745856356,-1.1234729502277097
0.3670718232044199,-0.8415826266317729
0.4004419889502763,-0.708018400388141
0.43381215469613266,-0.7328176873700623
0.467182320441989,-0.8556666902034626
0.5005524861878453,-0.9804288330429065
0.5339226519337017,-1.0184867170226808
0.5672928176795581,-0.9217554058516509
0.6006629834254145,-0.6939308050224197
0.6340331491712707,-0.3796513648241437
0.6674033149171271,-0.040253208079761134
0.7007734806629835,0.27171662811421604
0.7341436464088398,0.5292024532935641
0.7675138121546962,0.7339223781179901
0.8008839779005525,0.9073311178511686
0.8342541436464089,1.0745229072243048
0.8676243093922653,1.2482273873543743
0.9009944751381216,1.4196002457039996
0.934364640883978,1.5598256231719936
0.9677348066298344,1.6321624567280535
1.0011049723756906,1.6093518383305172
1.0344751381215471,1.488307973549751
1.0678453038674034,1.2945343537249046
1.1012154696132597,1.0730696098022128
1.1345856353591162,0.8692525704616915
1.1679558011049724,0.708048237355295
1.201325966850829,0.5821266207227908
1.2346961325966852,0.4552442558246405
1.2680662983425415,0.2802790216916533
1.301436464088398,0.024006880286875826
1.3348066298342542,-0.31292554661602434
1.3681767955801105,-0.6904460279715063
1.401546961325967,-1.040918862052514
1.4349171270718233,-1.2934154389730055
1.4682872928176796,-1.399935384362778
1.501657458563536,-1.3527533689471047
1.5350276243093923,-1.1865975859264704
1.5683977900552488,-0.9661605057060724
1.601767955801105,-0.7650232928426018
1.6351381215469614,-0.6440839379513639
1.6685082872928179,-0.635905863735791
1.7018784530386741,-0.7378639784002127
1.7352486187845306,-0.9138601769559612
1.768618784530387,-1.1029741891855562
1.8019889502762432,-1.2333423913434307
1.8353591160220997,-1.2394708783748947
1.868729281767956,-1.0800951652063306
1.9020994475138122,-0.7519565733792782
1.9354696132596687,-0.2940941831416755
1.968839779005525,0.2208768810189545
2.0022099447513813,0.7073185749258656
2.0355801104972375,1.0921855600098973
2.0689502762430942,1.335708676135105
2.1023204419889505,1.438705089663946
2.135690607734807,1.4341403435708238
2.169060773480663,1.3680249369430175
2.2024309392265193,1.2794194460296628
2.235801104972376,1.1886639588126122
2.2691712707182323,1.097546339814113
2.3025414364640886,0.9983516531022432
2.335911602209945,0.8845860804515663
2.369281767955801,0.7567876595627018
2.402651933701658,0.6212813729867357
2.436022099447514,0.4847481693706914
2.4693922651933704,0.349727305862802
2.5027624309392267,0.21446780293651757
2.536132596685083,0.07651023254052532
2.5695027624309392,-0.06381993627095706
2.602872928176796,-0.203760061559036
2.636243093922652,-0.34271872186802144
2.6696132596685085,-0.4873917736856062
2.7029834254143648,-0.6518291744481595
2.736353591160221,-0.8492663207536056
2.7697237569060777,-1.078150745771274
2.803093922651934,-1.3103332161613892
2.8364640883977903,-1.4909682726762619
2.8698342541436466,-1.5552060960219651
2.903204419889503,-1.4576004659012023
2.936574585635359,-1.2009383194286203
2.969944751381216,-0.8476910851282548
3.003314917127072,-0.5030738761075205
3.0366850828729284,-0.2723879979703736
3.0700552486187846,-0.2103327757757936
3.103425414364641,-0.2876383950343226
3.1367955801104976,-0.39503044444603574
3.170165745856354,-0.38748540141277277
3.20353591160221,-0.15121430939596278
3.2369060773480665,0.3373210432195861
3.2702762430939227,0.9893817580924705
3.3036464088397794,1.6316336877793258
3.3370165745856357,2.0730527407708013
3.370386740331492,2.181784679279717
3.4037569060773483,1.9375707331053458
3.4371270718232045,1.436527247965561
3.4704972375690613,0.8472313790050984
3.5038674033149175,0.33946808076541135
3.537237569060774,0.01871396833830982
3.57060773480663,-0.10507600258196031
3.6039779005524863,-0.10378987954756227
3.6373480662983426,-0.0838481558204329
3.6707182320441993,-0.1310757658614578
3.7040883977900556,-0.27414455667323234
3.737458563535912,-0.4806661489208337
3.770828729281768,-0.6824742936615599
3.8041988950276244,-0.8133169505774299
3.837569060773481,-0.8391122409950047
3.8709392265193374,-0.7680056633204938
3.9043093922651937,-0.6394554269741491
3.93767955801105,-0.5016605909480941
3.9710497237569062,-0.3902194572720278
4.0044198895027625,-0.31747603872167957
4.037790055248619,-0.2747043448449604
4.071160220994475,-0.24258644562224788
4.104530386740332,-0.20265938059138902
4.1379005524861885,-0.14411392424710795
4.171270718232044,-0.06455252661907229
4.204640883977901,0.03291300766991989
4.238011049723757,0.14261247476614988
4.271381215469614,0.2571584290650224
4.30475138121547,0.3665965086089871
4.338121546961326,0.45797746112220844
4.371491712707183,0.5171881868921188
4.404861878453039,0.533072802960115
4.438232044198895,0.5020052817229163
4.471602209944752,0.4304923932480258
4.504972375690608,0.3343778266627377
4.538342541436465,0.2349358766223617
4.5717127071823205,0.15337493190679902
4.605082872928177,0.10540985806709326
4.638453038674034,0.09697363564875443
4.67182320441989,0.12167191625249105
4.7051933701657465,0.16070031498931311
4.738563535911602,0.18624416366555444
4.771933701657459,0.16895855232924573
4.805303867403316,0.08846801342601252
4.8386740331491715,-0.05649480884554839
4.872044198895028,-0.24313465157967404
4.905414364640884,-0.4286987445628865
4.938784530386741,-0.5639202373737107
4.972154696132597,-0.6113663520799707
5.005524861878453,-0.5610501886882486
5.03889502762431,-0.4360601020118383
5.072265193370166,-0.28511150115272754
5.105635359116023,-0.16482875736393582
5.1390055248618784,-0.11920184116973284
5.172375690607735,-0.16471534039902808
5.205745856353592,-0.2867153701248057
5.239116022099448,-0.4472827611051836
5.272486187845304,-0.5999284237582109
5.30585635359116,-0.7041937970925283
5.339226519337017,-0.7345562807878313
5.372596685082874,-0.6818226285409098
5.4059668508287295,-0.5491554649352476
5.439337016574586,-0.3469148678025767
5.472707182320442,-0.08985064731127265
5.506077348066299,0.20234570760369736
5.5394475138121555,0.5028887520020818
5.572817679558011,0.777445231947645
5.606187845303868,0.9883001567501613
5.639558011049724,1.1039192043592176
5.672928176795581,1.1115409365711244
5.706298342541437,1.0275154793511674
5.739668508287293,0.8989368977318776
5.77303867403315,0.7920431652576567
5.806408839779006,0.7681545925691826
5.839779005524862,0.8549341331615687
5.873149171270718,1.0259619155720843
5.906519337016575,1.2011598668280354
5.939889502762432,1.2727933815107393
5.9732596685082875,1.1491121999532905
6.006629834254144,0.7966062168664314
6.04,0.2595408556211267
6.073370165745857,-0.3548775585472274
6.1067403314917135,-0.91964478828216
6.140110497237569,-1.337564880320044
6.173480662983426,-1.57169039445436
6.206850828729282,-1.6423785358526932
6.240220994475139,-1.5967441319722393
6.273591160220995,-1.4723278226077963
6.306961325966851,-1.278660427071372
6.340331491712708,-1.0070939687565463
6.373701657458564,-0.6596696693089263
6.40707182320442,-0.27475009508974313
6.440441988950277,0.07097332186512692
6.473812154696133,0.28913691227676114
6.50718232044199,0.32133458979215795
6.5405524861878455,0.17178651960323793
6.573922651933702,-0.08865678180079455
6.607292817679559,-0.3513185394943633
6.640662983425415,-0.5179489372359779
6.674033149171271,-0.5450352471100182
6.707403314917127,-0.4626497610476864
6.740773480662984,-0.3583080803757972
6.774143646408841,-0.33238223579793297
6.8075138121546965,-0.4446659641090571
6.840883977900553,-0.6763396861813881
6.874254143646409,-0.925869820828257
6.907624309392266,-1.0433450362976595
6.9409944751381225,-0.8909088505077271
6.974364640883978,-0.4044910892749889
7.007734806629835,0.3700203118651098
7.041104972375691,1.2829346118477238
7.074475138121548,2.1278329904485287
7.107845303867403,2.71038478836236
7.14121546961326,2.911010527441892
7.174585635359117,2.717787395859134
7.207955801104973,2.2202977153977717
7.241325966850829,1.5715445649731432
7.274696132596685,0.9357480988875253
7.308066298342542,0.44130272845489477
7.341436464088399,0.1521995394145031
7.3748066298342545,0.062410927917711155
7.408176795580111,0.11020369462477486
7.441546961325967,0.20489920769573775
7.474917127071824,0.2570562863411573
7.5082872928176805,0.2035912019852556
7.541657458563536,0.02148546952968486
7.575027624309393,-0.2726717477769013
7.608397790055249,-0.6354627600899151
7.641767955801106,-1.0156089102243142
7.675138121546962,-1.3708719060432093
7.708508287292818,-1.6760055555598021
7.741878453038675,-1.9194698979356166
7.775248618784531,-2.0924264937772112
7.808618784530387,-2.1777152703009905
7.841988950276244,-2.1468077260088605
7.8753591160221,-1.9686118688184222
7.908729281767957,-1.627169701463115
7.9420994475138125,-1.139203520066419
7.975469613259669,-0.5608111538534702
8.008839779005525,0.022926639230924955
8.042209944751383,0.5229184745557638
8.075580110497238,0.8748968755415455
8.108950276243094,1.0587232035234528
8.14232044198895,1.0994797942894008
8.175690607734808,1.0510577039785354
8.209060773480664,0.9714799100739253
8.24243093922652,0.9020937411588839
8.275801104972377,0.8589447836043763
8.309171270718233,0.8370693448661227
8.342541436464089,0.821888766419918
8.375911602209946,0.799846557081908
8.409281767955802,0.7631857755028392
8.442651933701658,0.7087264766918873
8.476022099447514,0.6342528499658296
8.509392265193371,0.5366362019886615
8.542762430939227,0.41344860084390467
8.576132596685083,0.2666292925307606
8.60950276243094,0.10499120915460726
8.642872928176796,-0.05696398192592863
8.676243093922652,-0.20394026941161922
8.709613259668508,-0.32584999075873433
8.742983425414366,-0.4213020300224639
8.776353591160222,-0.4962015817942081
8.809723756906077,-0.5579052214396755
8.843093922651935,-0.6081282891775137
8.87646408839779,-0.6388655134575864
8.909834254143647,-0.634258954062145
8.943204419889504,-0.5782484048617373
8.97657458563536,-0.4645724783561994
9.009944751381216,-0.3039816870491122
9.043314917127072,-0.12433771962113467
9.07668508287293,0.03766061253860757
9.110055248618785,0.15040576840471045
9.143425414364641,0.20114981969564594
9.176795580110499,0.20306619347436836
9.210165745856354,0.19125592702566122
9.24353591160221,0.20787338241076564
9.276906077348068,0.2817226788204743
9.310276243093924,0.41122141533964734
9.34364640883978,0.5595031839720765
9.377016574585635,0.6659287098298189
9.410386740331493,0.6708117474100854
9.443756906077349,0.5430857932598612
9.477127071823205,0.29779077591086256
9.510497237569062,-0.006132921208663945
9.543867403314918,-0.2882406868083537
9.577237569060774,-0.4795190690101148
9.610607734806631,-0.550356388413254
9.643977900552487,-0.5199850056387226
9.677348066298343,-0.44290963993664256
9.710718232044199,-0.3794035957620299
9.744088397790057,-0.3651191693273917
9.777458563535912,-0.3950612634783846
9.810828729281768,-0.42958655507316845
9.844198895027626,-0.41870297850162747
9.877569060773482,-0.33160393507471586
9.910939226519337,-0.17581416446176062
9.944309392265193,0.004179190805330519
9.97767955801105,0.14822291295798895
10.011049723756907,0.21072906087508145
10.044419889502763,0.18412998176419287
10.07779005524862,0.10324570974305804
10.111160220994476,0.028013387116542915
10.144530386740332,0.013136008433782695
10.17790055248619,0.07996780993214227
10.211270718232045,0.20488705126021567
10.244640883977901,0.3300477612018232
10.278011049723757,0.39108042872164894
10.311381215469615,0.34793281691599964
10.34475138121547,0.2039158601475352
10.378121546961326,0.004469172962112468
10.411491712707184,-0.1825973251444606
10.44486187845304,-0.2951534048863015
10.478232044198895,-0.3001983526058031
10.511602209944753,-0.20346326264251477
10.544972375690609,-0.043126413185295545
10.578342541436465,0.12753419550904518
10.61171270718232,0.2601269324912535
10.645082872928178,0.32586120615867065
10.678453038674034,0.3206422213743926
10.71182320441989,0.26072500844088203
10.745193370165747,0.1725907068818409
10.778563535911603,0.08201748300466208
10.811933701657459,0.0064581730598278625
10.845303867403315,-0.04734608080764331
10.878674033149172,-0.08097434360653397
10.912044198895028,-0.09932041286637744
10.945414364640884,-0.10573296647541074
10.978784530386742,-0.09954642082117882
11.012154696132598,-0.0769238524922772
11.045524861878453,-0.03430572004493085
11.078895027624311,0.0275428811772782
11.112265193370167,0.101272026437099
11.145635359116023,0.17403076999608388
11.179005524861878,0.23170526171367747
11.212375690607736,0.26431738472039945
11.245745856353592,0.26976207016008724
11.279116022099448,0.2537949317488757
11.312486187845305,0.2261779406170067
11.345856353591161,0.19505319290578038
11.379226519337017,0.16266746724497308
11.412596685082875,0.12484474637766504
11.44596685082873,0.07447770244981192
11.479337016574586,0.006982785534481695
11.512707182320442,-0.07556809195420111
11.5460773480663,-0.16439369925543865
11.579447513812156,-0.24871771384618943
11.612817679558011,-0.3232793933900587
11.646187845303869,-0.3946209287047634
11.679558011049725,-0.48176157861675056
11.71292817679558,-0.6087144691697411
11.746298342541436,-0.7900412457785869
11.779668508287294,-1.0149308436278206
11.81303867403315,-1.2380399588459927
11.846408839779006,-1.384538897555367
11.879779005524863,-1.3717185194334578
11.91314917127072,-1.141548449081203
11.946519337016575,-0.6912780203724487
11.979889502762433,-0.08684538654976304
12.013259668508288,0.550813365080668
12.046629834254144,1.0846410057083218
12.08,1.410648611538457
12.113370165745858,1.4955989202401643
12.146740331491714,1.3851706361679115
12.18011049723757,1.178153201319329
12.213480662983427,0.9788426170769781
12.246850828729283,0.8506969125289368
12.280220994475139,0.7935526788084203
12.313591160220996,0.7545828090979649
12.346961325966852,0.6659743162795055
12.380331491712708,0.48888938472359617
12.413701657458564,0.2404321819006347
12.447071823204421,-0.010619615748186744
12.480441988950277,-0.17734825739262972
12.513812154696133,-0.2003727425883793
12.54718232044199,-0.08209621453609178
12.580552486187846,0.10853230959332852
12.613922651933702,0.2640592599932516
12.64729281767956,0.2861703305272588
12.680662983425416,0.12985573038756684
12.714033149171271,-0.1771678393864575
12.747403314917127,-0.5485092355177787
12.780773480662985,-0.8786611128475543
12.81414364640884,-1.0879090537877631
12.847513812154697,-1.1509309282149731
12.880883977900554,-1.0969876647181018
12.91425414364641,-0.9847425781537361
12.947624309392266,-0.867236989431013
12.980994475138122,-0.766019238454868
13.01436464088398,-0.6667035269967229
13.047734806629835,-0.5356803753008406
13.081104972375691,-0.34646144138485524
13.114475138121549,-0.10009412558702926
13.147845303867404,0.17124673261485013
13.18121546961326,0.4182878036919941
13.214585635359118,0.5975156529041732
13.247955801104974,0.6901016707938464
13.28132596685083,0.7073589155467058
13.314696132596685,0.6811493955614636
13.348066298342543,0.64557878323592
13.381436464088399,0.6200344421277741
13.414806629834255,0.6017865039823846
13.448176795580112,0.5707415605617846
13.481546961325968,0.5028691503481881
13.514917127071824,0.3851696513278143
13.548287292817681,0.22493101641588037
13.581657458563537,0.04888961431482915
13.615027624309393,-0.10760947066406784
13.648397790055249,-0.21683652052188557
13.681767955801106,-0.27270079966482974
13.715138121546962,-0.2950318737621472
13.748508287292818,-0.32033358666367195
13.781878453038676,-0.38174878865215645
13.815248618784532,-0.4873909427824524
13.848618784530387,-0.6088069234998724
13.881988950276245,-0.6877721948651399
13.9153591160221,-0.6607741098888059
13.948729281767957,-0.49069549132030915
13.982099447513813,-0.18995622820457975
14.01546961325967,0.17770135693045175
14.048839779005526,0.5193703522543889
14.082209944751382,0.7494104946883213
14.11558011049724,0.822958301996349
14.148950276243095,0.7507619435765532
14.182320441988951,0.5891444431179844
14.215690607734807,0.41123919960986355
14.249060773480664,0.2742003672512232
14.28243093922652,0.19779043027836885
14.315801104972376,0.16293068268566668
14.349171270718234,0.1285447062186091
14.38254143646409,0.056639140101852434
14.415911602209945,-0.06715148710955722
14.449281767955803,-0.2267200275513372
14.482651933701659,-0.3839979906996001
14.516022099447515,-0.49708713015987166
14.54939226519337,-0.5385017871821397
14.582762430939228,-0.5051996838768741
14.616132596685084,-0.41701318953694094
14.64950276243094,-0.30591791111374683
14.682872928176797,-0.20239141807306962
14.716243093922653,-0.12538317010138525
14.749613259668509,-0.0795256139374324
14.782983425414367,-0.05905114971312574
14.816353591160222,-0.05470637109863975
14.849723756906078,-0.05923445220864718
14.883093922651934,-0.06874432668656397
14.916464088397792,-0.08025017664928755
14.949834254143648,-0.08811027871849168
14.983204419889503,-0.08269944450650948
15.016574585635361,-0.05312728185587887
15.049944751381217,0.006949857756647889
15.083314917127073,0.09374146029203385
15.116685082872928,0.1917262850464757
15.150055248618786,0.2778857531399575
15.183425414364642,0.33031371738557125
15.216795580110498,0.33705497436421666
15.250165745856355,0.30064263751224096
15.283535911602211,0.23607189580501003
15.316906077348067,0.16356284411780153
15.350276243093925,0.10027825430120486
15.38364640883978,0.05549581045132914
15.417016574585636,0.03138977993126141
15.450386740331492,0.02794654751306368
15.48375690607735,0.04780325106770033
15.517127071823205,0.09668515434057112
15.550497237569061,0.1778819782642983
15.583867403314919,0.28339340805807944
15.617237569060775,0.3875315454074368
15.65060773480663,0.44877190732154615
15.683977900552488,0.42199935880651807
15.717348066298344,0.2776107086976515
15.7507182320442,0.01921635219388376
15.784088397790056,-0.30926480450431343
15.817458563535913,-0.6325042918167393
15.85082872928177,-0.8669788492310653
15.884198895027625,-0.9499005376187781
15.917569060773483,-0.8620194538184067
15.950939226519338,-0.6346743059275524
15.984309392265194,-0.3381556203763039
16.01767955801105,-0.05636683815374695
16.051049723756908,0.14181255787758093
16.084419889502765,0.2234306425665151
16.11779005524862,0.19761787546887874
16.151160220994477,0.10641342144591677
16.18453038674033,0.005554758350811326
16.21790055248619,-0.05648339378206089
16.251270718232046,-0.053565018211549555
16.2846408839779,0.013108050363839519
16.318011049723758,0.11989255441917179
16.351381215469615,0.2319393370450118
16.38475138121547,0.3159433280085673
16.418121546961327,0.3503344823063456
16.451491712707185,0.3306289483140178
16.48486187845304,0.269390682351698
16.518232044198896,0.19137794054930524
16.551602209944754,0.12513165116357775
16.584972375690608,0.09295554329156269
16.618342541436466,0.10206939073148562
16.651712707182323,0.14020677269167808
16.685082872928177,0.17828121749225243
16.718453038674035,0.1805272431354469
16.751823204419892,0.11924806649240012
16.785193370165747,-0.011552475533550726
16.818563535911604,-0.1900487125199768
16.851933701657458,-0.37190520094069546
16.885303867403316,-0.5059943917190526
16.918674033149173,-0.5543092394461455
16.952044198895027,-0.5071920723393986
16.985414364640885,-0.38656119065598954
17.018784530386743,-0.235209004086789
17.052154696132597,-0.09700274104987808
17.085524861878454,0.0024514618501989193
17.118895027624312,0.06504011042493067
17.152265193370166,0.11459698562691069
17.185635359116024,0.17962877808129582
17.21900552486188,0.2737742856347171
17.252375690607735,0.3848755575770915
17.285745856353593,0.47889551536683544
17.31911602209945,0.51669658973444
17.352486187845304,0.4746078010160437
17.385856353591162,0.35780692416614196
