Frequency (Hz),Amplitude
0.0,4.127403909439073
0.020066889632107024,4.129632407434006
0.04013377926421405,4.136301981457511
0.060200668896321065,4.147365161394114
0.0802675585284281,4.162743783321198
0.10033444816053512,4.182330374624392
0.12040133779264213,4.205990008274973
0.14046822742474915,4.233562549530063
0.1605351170568562,4.264865206887973
0.1806020066889632,4.299695293802464
0.20066889632107024,4.337833108197219
0.22073578595317725,4.379044842469091
0.24080267558528426,4.423085446310601
0.2608695652173913,4.469701377025611
0.2809364548494983,4.51863318576112
0.3010033444816054,4.569617902066892
0.3210702341137124,4.622391192480234
0.34113712374581934,4.676689280734727
0.3612040133779264,4.732250627291578
0.3812709030100334,4.788817374007588
0.4013377926421405,4.846136565889029
0.42140468227424743,4.903961166176965
0.4414715719063545,4.962050883692933
0.4615384615384615,5.020172832713057
0.4816053511705685,5.078102045911979
0.5016722408026756,5.135621860388874
0.5217391304347826,5.19252419569178
0.5418060200668896,5.248609741291657
0.5618729096989966,5.303688069285833
0.5819397993311036,5.357577686355431
0.6020066889632107,5.4101060372555985
0.6220735785953176,5.461109470445512
0.6421404682274248,5.510433174908215
0.6622073578595318,5.557931095794177
0.6822742474916387,5.603465835256684
0.7023411371237458,5.646908543734706
0.7224080267558528,5.688138805973331
0.7424749163879598,5.727044525245263
0.7625418060200668,5.763521808536305
0.7826086956521738,5.797474854871288
0.802675585284281,5.828815848470458
0.8227424749163879,5.857464858028151
0.8428093645484949,5.883349743082701
0.862876254180602,5.906406068188725
0.882943143812709,5.92657702539979
0.903010033444816,5.943813365412519
0.923076923076923,5.958073337604368
0.9431438127090299,5.96932263911029
0.963210702341137,5.977534373021739
0.983277591973244,5.982689015750504
1.0033444816053512,5.984774393574623
1.0234113712374582,5.983785668370503
1.0434782608695652,5.979725332530458
1.0635451505016722,5.972603213065162
1.0836120401337792,5.96243648489271
1.1036789297658862,5.949249693316894
1.1237458193979932,5.933074785694248
1.1438127090301002,5.913951152278746
1.1638795986622072,5.891925676211238
1.1839464882943145,5.867052792584544
1.2040133779264215,5.839394556459009
1.2240802675585283,5.809020719623752
1.2441471571906353,5.77600881578877
1.2642140468227423,5.740444253746878
1.2842809364548495,5.702420417854246
1.3043478260869565,5.66203877493552
1.3244147157190636,5.6194089864147525
1.3444816053511706,5.574649024095738
1.3645484949832773,5.527885287553015
1.3846153846153846,5.47925272053554
1.4046822742474916,5.428894923115078
1.4247491638795986,5.376964255518358
1.4448160535117056,5.323621928653267
1.4648829431438126,5.269038075264831
1.4849498327759196,5.213391794430214
1.5050167224080266,5.156871160722738
1.5250836120401337,5.099673187851096
1.5451505016722407,5.042003734932577
1.5652173913043477,4.984077341823966
1.5852842809364547,4.926116978169995
1.605351170568562,4.86835368912004
1.625418060200669,4.811026119125321
1.6454849498327757,4.754379894011936
1.6655518394648827,4.698666840818349
1.6856187290969897,4.644144024915994
1.705685618729097,4.591072584955162
1.725752508361204,4.539716348472459
1.745819397993311,4.490340214834823
1.765886287625418,4.4432082978204015
1.7859531772575248,4.398581827717593
1.806020066889632,4.356716822406309
1.826086956521739,4.317861548343512
1.846153846153846,4.282253805356971
1.866220735785953,4.250118083049014
1.8862876254180598,4.2216626505505195
1.9063545150501673,4.1970766542319025
1.926421404682274,4.17652730849903
1.9464882943143813,4.1601572716678605
1.966555183946488,4.148082300939415
1.9866220735785953,4.14038927681503
2.0066889632107023,4.1371346775113675
2.026755852842809,4.138343568273587
2.0468227424749164,4.1440091498128435
2.0668896321070234,4.15409288587885
2.0869565217391304,4.168525204128393
2.1070234113712374,4.1872067390853775
2.1270903010033444,4.2100100631629855
2.1471571906354514,4.236781833166852
2.1672240802675584,4.267345266628963
2.1872909698996654,4.301502855309438
2.2073578595317724,4.339039222178596
2.2274247491638794,4.3797240325278715
2.2474916387959865,4.423314878520822
2.267558528428094,4.469560068222778
2.2876254180602005,4.518201263629734
2.3076923076923075,4.568975926241716
2.3277591973244145,4.6216195422831685
2.3478260869565215,4.675867612008438
2.367892976588629,4.731457398155947
2.3879598662207355,4.788129437286768
2.408026755852843,4.845628824419346
2.4280936454849495,4.903706286160786
2.4481605351170566,4.962119060642953
2.468227424749164,5.020631604259112
2.4882943143812706,5.079016145742419
2.508361204013378,5.1370531077997414
2.5284280936454846,5.194531415557676
2.548494983277592,5.2512487097007226
2.568561872909699,5.307011480555987
2.5886287625418056,5.3616351376389
2.608695652173913,5.414944027420382
2.6287625418060196,5.466771410379935
2.648829431438127,5.516959406818389
2.668896321070234,5.565358919447931
2.688963210702341,5.611829539469523
2.709030100334448,5.656239441693156
2.7290969899665547,5.69846527325117
2.749163879598662,5.7383920395903525
2.769230769230769,5.775912990694438
2.789297658862876,5.810929509871154
2.809364548494983,5.843351006925067
2.82943143812709,5.873094817115539
2.849498327759197,5.900086106956164
2.869565217391304,5.924257787636944
2.8896321070234112,5.945550436632715
2.9096989966555182,5.963912227892126
2.9297658862876252,5.979298870872521
2.9498327759197323,5.991673558590576
2.9698996655518393,6.00100692479006
2.9899665551839463,6.007277010281741
3.0100334448160533,6.010469238480877
3.0301003344481603,6.01057640015157
3.0501672240802673,6.007598647360087
3.0702341137123748,6.001543496638264
3.0903010033444813,5.992425841359731
3.1103678929765888,5.980267973332992
3.1304347826086953,5.965099613613455
3.1505016722408024,5.946957952527682
3.1705685618729094,5.925887698884383
3.1906354515050164,5.901941138314065
3.210702341137124,5.875178200628424
3.2307692307692304,5.845666536016906
3.250836120401338,5.813481599795535
3.270903010033445,5.778706745286294
3.2909698996655514,5.741433324225923
3.311036789297659,5.701760793873825
3.3311036789297654,5.659796829699257
3.351170568561873,5.615657442168633
3.3712374581939795,5.569467095712511
3.391304347826087,5.521358827416258
3.411371237458194,5.471474362335676
3.4314381270903005,5.419964221575699
3.451505016722408,5.366987818373805
3.471571906354515,5.312713536389932
3.491638795986622,5.25731878321312
3.511705685618729,5.200990010749789
3.531772575250836,5.143922692665978
3.551839464882943,5.086321247431372
3.5719063545150496,5.028398893790547
3.591973244147157,4.970377423717615
3.612040133779264,4.9124868761718155
3.632107023411371,4.854965093370975
3.652173913043478,4.798057139978534
3.672240802675585,4.742014564737933
3.692307692307692,4.687094483901958
3.712374581939799,4.633558466545301
3.732441471571906,4.581671203789433
3.752508361204013,4.531698947387726
3.7725752508361197,4.483907708270007
3.7926421404682276,4.438561212721892
3.8127090301003346,4.395918622958613
3.832775919732441,4.356232039869495
3.852842809364548,4.3197438183685986
3.872909698996655,4.286683739551149
3.8929765886287626,4.257266097916241
3.9130434782608696,4.231686775218852
3.933110367892976,4.21012038381512
3.953177257525083,4.192717570348734
3.9732441471571907,4.179602574057965
3.9933110367892977,4.170871131889228
4.013377926421405,4.166588814451394
4.033444816053511,4.1667898626823545
4.053511705685618,4.171476575622608
4.073578595317726,4.180619276218002
4.093645484949833,4.19415685641718
4.113712374581939,4.211997877077389
4.133779264214047,4.234022174445444
4.153846153846153,4.260082905083923
4.173913043478261,4.290008946432077
4.193979933110368,4.32360756148059
4.214046822742475,4.360667233399781
4.234113712374581,4.40096057890709
4.254180602006689,4.444247256751112
4.274247491638796,4.490276798708656
4.294314381270903,4.538791303625963
4.314381270903009,4.589527949033636
4.334448160535117,4.6422212886534515
4.354515050167224,4.696605316866468
4.374581939799331,4.752415292363664
4.394648829431437,4.809389322444613
4.414715719063545,4.867269716672723
4.434782608695651,4.925804123907693
4.454849498327759,4.984746470301763
4.474916387959866,5.043857717914269
4.494983277591973,5.102906464445804
4.5150501672240795,5.16166940449144
4.535117056856188,5.219931671915296
4.555183946488294,5.277487081674658
4.575250836120401,5.334138287853587
4.595317725752508,5.389696872947721
4.615384615384615,5.443983381683875
4.635451505016722,5.496827310939303
4.655518394648829,5.548067065700299
4.6755852842809364,5.597549889502003
4.695652173913043,5.645131776439411
4.71571906354515,5.690677370639557
4.735785953177258,5.734059858036203
4.7558528428093645,5.775160854382948
4.775919732441471,5.813870292669017
4.795986622073578,5.850086312450943
4.816053511705686,5.883715153070542
4.8361204013377925,5.914671052281517
4.856187290969899,5.94287615144153
4.8762541806020065,5.968260408132016
4.896321070234113,5.990761516834088
4.916387959866221,6.010324838105436
4.936454849498328,6.026903336563059
4.956521739130435,6.040457527871342
4.976588628762541,6.050955434858951
4.996655518394649,6.058372552835215
5.016722408026756,6.062691824142315
5.036789297658863,6.06390362195958
5.056856187290969,6.062005743366279
5.076923076923077,6.0570034116664635
5.096989966555184,6.048909287980108
5.117056856187291,6.037743492105881
5.137123745819398,6.023533632659487
5.157190635451505,6.006314846484169
5.177257525083611,5.986129847313444
5.197324414715719,5.963028983636566
5.217391304347826,5.937070305670529
5.237458193979933,5.908319641273904
5.257525083612039,5.876850680542065
5.277591973244148,5.842745068694006
5.297658862876254,5.806092506691448
5.317725752508361,5.7669908588125365
5.337792642140468,5.725546266126485
5.357859531772575,5.6818732644715375
5.377926421404682,5.6360949051152875
5.397993311036789,5.588342875761455
5.418060200668896,5.538757618947644
5.438127090301003,5.487488444141068
5.458193979933109,5.434693628971228
5.478260869565218,5.380540504028015
5.498327759197324,5.325205514493143
5.518394648829431,5.2688742505574515
5.538461538461538,5.211741437110756
5.558528428093646,5.154010871588256
5.578595317725752,5.0958952971462335
5.598662207357859,5.037616196567193
5.618729096989966,4.979403490531499
5.638795986622073,4.921495122238484
5.65886287625418,4.864136508948721
5.678929765886288,4.8075798400208365
5.698996655518394,4.752083200639533
5.719063545150501,4.697909500920188
5.739130434782608,4.645325191699029
5.759197324414716,4.594598751356692
5.7792642140468224,4.5459989327401855
5.799331103678929,4.499792765856711
5.8193979933110365,4.456243320628202
5.839464882943144,4.415607244585718
5.8595317725752505,4.37813210271744
5.879598662207358,4.344053560288386
5.8996655518394645,4.3135924635836265
5.919732441471571,4.286951887191497
5.9397993311036785,4.264314228432857
5.959866220735786,4.245838438544587
5.9799331103678925,4.231657484965756
5.999999999999999,4.221876138492647
6.020066889632107,4.216569172500956
6.040133779264214,4.215780048765307
6.060200668896321,4.219520146164018
6.080267558528428,4.227768565906074
6.100334448160535,4.240472521558874
6.120401337792642,4.257548296132228
6.1404682274247495,4.278882723912922
6.160535117056856,4.304335133584231
6.180602006688963,4.333739672920308
6.200668896321069,4.36690792494262
6.2207357859531776,4.403631721141262
6.240802675585284,4.443686058859619
6.260869565217391,4.4868320363834835
6.280936454849498,4.532819729504998
6.301003344481605,4.58139094604262
6.321070234113712,4.632281808708606
6.341137123745819,4.685225130692844
6.361204013377926,4.739952561475534
6.381270903010033,4.7961964920548565
6.40133779264214,4.8536917186031365
6.421404682274248,4.912176871395829
6.441471571906354,4.971395621722119
6.461538461538461,5.031097683540304
6.481605351170568,5.091039629120553
6.501672240802676,5.150985539093588
6.521739130434782,5.21070750747294
6.54180602006689,5.269986021600374
6.561872909698996,5.328610235808644
6.581939799331103,5.386378156095884
6.60200668896321,5.443096751417199
6.622073578595318,5.498582005440959
6.642140468227424,5.552658920877649
6.662207357859531,5.605161486829442
6.682274247491639,5.655932618067677
6.702341137123746,5.704824073746345
6.722408026755852,5.751696361811773
6.742474916387959,5.796418634272723
6.762541806020066,5.838868577545593
6.782608695652174,5.878932301276773
6.80267558528428,5.916504228356252
6.822742474916388,5.951486988260883
6.842809364548494,5.983791315388816
6.862876254180601,6.013335953656072
6.882943143812709,6.040047568310277
6.903010033444816,6.0638606656640395
6.9230769230769225,6.084717521252003
6.94314381270903,6.102568116762191
6.963210702341137,6.11737008597658
6.983277591973244,6.12908866987076
7.0033444816053505,6.137696680962816
7.023411371237458,6.143174476961449
7.0434782608695645,6.145509943738971
7.063545150501672,6.144698487641666
7.083612040133779,6.1407430371446985
7.103678929765886,6.1336540538581525
7.123745819397993,6.123449552891158
7.143812709030099,6.110155132579825
7.1638795986622075,6.093804013578166
7.183946488294314,6.074437087296383
7.204013377926421,6.052102973643754
7.224080267558528,6.0268580879898614
7.2441471571906355,5.998766717193735
7.264214046822742,5.967901104459802
7.2842809364548495,5.934341542656958
7.304347826086956,5.898176475575007
7.324414715719063,5.859502606383721
7.34448160535117,5.818425012294855
7.364548494983278,5.775057264096105
7.384615384615384,5.729521548817525
7.404682274247491,5.681948793293024
7.424749163879598,5.632478785778929
7.444816053511706,5.581260292075565
7.464882943143812,5.5284511617526695
7.48494983277592,5.4742184190939
7.505016722408026,5.418738332240045
7.525083612040134,5.36219645271986
7.545150501672239,5.304787616113752
7.565217391304348,5.246715893009783
7.585284280936455,5.188194477708847
7.605351170568561,5.129445500359012
7.625418060200669,5.070699746413144
7.645484949832775,5.012196265602331
7.665551839464882,4.954181851126258
7.685618729096991,4.896910368643071
7.705685618729096,4.840641914096104
7.725752508361204,4.785641779680164
7.74581939799331,4.73217920859223
7.765886287625418,4.680525921910432
7.785953177257525,4.63095440527278
7.806020066889631,4.583735949212395
7.826086956521739,4.53913844519238
7.846153846153847,4.497423949579446
7.866220735785952,4.458846039821008
7.88628762541806,4.423647000531588
7.906354515050166,4.3920548913734825
7.926421404682274,4.364280562590815
7.946488294314381,4.340514696659623
7.966555183946488,4.32092496444645
7.986622073578595,4.305653390220075
8.006688963210701,4.294814020701616
8.02675585284281,4.2884909882853695
8.046822742474916,4.286737047352366
8.066889632107022,4.289572645592366
8.08695652173913,4.296985570459493
8.107023411371236,4.308931185897023
8.127090301003344,4.3253332482610665
8.147157190635452,4.346085265088945
8.167224080267557,4.3710523380139765
8.187290969899665,4.400073413373466
8.207357859531772,4.432963851984191
8.227424749163879,4.469518223619654
8.247491638795987,4.50951323173056
8.267558528428093,4.552710679187887
8.2876254180602,4.598860395201637
8.307692307692307,4.647703055793179
8.327759197324415,4.698972843967997
8.347826086956522,4.752399909863185
8.367892976588628,4.807712604658958
8.387959866220736,4.864639474233456
8.408026755852843,4.922911008958876
8.42809364548495,4.982261154474718
8.448160535117056,5.042428594715548
8.468227424749163,5.1031578230420696
8.488294314381271,5.164200020243552
8.508361204013378,5.225313759711479
8.528428093645484,5.286265560507071
8.548494983277592,5.346830308625782
8.568561872909697,5.40679156573989
8.588628762541806,5.46594178327945
8.608695652173914,5.524082438060005
8.628762541806019,5.581024103911163
8.648829431438127,5.636586472001764
8.668896321070234,5.690598330862033
8.68896321070234,5.742897515518091
8.709030100334449,5.793330833704751
8.729096989966555,5.8417539758235115
8.749163879598662,5.888031414166068
8.769230769230768,5.932036295926302
8.789297658862875,5.973650333666321
8.809364548494983,6.012763696174413
8.82943143812709,6.04927490204055
8.849498327759196,6.0830907177670275
8.869565217391303,6.114126061813354
8.889632107023411,6.142303915635146
8.909698996655518,6.167555242503787
8.929765886287624,6.18981891467822
8.949832775919733,6.209041649332426
8.96989966555184,6.225177953514521
8.989966555183946,6.23819007831866
9.010033444816054,6.248047982383147
9.030100334448159,6.254729304781743
9.050167224080267,6.258219347345782
9.070234113712376,6.258511066437597
9.09030100334448,6.255605074187986
9.110367892976589,6.249509649207627
9.130434782608695,6.2402407567818985
9.150501672240802,6.2278220785569545
9.17056856187291,6.212285051718838
9.190635451505017,6.193668917653599
9.210702341137123,6.172020780051126
9.23076923076923,6.147395672374507
9.250836120401337,6.11985663455571
9.270903010033445,6.089474798691996
9.290969899665551,6.0563294833999
9.311036789297658,6.0205082963276935
9.331103678929765,5.982107244125565
9.351170568561873,5.941230848916399
9.37123745819398,5.897992269988571
9.391304347826086,5.8525134290354766
9.411371237458194,5.804925136781343
9.4314381270903,5.755367218247282
9.451505016722408,5.703988633211564
9.471571906354516,5.650947587590687
9.49163879598662,5.596411630500516
9.511705685618729,5.540557730639867
9.531772575250837,5.483572324366016
9.551839464882942,5.425651326402904
9.57190635451505,5.367000092547805
9.591973244147155,5.30783332204252
9.612040133779264,5.248374885489798
9.632107023411372,5.188857562385542
9.652173913043477,5.129522670589468
9.672240802675585,5.070619568491818
9.692307692307692,5.012405009405812
9.712374581939798,4.95514232702029
9.732441471571907,4.899100430814476
9.752508361204013,4.84455259143055
9.77257525083612,4.791774998400272
9.792642140468226,4.741045076607203
9.812709030100335,4.692639553679841
9.832775919732441,4.646832278320762
9.852842809364548,4.603891799426389
9.872909698996656,4.56407872760695
9.89297658862876,4.527642914016617
9.91304347826087,4.4948204956291775
9.933110367892976,4.465830870355175
9.953177257525082,4.440873678564658
9.97324414715719,4.4201258783650115
9.993311036789297,4.403739009060253
10.013377926421404,4.391836739387291
10.033444816053512,4.384512793500111
10.053511705685617,4.381829337850615
10.073578595317725,4.383815896302838
10.093645484949834,4.390468839877316
10.113712374581938,4.401751472921953
10.133779264214047,4.417594711162134
10.153846153846153,4.437898321133382
10.17391304347826,4.46253266702984
10.193979933110368,4.491340891783496
10.214046822742475,4.524141445475084
10.234113712374581,4.560730866587576
10.254180602006688,4.6008867201177654
10.274247491638796,4.644370600562936
10.294314381270903,4.69093111628
10.31438127090301,4.740306783412638
10.334448160535118,4.792228771175745
10.354515050167223,4.846423454540343
10.37458193979933,4.902614744236467
10.394648829431437,4.960526176698635
10.414715719063544,5.019882757599976
10.434782608695652,5.080412561684808
10.454849498327757,5.141848098652427
10.474916387959865,5.203927459959546
10.494983277591974,5.2663952647938315
10.515050167224079,5.329003425382215
10.535117056856187,5.391511752514879
10.555183946488295,5.453688421961457
10.5752508361204,5.515310321579582
10.595317725752508,5.5761632975836095
10.615384615384615,5.636042316831247
10.635451505016722,5.694751560238363
10.65551839464883,5.75210446065499
10.675585284280936,5.807923696804158
10.695652173913043,5.862041153252419
10.71571906354515,5.914297854878795
10.735785953177256,5.96454388295429
10.755852842809364,6.012638278743298
10.775919732441471,6.0584489394886365
10.795986622073578,6.101852510736617
10.816053511705684,6.142734278186515
10.836120401337793,6.180988061597888
10.856187290969899,6.21651611274597
10.876254180602006,6.249229018967188
10.896321070234114,6.279045613471132
10.916387959866219,6.305892893300357
10.936454849498327,6.329705945585093
10.956521739130435,6.350427882556398
10.97658862876254,6.368009785640586
10.996655518394649,6.382410658852214
11.016722408026755,6.393597391626465
