Frequency (Hz),Amplitude
0.0,0.2798840350976457
0.01978021978021978,0.2821367736565035
0.03956043956043956,0.28878097026513055
0.05934065934065934,0.2994996786374726
0.07912087912087912,0.31383633008891143
0.0989010989010989,0.33126952500629325
0.11868131868131868,0.3512758114326441
0.13846153846153844,0.3733701270550667
0.15824175824175823,0.397125095188237
0.17802197802197803,0.42217548834815666
0.1978021978021978,0.4482143703942945
0.21758241758241756,0.4749856257057092
0.23736263736263735,0.502275650491659
0.2571428571428572,0.5299055806083044
0.2769230769230769,0.5577245931118864
0.2967032967032967,0.5856043833410373
0.31648351648351647,0.6134347235326345
0.3362637362637363,0.6411199404086331
0.35604395604395606,0.6685761413811944
0.3758241758241758,0.6957290364679404
0.3956043956043956,0.7225122281708735
0.4153846153846154,0.7488658665924672
0.4351648351648351,0.7747355889226166
0.45494505494505494,0.8000716803792157
0.4747252747252747,0.8248284079364047
0.4945054945054945,0.848963489277554
0.5142857142857143,0.8724376679700521
0.5340659340659341,0.8952143724243908
0.5538461538461538,0.9172594412253668
0.5736263736263736,0.9385409012718228
0.5934065934065934,0.9590287881138407
0.6131868131868132,0.978695000148012
0.6329670329670329,0.9975131800858823
0.6527472527472528,1.0154586184707572
0.6725274725274726,1.0325081750778227
0.6923076923076923,1.0486402148613367
0.7120879120879121,1.0638345557647204
0.7318681318681318,1.0780724262243406
0.7516483516483516,1.0913364306070166
0.7714285714285715,1.1036105211476939
0.7912087912087912,1.1148799752160274
0.810989010989011,1.1251313769519686
0.8307692307692308,1.1343526024823045
0.8505494505494506,1.142532808070172
0.8703296703296702,1.1496624206651607
0.8901098901098901,1.1557331304170069
0.9098901098901099,1.1607378847960221
0.9296703296703297,1.1646708840308935
0.9494505494505494,1.1675275776323915
0.9692307692307692,1.1693046618217167
0.989010989010989,1.1700000777267117
1.0087912087912088,1.1696130102491666
1.0285714285714287,1.1681438875437804
1.0483516483516484,1.165594381084392
1.0681318681318681,1.1619674063279388
1.087912087912088,1.15726712402129
1.1076923076923075,1.1514989422325816
1.1274725274725275,1.1446695192273972
1.1472527472527472,1.1367867673528997
1.1670329670329669,1.1278598581408616
1.1868131868131868,1.117899228895252
1.2065934065934065,1.1069165910938799
1.2263736263736265,1.0949249410085493
1.2461538461538462,1.0819385730376894
1.2659340659340659,1.067973096353109
1.2857142857142858,1.0530454555930306
1.3054945054945055,1.0371739564932319
1.3252747252747252,1.0203782975443836
1.3450549450549452,1.002679609006435
1.3648351648351649,0.9841005009133635
1.3846153846153846,0.9646651220795691
1.4043956043956045,0.9443992325951158
1.4241758241758242,0.9233302928984095
1.443956043956044,0.9014875732794231
1.4637362637362636,0.8789022886428619
1.4835164835164834,0.8556077646135003
1.5032967032967033,0.8316396426815517
1.523076923076923,0.8070361341776002
1.542857142857143,0.7818383355867078
1.5626373626373626,0.756090621259097
1.5824175824175823,0.7298411342150416
1.6021978021978023,0.7031424018173779
1.621978021978022,0.67605211103543
1.6417582417582417,0.6486340883920294
1.6615384615384616,0.6209595431009559
1.6813186813186813,0.5931086490111763
1.7010989010989013,0.5651725622330599
1.720879120879121,0.5372559965230922
1.7406593406593405,0.5094805057500856
1.7604395604395604,0.4819886463876806
1.7802197802197801,0.45494919950956497
1.7999999999999998,0.4285635926662098
1.8197802197802198,0.40307352172060146
1.8395604395604395,0.37876943233724053
1.8593406593406594,0.35599882587188114
1.879120879120879,0.3351721174214289
1.8989010989010988,0.3167619087400212
1.9186813186813187,0.3012894295706444
1.9384615384615385,0.28929102229398673
1.9582417582417584,0.2812607666727511
1.978021978021978,0.2775753022399784
1.9978021978021978,0.2784213438643738
2.0175824175824175,0.28375471809009023
2.0373626373626372,0.29331032498480614
2.0571428571428574,0.30665812336193965
2.076923076923077,0.3232798585349985
2.096703296703297,0.3426392050392008
2.1164835164835165,0.3642302427359922
2.1362637362637362,0.3876027514283546
2.1560439560439564,0.41237012708037846
2.175824175824176,0.4382070185359235
2.195604395604396,0.4648421774371345
2.215384615384615,0.49204989623220685
2.2351648351648348,0.5196417702696955
2.254945054945055,0.5474595059327392
2.2747252747252746,0.5753689557458634
2.2945054945054943,0.6032553107993148
2.314285714285714,0.6310192872587039
2.3340659340659338,0.6585741264488996
2.353846153846154,0.6858432432724938
2.3736263736263736,0.7127583837611605
2.3934065934065933,0.7392581794552272
2.413186813186813,0.7652870101464818
2.4329670329670328,0.7907941062092373
2.452747252747253,0.8157328374092777
2.4725274725274726,0.8400601472837712
2.4923076923076923,0.8637361015828356
2.512087912087912,0.8867235264574784
2.5318681318681318,0.9089877175735046
2.5516483516483515,0.9304962055284337
2.5714285714285716,0.9512185661606931
2.5912087912087913,0.9711262668055155
2.610989010989011,0.9901925414507177
2.6307692307692307,1.0083922892141357
2.6505494505494505,1.0257019917055414
2.6703296703296706,1.042099645726293
2.6901098901098903,1.0575647084587465
2.70989010989011,1.07207805284811
2.7296703296703297,1.0856219313157793
2.7494505494505495,1.0981799462908013
2.769230769230769,1.1097370263243393
2.7890109890109893,1.1202794067760715
2.808791208791209,1.1297946142429576
2.8285714285714287,1.1382714540484242
2.8483516483516484,1.145700000231505
2.8681318681318677,1.1520715875752878
2.887912087912088,1.1573788052978111
2.9076923076923076,1.1616154920985287
2.9274725274725273,1.1647767323133786
2.947252747252747,1.1668588529830015
2.9670329670329667,1.1678594216840508
2.986813186813187,1.1677772450141093
3.0065934065934066,1.166612367657677
3.0263736263736263,1.1643660719960351
3.046153846153846,1.1610408782573134
3.0659340659340657,1.1566405452370214
3.085714285714286,1.1511700716540543
3.1054945054945056,1.1446356982439188
3.1252747252747253,1.1370449107311356
3.145054945054945,1.1284064438671304
3.1648351648351647,1.1187302867709854
3.184615384615385,1.108027689868866
3.2043956043956046,1.0963111737970956
3.2241758241758243,1.0835945407156529
3.243956043956044,1.0698928885772918
3.2637362637362637,1.0552226290166242
3.2835164835164834,1.039601509668922
3.3032967032967036,1.023048641907162
3.3230769230769233,1.0055845352068704
3.342857142857143,0.9872311396233515
3.3626373626373627,0.9680118982102046
3.3824175824175824,0.9479518116408456
3.4021978021978025,0.9270775178428186
3.4219780219780223,0.9054173901512296
3.441758241758242,0.8830016583785734
3.4615384615384617,0.85986255834286
3.481318681318681,0.836034516874673
3.501098901098901,0.8115543812431866
3.520879120879121,0.7864617044438
3.5406593406593405,0.7607991010673203
3.5604395604395602,0.7346126927771635
3.58021978021978,0.7079526680949414
3.5999999999999996,0.68087398867871
3.61978021978022,0.6534372841410041
3.6395604395604395,0.6257099903977712
3.659340659340659,0.5977678033745047
3.679120879120879,0.569696541421636
3.6989010989010986,0.5415945364764941
3.718681318681319,0.5135757052424498
3.7384615384615385,0.4857734841174149
3.758241758241758,0.45834583594128103
3.7780219780219784,0.43148153104234926
3.7978021978021976,0.4054078238002591
3.8175824175824173,0.380399401159336
3.8373626373626375,0.35678791954034095
3.8571428571428568,0.3349703511892677
3.876923076923077,0.3154125191878107
3.896703296703296,0.298641710271806
3.916483516483517,0.285220191661832
3.936263736263736,0.27569264109468905
3.956043956043956,0.2705088297803472
3.9758241758241755,0.2699389011229421
3.9956043956043956,0.27401304064013626
4.015384615384615,0.2825142335909161
4.035164835164835,0.2950278524200556
4.054945054945055,0.31102373148286067
4.0747252747252745,0.3299375459481747
4.094505494505494,0.35122995291661124
4.114285714285715,0.3744188629908241
4.134065934065934,0.39909061681688646
4.153846153846154,0.4248984026754667
4.173626373626373,0.45155463627304465
4.193406593406594,0.47882148111312545
4.213186813186813,0.5065016576923607
4.232967032967033,0.5344304296848691
4.252747252747253,0.5624689886863268
4.2725274725274724,0.5904991552700302
4.292307692307692,0.6184192037182846
4.312087912087913,0.6461405995138579
4.331868131868132,0.673585458544922
4.351648351648352,0.7006845687229197
4.371428571428571,0.7273758467353169
4.391208791208792,0.753603130581006
4.410989010989011,0.7793152313006327
4.43076923076923,0.8044651852208768
4.450549450549451,0.8290096618432812
4.4703296703296695,0.8529084930483644
4.49010989010989,0.8761242972889001
4.50989010989011,0.8986221785131834
4.52967032967033,0.9203694841620655
4.549450549450549,0.9413356100833895
4.569230769230769,0.9614918428781442
4.589010989010989,0.9808112322380732
4.608791208791209,0.999268487408742
4.628571428571428,1.0168398931292892
4.648351648351649,1.0335032413459262
4.6681318681318675,1.0492377757352087
4.687912087912088,1.0640241466532936
4.707692307692308,1.0778443745852515
4.7274725274725276,1.0906818205321251
4.747252747252747,1.1025211620633015
4.767032967032967,1.113348373994494
4.786813186813187,1.123150712839363
4.806593406593407,1.1319167043353349
4.826373626373626,1.1396361334685354
4.846153846153847,1.1463000365256446
4.8659340659340655,1.1519006947850874
4.885714285714286,1.1564316295316468
4.905494505494506,1.1598875981385561
4.9252747252747255,1.1622645910131666
4.945054945054945,1.1635598292470641
4.964835164835165,1.1637717628517468
4.984615384615385,1.1629000694972216
5.004395604395604,1.1609456537045213
5.024175824175824,1.157910646475708
5.043956043956045,1.153798405376519
5.0637362637362635,1.1486135151195593
5.083516483516483,1.1423617887295154
5.103296703296703,1.1350502694088718
5.123076923076923,1.1266872332627476
5.142857142857143,1.1172821930875798
5.162637362637362,1.106845903480571
5.182417582417583,1.0953903675889534
5.2021978021978015,1.082928845890764
5.221978021978022,1.069475867486589
5.241758241758242,1.0550472444875267
5.2615384615384615,1.0396600902138784
5.281318681318681,1.0233328420779135
5.301098901098901,1.0060852902204842
5.320879120879121,0.9879386132160107
5.340659340659341,0.9689154224667302
5.36043956043956,0.9490398172934645
5.380219780219781,0.9283374532194051
5.3999999999999995,0.9068356265673786
5.41978021978022,0.8845633792905959
5.43956043956044,0.8615516289876737
5.4593406593406595,0.8378333303893489
5.479120879120879,0.8134436763464381
5.498901098901099,0.7884203486325472
5.518681318681319,0.7628038318848407
5.538461538461538,0.7366378079909385
5.558241758241758,0.7099696535298163
5.578021978021979,0.6828510699450299
5.5978021978021975,0.6553388855819825
5.617582417582418,0.627496081357416
5.637362637362637,0.5993931086654417
5.6571428571428575,0.5711095903687903
5.676923076923077,0.5427365246268865
5.696703296703297,0.5143791477146231
5.716483516483517,0.486160655183408
5.736263736263735,0.4582270258993815
5.756043956043956,0.43075322629914903
5.775824175824176,0.4039510578742246
5.795604395604395,0.3780787744426973
5.815384615384615,0.35345219066253225
5.835164835164835,0.3304560770429638
5.854945054945055,0.30955284194267774
5.874725274725275,0.2912825975238568
5.894505494505494,0.2762452324002768
5.914285714285715,0.26505364811362114
5.934065934065933,0.2582531601525531
5.953846153846154,0.2562196478356784
5.973626373626374,0.2590720251355809
5.993406593406593,0.2666414685617248
6.013186813186813,0.27851443385757013
6.032967032967033,0.2941259655837611
6.052747252747253,0.31285985219642903
6.072527472527473,0.3341236141877296
6.092307692307692,0.35738958435207263
6.112087912087913,0.38220889278566295
6.131868131868131,0.4082093011370244
6.151648351648352,0.4350856996377877
6.171428571428572,0.46258859326392004
6.191208791208791,0.4905131874825112
6.210989010989011,0.5186900648300059
6.230769230769231,0.5469776309397419
6.2505494505494505,0.5752561650799232
6.270329670329671,0.603423203198657
6.29010989010989,0.6313899793880041
6.309890109890111,0.659078688478629
6.329670329670329,0.6864203780643987
6.349450549450549,0.7133533205177063
6.36923076923077,0.7398217506852756
6.3890109890109885,0.7657748826504397
6.408791208791209,0.7911661401821237
6.428571428571428,0.8159525515301574
6.4483516483516485,0.8400942712540724
6.468131868131868,0.8635542007669376
6.487912087912088,0.8862976860054137
6.507692307692308,0.9082922756827322
6.527472527472527,0.9295075273778503
6.547252747252747,0.9499148515839585
6.567032967032967,0.9694873860185635
6.5868131868131865,0.9881998941618187
6.606593406593407,1.00602868326712
6.626373626373626,1.0229515380744536
6.6461538461538465,1.0389476672227271
6.665934065934065,1.0539976599552239
6.685714285714286,1.0680834511817763
6.705494505494506,1.0811882933321009
6.725274725274725,1.0932967337290331
6.745054945054945,1.1043945964455648
6.764835164835165,1.1144689677986876
6.7846153846153845,1.123508184785487
6.804395604395605,1.1315018258914469
6.824175824175824,1.138440703802552
6.8439560439560445,1.14431685963694
6.863736263736263,1.1491235583818138
6.883516483516484,1.1528552852802814
6.903296703296704,1.1555077429630787
6.923076923076923,1.1570778491633658
6.942857142857143,1.157563734891249
6.962637362637362,1.156964742978722
6.9824175824175825,1.1552814269374732
7.002197802197802,1.1525155501016837
7.021978021978022,1.1486700850571812
7.041758241758242,1.143749213387287
7.061538461538461,1.137758325796125
7.081318681318681,1.130704022702257
7.101098901098901,1.1225941154310155
7.1208791208791204,1.1134376281733844
7.140659340659341,1.103244800925029
7.16043956043956,1.0920270936717025
7.1802197802197805,1.0797971921501825
7.199999999999999,1.0665690155886354
7.21978021978022,1.0523577269210838
7.23956043956044,1.0371797460811065
7.259340659340659,1.0210527671159912
7.279120879120879,1.0039957800309045
7.298901098901099,0.9860290984829854
7.318681318681318,0.9671743947086408
7.338461538461539,0.9474547434009528
7.358241758241758,0.9268946766772816
7.3780219780219785,0.9055202528190383
7.397802197802197,0.8833591421627482
7.417582417582418,0.8604407344245546
7.437362637362638,0.8367962729174035
7.457142857142857,0.8124590226643509
7.476923076923077,0.7874644814504804
7.496703296703297,0.7618506455658743
7.516483516483516,0.735658345616423
7.536263736263736,0.7089316726567569
7.556043956043957,0.6817185215006262
7.575824175824176,0.6540712870433938
7.595604395604395,0.6260477616920934
7.615384615384615,0.5977122987774378
7.635164835164835,0.5691373297666149
7.654945054945055,0.540405354312949
7.674725274725275,0.5116115641232357
7.694505494505494,0.48286731657484777
7.7142857142857135,0.45430474250625413
7.734065934065935,0.4260828494505594
7.753846153846154,0.39839554666143834
7.7736263736263735,0.3714820166990502
7.793406593406592,0.3456396614055119
7.813186813186814,0.32123918950560204
7.832967032967034,0.2987398051209365
7.852747252747252,0.2786992349774201
7.872527472527472,0.26176817058689306
7.892307692307693,0.24865330988794715
7.912087912087912,0.24003406284827006
7.931868131868132,0.2364357782515096
7.951648351648351,0.23809847861636088
7.971428571428572,0.24490687845152645
7.991208791208791,0.25642453343267296
8.010989010989011,0.2720106454460712
8.03076923076923,0.29095511190534357
8.05054945054945,0.31257960333123985
8.07032967032967,0.33629008981109776
8.09010989010989,0.3615917599299248
8.10989010989011,0.38808309778939076
8.129670329670331,0.4154416956467486
8.149450549450549,0.44340873893069854
8.169230769230769,0.4717751537747689
8.189010989010988,0.5003702905416646
8.20879120879121,0.52905308042166
8.22857142857143,0.5577052778557268
8.248351648351647,0.586226349756638
8.268131868131867,0.6145296227435192
8.287912087912087,0.642539375948638
8.307692307692308,0.6701886397343731
8.327472527472528,0.6974175207464521
8.347252747252746,0.7241719202475219
8.367032967032966,0.7504025475441715
8.386813186813187,0.7760641560365522
8.406593406593407,0.8011149482457712
8.426373626373627,0.8255161099291249
8.446153846153845,0.8492314434548882
8.465934065934066,0.8722270779937348
8.485714285714286,0.8944712395296075
8.505494505494505,0.9159340677311029
8.525274725274725,0.9365874697363539
8.545054945054945,0.9564050031657253
8.564835164835165,0.9753617823846777
8.584615384615384,0.9934344033381767
8.604395604395604,1.0106008832721423
8.624175824175826,1.0268406124229772
8.643956043956043,1.042134315349696
8.663736263736263,1.0564640200459354
8.683516483516483,1.069813033332308
8.703296703296704,1.082165921316089
8.723076923076924,1.0935084939331112
8.742857142857142,1.1038277927684974
8.762637362637362,1.1131120814993172
8.782417582417583,1.1213508384205735
8.802197802197803,1.1285347506124852
8.821978021978023,1.1346557093863625
8.84175824175824,1.1397068067118723
8.86153846153846,1.143682332383657
8.881318681318682,1.1465777717313892
8.901098901098901,1.1483898037176092
8.920879120879121,1.1491162993020112
8.940659340659339,1.148756319981995
8.96043956043956,1.1473101164472173
8.98021978021978,1.1447791273121362
9.0,1.1411659779155323
9.01978021978022,1.1364744792011972
9.03956043956044,1.1307096267190662
9.05934065934066,1.1238775998132682
9.079120879120879,1.1159857610925046
9.098901098901099,1.107042656310645
9.11868131868132,1.0970580148223585
9.138461538461538,1.086042750821451
9.158241758241758,1.074008965619952
9.178021978021977,1.0609699512864834
9.197802197802199,1.0469401960351625
9.217582417582419,1.0319353918453753
9.237362637362637,1.0159724449022944
9.257142857142856,0.999069489583861
9.276923076923078,0.9812459068901009
9.296703296703297,0.9625223484244574
9.316483516483517,0.9429207673082124
9.336263736263735,0.9224644577553753
9.356043956043957,0.9011781054802567
9.375824175824176,0.8790878516859303
9.395604395604396,0.85622137413193
9.415384615384616,0.832607989764681
9.435164835164835,0.8082787846963819
9.454945054945055,0.7832667790536187
9.474725274725275,0.7576071365476766
9.494505494505495,0.731337431773395
9.514285714285714,0.7044979925494266
9.534065934065934,0.6771323405368389
9.553846153846154,0.6492877615900636
9.573626373626373,0.6210160487796391
9.593406593406593,0.5923744771948892
9.613186813186815,0.5634270925332228
9.632967032967032,0.5342464280466236
9.652747252747252,0.5049158107682481
9.672527472527472,0.47553248363622924
9.692307692307693,0.4462118619822799
9.712087912087913,0.4170933674002644
9.731868131868131,0.38834844011597147
9.75164835164835,0.36019150251047805
9.771428571428572,0.33289475147372155
9.791208791208792,0.306807467071875
9.810989010989012,0.2823794852370236
9.83076923076923,0.26018545574650076
9.850549450549451,0.24093974806873614
9.87032967032967,0.22548050833946737
9.89010989010989,0.214690940477024
9.90989010989011,0.20933641849319484
9.92967032967033,0.2098520200868422
9.94945054945055,0.21619117560183965
9.96923076923077,0.22784259666186638
9.989010989010989,0.24400260327067833
10.008791208791209,0.26378509760367025
10.028571428571428,0.2863695951236703
10.048351648351648,0.31106621975908266
10.068131868131868,0.3373238608187318
10.08791208791209,0.36471231175885205
10.107692307692307,0.392897611635736
10.127472527472527,0.4216191598176412
10.147252747252747,0.4506712151550048
10.167032967032966,0.47988883750822
10.186813186813188,0.5091375067421479
10.206593406593406,0.5383055462819242
10.226373626373626,0.5672986067764465
10.246153846153845,0.5960356383587955
10.265934065934067,0.624445932919442
10.285714285714286,0.6524669363240244
10.305494505494504,0.6800426172522926
10.325274725274724,0.7071222411579133
10.345054945054946,0.7336594414081165
10.364835164835165,0.7596115102564417
10.384615384615385,0.7849388538258719
10.404395604395603,0.8096045704914937
10.424175824175824,0.8335741228700796
10.443956043956044,0.8568150813737002
10.463736263736264,0.8792969228796869
10.483516483516484,0.9009908721413621
10.503296703296703,0.9218697765524161
10.523076923076923,0.9419080070879042
10.542857142857143,0.9610813798932445
10.562637362637362,0.9793670942310483
10.582417582417584,0.996743683433203
