Frequency (Hz),Amplitude
0.0,5.606708164313951
0.019823788546255508,5.60470641682433
0.039647577092511016,5.5987047502982605
0.059471365638766524,5.588713900005899
0.07929515418502203,5.574751782980794
0.09911894273127755,5.556843535781845
0.11894273127753305,5.535021568138166
0.13876651982378857,5.509325633263875
0.15859030837004406,5.479802915866083
0.17841409691629956,5.446508139116233
0.1982378854625551,5.409503692109042
0.2180616740088106,5.368859779600006
0.2378854625550661,5.324654596088174
0.25770925110132165,5.276974526595784
0.27753303964757714,5.225914376788084
0.29735682819383263,5.171577635367742
0.31718061674008813,5.114076771964366
0.3370044052863437,5.053533574004326
0.3568281938325991,4.990079526275433
0.37665198237885467,4.923856237067916
0.3964757709251102,4.855015914843542
0.41629955947136565,4.78372189931244
0.4361233480176212,4.710149250517308
0.4559471365638767,4.634485398955053
0.4757709251101322,4.556930858794852
0.49559471365638774,4.477700004738054
0.5154185022026433,4.39702191082809
0.5352422907488987,4.31514124633232
0.5550660792951543,4.232319219406818
0.5748898678414097,4.148834553293778
0.5947136563876653,4.064984471916401
0.6145374449339208,3.981085661530171
0.6343612334801763,3.8974751621664074
0.6541850220264318,3.8145111266497507
0.6740088105726874,3.732573365839104
0.6938325991189428,3.652063576628005
0.7136563876651982,3.5734051248848044
0.7334801762114539,3.4970422304890243
0.7533039647577093,3.4234383786395814
0.7731277533039648,3.353073764828645
0.7929515418502204,3.2864415760483467
0.8127753303964759,3.22404292516266
0.8325991189427313,3.1663802969816093
0.8524229074889869,3.1139494408788138
0.8722466960352424,3.067229760397349
0.8920704845814978,3.026673403964191
0.9118942731277534,2.992693442489204
0.931718061674009,2.965651708349144
0.9515418502202644,2.945847034945511
0.9713656387665199,2.9335047398197545
0.9911894273127755,2.928768202994246
1.0110132158590308,2.9316932848245423
1.0308370044052866,2.9422461057829707
1.0506607929515421,2.960304402154265
1.0704845814977975,2.9856623263775637
1.090308370044053,3.0180382382046935
1.1101321585903086,3.0570847864297988
1.1299559471365639,3.1024004446309514
1.1497797356828194,3.153541646061822
1.1696035242290752,3.2100347463440917
1.1894273127753305,3.2713871959462955
1.209251101321586,3.3370974904811965
1.2290748898678416,3.406663652543737
1.248898678414097,3.4795901605783617
1.2687224669603525,3.5553933654981194
1.288546255506608,3.633605521360723
1.3083700440528636,3.7137776058137395
1.3281938325991192,3.795481126255771
1.3480176211453747,3.8783091067897746
1.36784140969163,3.96187643658345
1.3876651982378856,4.045819738344391
1.4074889867841411,4.12979689079864
1.4273127753303965,4.2134863143699395
1.4471365638766522,4.296586106509908
1.4669603524229078,4.37881309324516
1.4867841409691631,4.459901846788211
1.5066079295154187,4.539603705428033
1.5264317180616742,4.617685821087008
1.5462555066079295,4.693930251521245
1.5660792951541853,4.7681331077489535
1.5859030837004409,4.840103762537063
1.6057268722466962,4.909664122319328
1.6255506607929517,4.976647962474524
1.6453744493392073,5.040900324221645
1.6651982378854626,5.102276970300629
1.6850220264317182,5.160643895950644
1.7048458149779737,5.2158768913563955
1.7246696035242293,5.267861151615934
1.7444933920704848,5.3164909303241785
1.7643171806167404,5.361669233013007
1.7841409691629957,5.403307546905043
1.8039647577092512,5.441325603696537
1.8237885462555068,5.475651172366006
1.8436123348017623,5.506219879296757
1.863436123348018,5.5329750532924
1.8832599118942732,5.555867593351964
1.9030837004405288,5.574855857348878
1.9229074889867843,5.589905570026797
1.9427312775330399,5.600989748982569
1.9625550660792954,5.608088647554713
1.982378854625551,5.611189713774329
2.002202643171806,5.610287564766773
2.0220264317180616,5.605383976218158
2.041850220264317,5.59648788674267
2.061674008810573,5.583615417206862
2.0814977973568287,5.566789905288069
2.1013215859030843,5.546041955767394
2.1211453744493394,5.521409507285281
2.140969162995595,5.492937916522373
2.1607929515418505,5.460680061010197
2.180616740088106,5.424696462028006
2.2004405286343616,5.385055429303584
2.220264317180617,5.3418332295072535
2.2400881057268722,5.295114280808554
2.2599118942731278,5.24499137605225
2.2797356828193833,5.191565937397979
2.299559471365639,5.134948305551125
2.319383259911895,5.075258066977684
2.3392070484581504,5.0126244227284396
2.3590308370044055,4.947186602673746
2.378854625550661,4.879094329037101
2.3986784140969166,4.8085083330708045
2.418502202643172,4.735600928480049
2.4383259911894277,4.660556644694274
2.4581497797356833,4.583572922204572
2.4779735682819384,4.504860870798433
2.497797356828194,4.424646089459338
2.5176211453744495,4.343169543745096
2.537444933920705,4.260688492355884
2.5572687224669606,4.177477449038212
2.577092511013216,4.093829158590123
2.5969162995594717,4.010055556145751
2.6167400881057272,3.9264886667357675
2.6365638766519828,3.8434813870129454
2.6563876651982383,3.7614080728162014
2.676211453744494,3.68066483503395
2.6960352422907494,3.601669422619635
2.715859030837005,3.5248605469627674
2.73568281938326,3.4506964785334886
2.7555066079295156,3.3796527285560196
2.775330396475771,3.312218620737012
2.7951541850220267,3.2488925675870695
2.8149779735682823,3.1901759004235006
2.834801762114538,3.1365651693075205
2.854625550660793,3.0885429342827355
2.874449339207049,3.046567212653721
2.8942731277533045,3.0110599209393945
2.91409691629956,2.982394836522176
2.9339207048458156,2.9608857744776085
2.953744493392071,2.946775794236528
2.9735682819383262,2.9402282836375573
2.993392070484582,2.9413206901019673
3.0132158590308373,2.95004147584798
3.033039647577093,2.9662905874871046
3.0528634361233484,2.98988339438807
3.072687224669604,3.0205577221159965
3.092511013215859,3.0579833422294187
3.1123348017621146,3.1017731166318288
3.1321585903083706,3.151494947814714
3.151982378854626,3.206683745259017
3.1718061674008817,3.266852754673789
3.1916299559471373,3.331503774662397
3.2114537444933924,3.400135970755219
3.231277533039648,3.472253163733344
3.2511013215859035,3.5473696026410453
3.270925110132159,3.6250143275401916
3.2907488986784146,3.704734284845898
3.31057268722467,3.7860963851739395
3.3303964757709252,3.8686886978215234
3.350220264317181,3.952120964905297
3.3700440528634363,4.036024598224998
3.389867841409692,4.120052297992984
3.4096916299559474,4.203877408036782
3.4295154185022034,4.287193099039139
3.4493392070484585,4.369711450949473
3.469162995594714,4.451162488333198
3.4889867841409696,4.531293208134214
3.508810572687225,4.609866627880296
3.5286343612334807,4.686660873406537
3.5484581497797363,4.761468318315004
3.5682819383259914,4.83409478224985
3.588105726872247,4.90435879129912
3.6079295154185025,4.972090901141861
3.627753303964758,5.037133081694797
3.6475770925110136,5.099338160774129
3.667400881057269,5.158569323518924
3.6872246696035247,5.214699663894577
3.7070484581497802,5.267611784415755
3.726872246696036,5.317197440221607
3.7466960352422913,5.363357223750589
3.7665198237885464,5.4060002864546215
3.7863436123348024,5.4450440942347385
3.8061674008810575,5.480414213551648
3.8259911894273135,5.512044125448613
3.8458149779735686,5.539875065012418
3.8656387665198246,5.563855884082706
3.8854625550660797,5.583942935298028
3.905286343612335,5.600099975835091
3.925110132158591,5.6122980894561625
3.9449339207048464,5.620515625728178
3.964757709251102,5.624738155516238
3.9845814977973575,5.624958442086328
4.004405286343612,5.621176427377437
4.024229074889869,5.6133992332251434
4.044052863436123,5.60164117753782
4.06387665198238,5.585923805645994
4.083700440528634,5.566275937266501
4.103524229074891,5.542733729747744
4.123348017621146,5.515340758493198
4.143171806167401,5.484148115697784
4.162995594713657,5.449214528778163
4.182819383259912,5.410606500133444
4.2026431718061685,5.368398470137109
4.222466960352423,5.322673005534353
4.242290748898679,5.273521015697643
4.262114537444934,5.2210419994734965
4.28193832599119,5.165344325628618
4.301762114537445,5.1065455501626955
4.321585903083701,5.044772773982522
4.3414096916299565,4.980163044607642
4.361233480176212,4.912863805669032
4.381057268722468,4.843033397930438
4.400881057268723,4.770841615350152
4.420704845814979,4.696470319236374
4.440528634361234,4.620114112735619
4.46035242290749,4.541981076605352
4.4801762114537445,4.462293565301996
4.500000000000001,4.381289059662354
4.5198237885462555,4.299221068628806
4.539647577092512,4.216360067272124
4.559471365638767,4.132994451466904
4.579295154185023,4.049431480602192
4.599118942731278,3.965998168292022
4.618942731277533,3.883042066857636
4.63876651982379,3.800931874185013
4.658590308370044,3.720057771474031
4.678414096916301,3.640831377879566
4.6982378854625555,3.563685184267449
4.718061674008811,3.4890713053864975
4.737885462555067,3.417459371058317
4.757709251101322,3.3493333673259986
4.777533039647578,3.2851872441628203
4.797356828193833,3.225519134666795
4.817180616740089,3.1708240890664223
4.837004405286344,3.121585321033366
4.856828193832599,3.0782640952126696
4.876651982378855,3.041288547913406
4.896475770925111,3.0110419124426655
4.9162995594713665,2.9878507914044805
4.936123348017622,2.9719742475631334
4.955947136563877,2.9635945382799216
4.975770925110133,2.9628102694855274
4.995594713656388,2.969632584393453
5.015418502202644,2.983984744082657
5.035242290748899,3.005705139374377
5.055066079295155,3.0345534490433357
5.07488986784141,3.0702193830316378
5.094713656387666,3.1123332632597336
5.114537444933921,3.1604776190766324
5.134361233480177,3.214199005336757
5.154185022026432,3.273019365246576
5.174008810572688,3.336446424128692
5.193832599118943,3.4039827802240588
5.213656387665199,3.475133527233378
5.2334801762114544,3.5494123829562656
5.25330396475771,3.6263464014243803
5.2731277533039655,3.7054794123889043
5.292951541850221,3.786374366853636
5.312775330396477,3.868614777725643
5.332599118942731,3.951805438056336
5.352422907488988,4.035572582346756
5.372246696035242,4.119563634162544
5.392070484581499,4.203446659538823
5.4118942731277535,4.2869096227405254
5.43171806167401,4.369659520243536
5.451541850220265,4.451421450947128
5.47136563876652,4.531937665756184
5.491189427312777,4.610966627634514
5.511013215859031,4.688282103718506
5.530837004405288,4.763672303728872
5.550660792951542,4.83693907335184
5.570484581497798,4.907897147137945
5.5903083700440535,4.976373462482073
5.610132158590309,5.04220653414923
5.6299559471365646,5.105245887386831
5.64977973568282,5.165351546748627
5.669603524229076,5.222393577215984
5.689427312775331,5.276251673936174
5.709251101321586,5.3268147968263575
5.729074889867842,5.373980846357061
5.748898678414098,5.4176563769859
5.768722466960353,5.4577563449284
5.788546255506609,5.4942038872048515
5.808370044052864,5.52693012917341
5.82819383259912,5.55587401803861
5.848017621145375,5.5809821801029
5.867841409691631,5.602208799803163
5.887665198237886,5.619515518839386
5.907488986784142,5.632871353960275
5.927312775330397,5.642252632217558
5.9471365638766525,5.647642942739697
5.966960352422908,5.649033104306873
5.986784140969164,5.646421148233803
6.00660792951542,5.639812316287119
6.026431718061675,5.629219073582314
6.04625550660793,5.614661136621329
6.066079295154186,5.596165516850355
6.085903083700441,5.5737665803387
6.105726872246697,5.5475061244047215
6.125550660792952,5.517433472247549
6.145374449339208,5.483605586882213
6.1651982378854635,5.446087205923991
6.185022026431718,5.404950999022541
6.204845814977975,5.360277750010155
6.224669603524229,5.312156566095244
6.244493392070486,5.260685116700891
6.264317180616741,5.205969904810472
6.284140969162996,5.148126573928654
6.303964757709252,5.08728025398215
6.323788546255507,5.023565949649284
6.3436123348017635,4.9571289746935765
6.363436123348018,4.888125435844123
6.3832599118942746,4.816722769563829
6.403083700440529,4.743100334607397
6.422907488986785,4.667450062501936
6.44273127753304,4.589977166872988
6.462555066079296,4.510900910734519
6.482378854625551,4.430455428284231
6.502202643171807,4.3488905941644855
6.5220264317180625,4.266472928298886
6.541850220264318,4.183486517979427
6.561674008810574,4.100233930520659
6.581497797356829,4.017037079163611
6.601321585903085,3.9342379916924237
6.62114537444934,3.8521994152202774
6.640969162995596,3.7713051718309782
6.6607929515418505,3.691960158636437
6.680616740088107,3.614589863333241
6.700440528634362,3.539639244370499
6.720264317180618,3.4675708063514774
6.740088105726873,3.398861690588754
6.759911894273129,3.3339996034883006
6.779735682819384,3.273477428398555
6.799559471365639,3.2177864167182375
6.819383259911895,3.1674079371424275
6.83920704845815,3.1228038802082096
6.859030837004407,3.0844059649446676
6.8788546255506615,3.0526043631681765
6.898678414096917,3.0277362230843363
6.918502202643173,3.0100748078363524
6.938325991189428,2.9998200340895202
6.958149779735684,2.9970911734079824
6.977973568281939,3.001922351942499
6.997797356828195,3.014261259662267
7.01762114537445,3.0339711892156846
7.037444933920705,3.060836213307121
7.0572687224669615,3.0945690302035844
7.077092511013216,3.1348208034119573
7.096916299559473,3.181192218900919
7.116740088105728,3.233244984058763
7.136563876651983,3.2905130797132314
7.156387665198239,3.3525132207403416
7.176211453744494,3.4187541497408827
7.19603524229075,3.488744553973453
7.215859030837005,3.561999538687467
7.235682819383261,3.6380457000639996
7.255506607929516,3.7164249159737053
7.275330396475772,3.7966970159949684
7.295154185022027,3.878441509787057
7.314977973568283,3.9612585520169716
7.334801762114538,4.044769309126905
7.354625550660794,4.128615873661281
7.374449339207049,4.212460849623707
7.394273127753305,4.295986710094421
7.4140969162995605,4.378895007741941
7.433920704845816,4.460905500751656
7.453744493392072,4.541755241371089
7.473568281938327,4.6211976616972485
7.493392070484583,4.699001681270937
7.513215859030838,4.774950853171683
7.533039647577093,4.848842559276783
7.552863436123348,4.920487260820407
7.572687224669605,4.989707807066055
7.59251101321586,5.056338802524404
7.612334801762115,5.120226031498148
7.6321585903083715,5.1812259376359755
7.651982378854627,5.239205155494139
7.671806167400882,5.294040090724192
7.691629955947137,5.3456165453464815
7.711453744493394,5.3938293845664065
7.731277533039649,5.4385822416952285
7.751101321585904,5.479787257914949
7.7709251101321595,5.517364853849197
7.790748898678416,5.551243530151889
7.81057268722467,5.581359694588545
7.830396475770926,5.60765751335215
7.850220264317182,5.630088784621365
7.870044052863436,5.648612832628605
7.889867841409693,5.663196420758246
7.909691629955948,5.673813682439748
7.929515418502204,5.680446068836281
7.9493392070484585,5.6830823125590175
7.969162995594715,5.681718406859218
7.9889867841409705,5.676357599968945
8.008810572687224,5.667010404475708
8.02863436123348,5.65369462182993
8.048458149779737,5.636435382298805
8.068281938325994,5.615265200895269
8.088105726872246,5.590224050031666
8.107929515418503,5.561359449872105
8.12775330396476,5.528726577588663
8.147577092511014,5.492388396964539
8.167400881057269,5.452415810031359
8.187224669603525,5.40888783267787
8.207048458149782,5.3618917964200365
8.226872246696036,5.311523578774833
8.246696035242293,5.25788786492496
8.266519823788547,5.201098443588887
8.286343612334802,5.141278540208543
8.306167400881058,5.07856119071275
8.325991189427315,5.013089659184954
8.345814977973568,4.945017902719794
8.365638766519824,4.874511086548411
8.38546255506608,4.801746152081601
8.405286343612337,4.726912439780875
8.42511013215859,4.650212367613221
8.444933920704846,4.571862164139246
8.464757709251103,4.492092652859463
8.484581497797357,4.411150081091176
8.504405286343614,4.329296982125699
8.524229074889869,4.246813053437332
8.544052863436125,4.163996025973446
8.56387665198238,4.081162489731421
8.583700440528636,3.9986486286396303
8.60352422907489,3.9168108030210873
8.623348017621145,3.836025900637067
8.643171806167402,3.756691357834601
8.662995594713658,3.6792247315211206
8.682819383259913,3.6040626821804223
8.702643171806168,3.5316592105243805
8.722466960352424,3.4624829794225778
8.74229074889868,3.3970135534811683
8.762114537444935,3.3357364070783286
8.78193832599119,3.279136594188605
8.801762114537446,3.22769104541985
8.821585903083701,3.181859562053704
8.841409691629957,3.1420747111530956
8.861233480176212,3.108730980345662
8.881057268722468,3.0821737076277973
8.900881057268723,3.0626884348406773
8.92070484581498,3.0504914139688135
8.940528634361234,3.0457219965776128
8.960352422907489,3.0484375428906874
8.980176211453745,3.0586113002524553
9.000000000000002,3.0761334434031684
9.019823788546258,3.100815180386805
9.039647577092511,3.1323955551202918
9.059471365638768,3.1705503637853063
9.079295154185024,3.2149024759699545
9.099118942731279,3.265032821708766
9.118942731277533,3.3204913619084224
9.13876651982379,3.380807478338828
9.158590308370046,3.4454993711726054
9.1784140969163,3.5140822095477704
9.198237885462555,3.5860749229984874
9.218061674008812,3.6610056364481163
9.237885462555067,3.738415834205003
9.257709251101323,3.8178633903104804
9.27753303964758,3.8989246284354855
9.297356828193834,3.981195580542539
9.317180616740089,4.0642926059549085
9.337004405286345,4.147852516690214
9.356828193832602,4.231532335109071
9.376651982378855,4.315008789072605
9.396475770925111,4.397977629814431
9.416299559471367,4.480152839703787
9.436123348017622,4.561265781507585
9.455947136563877,4.6410643277559185
9.475770925110133,4.719311998246618
9.49559471365639,4.795787125331792
9.515418502202644,4.870282060102755
9.5352422907489,4.942602427615958
9.555066079295155,5.012566435588807
9.57488986784141,5.080004238282536
9.594713656387666,5.144757355361075
9.614537444933923,5.206678144190202
9.634361233480178,5.265629323172768
9.654185022026432,5.321483543189598
9.674008810572689,5.374123003939824
9.693832599118945,5.423439111880005
9.713656387665198,5.469332176495164
9.733480176211454,5.511711141756391
9.75330396475771,5.550493349800387
9.773127753303967,5.585604334082978
9.792951541850222,5.616977639497582
9.812775330396477,5.644554667197665
9.832599118942733,5.668284542114349
9.852422907488988,5.688124001409513
9.872246696035244,5.7040373023494855
9.892070484581499,5.715996148322509
9.911894273127754,5.723979631954674
9.93171806167401,5.727974194503633
9.951541850220266,5.727973600927969
9.971365638766521,5.723978930244905
9.991189427312776,5.715998580999391
10.011013215859032,5.704048291876663
10.030837004405289,5.688151177699511
10.050660792951543,5.6683377812610605
10.070484581497798,5.6446461416563505
10.090308370044054,5.617121879992745
10.11013215859031,5.585818303579319
10.129955947136565,5.550796529921743
10.14977973568282,5.512125632079351
10.169603524229077,5.469882807174851
10.189427312775331,5.424153570082216
10.209251101321588,5.375031974549874
10.229074889867842,5.322620864238724
10.248898678414099,5.267032156357793
10.268722466960353,5.208387160751524
10.28854625550661,5.146816937413389
10.308370044052865,5.082462695445007
10.32819383259912,5.015476236414465
10.348017621145376,4.946020444847553
10.367841409691632,4.87426982815106
10.387665198237887,4.800411107542912
10.407488986784141,4.724643860450823
10.427312775330398,4.6471812132179116
10.447136563876654,4.568250580666102
10.466960352422909,4.4880944459327505
10.486784140969164,4.406971169793294
10.50660792951542,4.325155813161575
10.526431718061675,4.2429409493486325
10.546255506607931,4.160637433680602
10.566079295154186,4.078575086983556
10.585903083700442,3.997103236075491
10.605726872246697,3.9165910387777605
10.625550660792953,3.8374275033719334
10.645374449339208,3.760021093637763
10.665198237885463,3.6847987920066294
10.685022026431719,3.612204477188503
10.704845814977975,3.5426964621260235
10.724669603524232,3.476744037616882
10.744493392070485,3.414822881649666
10.764317180616741,3.357409230033128
10.784140969162998,3.3049727652549206
10.803964757709252,3.2579682705208213
