Time (s),Filtered Signal
0.0,0.0042597599098210745
0.033370165745856356,-0.1387990152990288
0.06674033149171271,-0.2608925829114181
0.10011049723756907,-0.34470836383438225
0.13348066298342542,-0.37906855972773507
0.16685082872928178,-0.3602575769638866
0.20022099447513814,-0.2922675229808524
0.2335911602209945,-0.18627770440769473
0.26696132596685085,-0.059332172890424716
0.30033149171270723,0.06819782253301342
0.33370165745856356,0.17655077216388268
0.3670718232044199,0.2511527074839008
0.4004419889502763,0.28612034402462766
0.43381215469613266,0.2849683746644863
0.467182320441989,0.25805096817950285
0.5005524861878453,0.218027212294188
0.5339226519337017,0.17566639074536158
0.5672928176795581,0.13787566642983706
0.6006629834254145,0.1082868067484076
0.6340331491712707,0.08917266844166548
0.6674033149171271,0.08286877100012988
0.7007734806629835,0.09149286250301215
0.7341436464088398,0.11505777771073895
0.7675138121546962,0.14922455751597313
0.8008839779005525,0.1843205154571355
0.8342541436464089,0.2067065207926346
0.8676243093922653,0.2024334141689452
0.9009944751381216,0.1619561355049789
0.934364640883978,0.08404601580578537
0.9677348066298344,-0.02274468149841186
1.0011049723756906,-0.14177792716319335
1.0344751381215471,-0.25270889098200916
1.0678453038674034,-0.3371631928871014
1.1012154696132597,-0.38399318125063775
1.1345856353591162,-0.3925941566299184
1.1679558011049724,-0.3732665192482417
1.201325966850829,-0.34425605658491426
1.2346961325966852,-0.3258991191937436
1.2680662983425415,-0.33326582415056155
1.301436464088398,-0.36960801821969336
1.3348066298342542,-0.4232420253946389
1.3681767955801105,-0.4696958597797754
1.401546961325967,-0.47901388957032043
1.4349171270718233,-0.42580825110071435
1.4682872928176796,-0.2982084347509665
1.501657458563536,-0.10222228723578781
1.5350276243093923,0.13986821911918898
1.5683977900552488,0.3957308095561449
1.601767955801105,0.6307270078791632
1.6351381215469614,0.8142722882709748
1.6685082872928179,0.9236896771872752
1.7018784530386741,0.9463144139419247
1.7352486187845306,0.8811242512904821
1.768618784530387,0.7400820602949671
1.8019889502762432,0.5478460926855108
1.8353591160220997,0.338082587392328
1.868729281767956,0.1459450183483378
1.9020994475138122,-0.0014090331758555906
1.9354696132596687,-0.09266827547927706
1.968839779005525,-0.13506082194470148
2.0022099447513813,-0.15033379824251847
2.0355801104972375,-0.1653594055185292
2.0689502762430942,-0.20111935410192036
2.1023204419889505,-0.26462257839700815
2.135690607734807,-0.34712565037305054
2.169060773480663,-0.4293166098708514
2.2024309392265193,-0.4910175545654719
2.235801104972376,-0.5208412196955217
2.2691712707182323,-0.5211621128940086
2.3025414364640886,-0.5059121613080096
2.335911602209945,-0.4921732078140164
2.369281767955801,-0.4896792149061915
2.402651933701658,-0.49360003968918004
2.436022099447514,-0.48466232667625064
2.4693922651933704,-0.4372926665423126
2.5027624309392267,-0.3325301725922913
2.536132596685083,-0.16972906175045746
2.5695027624309392,0.02911298106783407
2.602872928176796,0.2258488539333382
2.636243093922652,0.3821422687709749
2.6696132596685085,0.4784878954915436
2.7029834254143648,0.5269338921544187
2.736353591160221,0.5692369058678995
2.7697237569060777,0.6577988647381787
2.803093922651934,0.8252261229909521
2.8364640883977903,1.0560502016212157
2.8698342541436466,1.2766712361396473
2.903204419889503,1.3740324318331907
2.936574585635359,1.2407070702505867
2.969944751381216,0.8292604541001901
3.003314917127072,0.1898910354615884
3.0366850828729284,-0.5310927018243577
3.0700552486187846,-1.1379234696830938
3.103425414364641,-1.4607556197726683
3.1367955801104976,-1.4267502268074066
3.170165745856354,-1.0927611652141687
3.20353591160221,-0.6220080361026118
3.2369060773480665,-0.21366637909611907
3.2702762430939227,-0.017529584137316496
3.3036464088397794,-0.07361103838439355
3.3370165745856357,-0.3043436312078075
3.370386740331492,-0.5608719937355982
3.4037569060773483,-0.6983192800830952
3.4371270718232045,-0.6417730679531043
3.4704972375690613,-0.4117719144060433
3.5038674033149175,-0.10089526360415296
3.537237569060774,0.18132581302782236
3.57060773480663,0.363534654632228
3.6039779005524863,0.4397167797144569
3.6373480662983426,0.4584107131899815
3.6707182320441993,0.4850266401205098
3.7040883977900556,0.5608157977425319
3.737458563535912,0.6804525763291716
3.770828729281768,0.7974148265681368
3.8041988950276244,0.8507670811252476
3.837569060773481,0.7970759934666517
3.8709392265193374,0.6310823747389446
3.9043093922651937,0.3867175691037967
3.93767955801105,0.12065847460588665
3.9710497237569062,-0.11171584333873262
4.0044198895027625,-0.27633374562268
4.037790055248619,-0.36850783370738643
4.071160220994475,-0.4076909528857836
4.104530386740332,-0.42348429124317644
4.1379005524861885,-0.4404323845588497
4.171270718232044,-0.4683395099143595
4.204640883977901,-0.5012417178946759
4.238011049723757,-0.5238091584231641
4.271381215469614,-0.5209079705773628
4.30475138121547,-0.4854682956165173
4.338121546961326,-0.42149641377613944
4.371491712707183,-0.34181045597617865
4.404861878453039,-0.26239876724997874
4.438232044198895,-0.19626243978889515
4.471602209944752,-0.14914776361705584
4.504972375690608,-0.11830680864173969
4.538342541436465,-0.0941276801249891
4.5717127071823205,-0.06367954642784684
4.605082872928177,-0.0150184686757844
4.638453038674034,0.058750474183535135
4.67182320441989,0.15649141207787268
4.7051933701657465,0.2679200124403238
4.738563535911602,0.3750342939248193
4.771933701657459,0.4563430065188478
4.805303867403316,0.493257558375666
4.8386740331491715,0.47693736659222935
4.872044198895028,0.413141494856502
4.905414364640884,0.32275401050697033
4.938784530386741,0.23681444033084442
4.972154696132597,0.18684177778781197
5.005524861878453,0.193326479047029
5.03889502762431,0.25660883127823625
5.072265193370166,0.35420593397748346
5.105635359116023,0.4467190977605291
5.1390055248618784,0.4912318439768522
5.172375690607735,0.4578043848157311
5.205745856353592,0.3427675670236438
5.239116022099448,0.17306490024257098
5.272486187845304,-0.0010851051902774354
5.30585635359116,-0.12350613356588935
5.339226519337017,-0.15354175151893062
5.372596685082874,-0.08368884132592994
5.4059668508287295,0.05394427695728301
5.439337016574586,0.19618893457272557
5.472707182320442,0.27083535981720136
5.506077348066299,0.2249726718337517
5.5394475138121555,0.048718225914619134
5.572817679558011,-0.21659766362886554
5.606187845303868,-0.4919258727494515
5.639558011049724,-0.6930773514118129
5.672928176795581,-0.7702837606035153
5.706298342541437,-0.7368910910043194
5.739668508287293,-0.6711848013969084
5.77303867403315,-0.6855529546724344
5.806408839779006,-0.8722990556201197
5.839779005524862,-1.2486818071359997
5.873149171270718,-1.7281000793211572
5.906519337016575,-2.135971185900662
5.939889502762432,-2.2698615174561625
5.9732596685082875,-1.981789142959982
6.006629834254144,-1.2470622011650216
6.04,-0.18676137204155602
6.073370165745857,0.9693418566738788
6.1067403314917135,1.9646943583400833
6.140110497237569,2.6061186793085027
6.173480662983426,2.8220444459013017
6.206850828729282,2.665644117427387
6.240220994475139,2.267931672002857
6.273591160220995,1.7696886138409
6.306961325966851,1.2678822396808431
6.340331491712708,0.7996581668867677
6.373701657458564,0.36358040983321643
6.40707182320442,-0.042545075121854015
6.440441988950277,-0.3941872898478029
6.473812154696133,-0.6399694675499075
6.50718232044199,-0.7272168441604364
6.5405524861878455,-0.6356868103528291
6.573922651933702,-0.39797258443480876
6.607292817679559,-0.09387732870733015
6.640662983425415,0.17871978709622838
6.674033149171271,0.3415065797398904
6.707403314917127,0.3635102452542129
6.740773480662984,0.2668957378957235
6.774143646408841,0.11016382897614299
6.8075138121546965,-0.04146483913681904
6.840883977900553,-0.14406271670679044
6.874254143646409,-0.18944817739028702
6.907624309392266,-0.20161185324547715
6.9409944751381225,-0.21918795989581413
6.974364640883978,-0.27371301039182644
7.007734806629835,-0.3740569243480959
7.041104972375691,-0.5033471454235637
7.074475138121548,-0.6283093654592593
7.107845303867403,-0.7153577459051549
7.14121546961326,-0.7453896316880138
7.174585635359117,-0.7207394806090164
7.207955801104973,-0.6619563723698048
7.241325966850829,-0.596776392852873
7.274696132596685,-0.5467782695412492
7.308066298342542,-0.5176730113867466
7.341436464088399,-0.49717201787978
7.3748066298342545,-0.46098367046063543
7.408176795580111,-0.38411772140271183
7.441546961325967,-0.25259699347912845
7.474917127071824,-0.07065677430066789
7.5082872928176805,0.13944759402255996
7.541657458563536,0.3446739414726699
7.575027624309393,0.5121589653700297
7.608397790055249,0.6193148901549388
7.641767955801106,0.659379431827507
7.675138121546962,0.6412260455856628
7.708508287292818,0.5847920842370531
7.741878453038675,0.514725294862986
7.775248618784531,0.454421391723183
7.808618784530387,0.4213200530532841
7.841988950276244,0.42338703256108484
7.8753591160221,0.45684054083716824
7.908729281767957,0.5060184900748549
7.9420994475138125,0.5467092955014026
7.975469613259669,0.5533358546774036
8.008839779005525,0.5082145404375285
8.042209944751383,0.4090555624245507
8.075580110497238,0.2706480695196354
8.108950276243094,0.11903983192823238
8.14232044198895,-0.019539827711597246
8.175690607734808,-0.1295900631897448
8.209060773480664,-0.21137929771845104
8.24243093922652,-0.27745009936509946
8.275801104972377,-0.34259990257267914
8.309171270718233,-0.41295667231255223
8.342541436464089,-0.4802446139549578
8.375911602209946,-0.5244726784836042
8.409281767955802,-0.5237399577065647
8.442651933701658,-0.46612350736278585
8.476022099447514,-0.35759998622246925
8.509392265193371,-0.22201136891979056
8.542762430939227,-0.09298866797405511
8.576132596685083,-0.00148109685509816
8.60950276243094,0.03561058788890309
8.642872928176796,0.020887283552012362
8.676243093922652,-0.0260938932259793
8.709613259668508,-0.07796517985244308
8.742983425414366,-0.11112178796576765
8.776353591160222,-0.114626586509771
8.809723756906077,-0.0926770441950726
8.843093922651935,-0.05991140124508595
8.87646408839779,-0.03225117327977306
8.909834254143647,-0.018145089837040898
8.943204419889504,-0.014838459564118188
8.97657458563536,-0.01160380198212671
9.009944751381216,0.0019970120708854423
9.043314917127072,0.027719158595536995
9.07668508287293,0.055308067703223975
9.110055248618785,0.06671446214061234
9.143425414364641,0.046030539964307546
9.176795580110499,-0.010085653544968938
9.210165745856354,-0.08729708310075343
9.24353591160221,-0.15701092759254773
9.276906077348068,-0.18729763380713801
9.310276243093924,-0.15655508970925158
9.34364640883978,-0.0638007648052782
9.377016574585635,0.06904526285137315
9.410386740331493,0.20405167541008962
9.443756906077349,0.30069090663945325
9.477127071823205,0.3305829877006005
9.510497237569062,0.2880107820709489
9.543867403314918,0.19240501114971664
9.577237569060774,0.08201731823045808
9.610607734806631,0.0010896029302373271
9.643977900552487,-0.01506908867056807
9.677348066298343,0.047833276702851625
9.710718232044199,0.1776756663611114
9.744088397790057,0.33885551861505153
9.777458563535912,0.4825955875961556
9.810828729281768,0.5614587995688639
9.844198895027626,0.5436523545557538
9.877569060773482,0.4227381903599807
9.910939226519337,0.21971144612192278
9.944309392265193,-0.0232471526052475
9.97767955801105,-0.2553424814613608
10.011049723756907,-0.4319096209552827
10.044419889502763,-0.526457713603628
10.07779005524862,-0.5362372260234591
10.111160220994476,-0.48005561966360055
10.144530386740332,-0.38985200119747226
10.17790055248619,-0.2994199552134396
10.211270718232045,-0.23406274379072547
10.244640883977901,-0.20411170821864455
10.278011049723757,-0.2037813807456078
10.311381215469615,-0.21528011896257415
10.34475138121547,-0.21664770252909898
10.378121546961326,-0.19061958950796604
10.411491712707184,-0.131314265498328
10.44486187845304,-0.046173306471516205
10.478232044198895,0.04758555584564129
10.511602209944753,0.13038147270980233
10.544972375690609,0.18819320815681062
10.578342541436465,0.21747063986247137
10.61171270718232,0.22503359530952152
10.645082872928178,0.2233599377914686
10.678453038674034,0.22373397263398095
10.71182320441989,0.23051747090750738
10.745193370165747,0.23908732082950426
10.778563535911603,0.23822087537758974
10.811933701657459,0.21572775787340653
10.845303867403315,0.16473420428204727
10.878674033149172,0.08776441855203661
10.912044198895028,-0.003241545442278999
10.945414364640884,-0.0909658093832915
10.978784530386742,-0.15890091524575953
11.012154696132598,-0.19682638422682397
11.045524861878453,-0.20324933690154223
11.078895027624311,-0.1842252997281125
11.112265193370167,-0.1498704333347639
11.145635359116023,-0.11076792107056153
11.179005524861878,-0.07588421592851344
11.212375690607736,-0.05209715748992019
11.245745856353592,-0.04417369420131695
11.279116022099448,-0.05395161504600865
11.312486187845305,-0.07858532986880544
11.345856353591161,-0.10911283743179322
11.379226519337017,-0.1311611388709969
11.412596685082875,-0.12877864983963666
11.44596685082873,-0.09056466724500332
11.479337016574586,-0.015546530985759985
11.512707182320442,0.0842588937795885
11.5460773480663,0.1865091362261877
11.579447513812156,0.2659834000114228
11.612817679558011,0.3039864824583161
11.646187845303869,0.2956965586701301
11.679558011049725,0.2520969921049232
11.71292817679558,0.1953659092183757
11.746298342541436,0.14942802927770335
11.779668508287294,0.1295771670957787
11.81303867403315,0.13570028717152713
11.846408839779006,0.1523325397473989
11.879779005524863,0.15594479099787803
11.91314917127072,0.12657230178249554
11.946519337016575,0.058564712407750484
11.979889502762433,-0.0348714913095397
12.013259668508288,-0.1261518449602672
12.046629834254144,-0.18539018468857724
12.08,-0.19468959405104017
12.113370165745858,-0.15771683084458776
12.146740331491714,-0.09951173799131115
12.18011049723757,-0.0560194038928128
12.213480662983427,-0.05781272347329741
12.246850828729283,-0.11543930482419366
12.280220994475139,-0.21332944109850396
12.313591160220996,-0.3154469777348871
12.346961325966852,-0.3805443501195117
12.380331491712708,-0.3803916842025573
12.413701657458564,-0.31275493024029055
12.447071823204421,-0.20303059553679015
12.480441988950277,-0.09345988109514876
12.513812154696133,-0.02451157758857714
12.54718232044199,-0.016715119039562746
12.580552486187846,-0.06117527671618781
12.613922651933702,-0.12316338596444218
12.64729281767956,-0.15727567657027994
12.680662983425416,-0.12738550899270562
12.714033149171271,-0.022455602290639278
12.747403314917127,0.13873903003917784
12.780773480662985,0.3157346520247518
12.81414364640884,0.4632137457631864
12.847513812154697,0.5486517474378426
12.880883977900554,0.5629576128985755
12.91425414364641,0.5200020074129499
12.947624309392266,0.44632086098660045
12.980994475138122,0.3667266064754052
13.01436464088398,0.2930318323843041
13.047734806629835,0.2210724971959426
13.081104972375691,0.13683879828346843
13.114475138121549,0.027960034018501383
13.147845303867404,-0.10575778150480569
13.18121546961326,-0.24838591632397694
13.214585635359118,-0.37268442036491556
13.247955801104974,-0.4513117796126149
13.28132596685083,-0.46879071486402163
13.314696132596685,-0.42820215510633697
13.348066298342543,-0.3492718451228134
13.381436464088399,-0.2588953957801142
13.414806629834255,-0.1789570145545788
13.448176795580112,-0.11756918747033943
13.481546961325968,-0.0679634467281379
13.514917127071824,-0.015232205135942726
13.548287292817681,0.05291044301275836
13.581657458563537,0.13714097534428102
13.615027624309393,0.22405232250794424
13.648397790055249,0.2915003956136828
13.681767955801106,0.31906507288058716
13.715138121546962,0.2983370347421546
13.748508287292818,0.23781064392076123
13.781878453038676,0.1597868306992742
13.815248618784532,0.090586792297597
13.848618784530387,0.04870244253211705
13.881988950276245,0.03665802398569808
13.9153591160221,0.04067487465560516
13.948729281767957,0.03840141773896748
13.982099447513813,0.010847121356707868
14.01546961325967,-0.04756294325480585
14.048839779005526,-0.12591178251551483
14.082209944751382,-0.20208664780685034
14.11558011049724,-0.25350877736308275
14.148950276243095,-0.26778477239839477
14.182320441988951,-0.24815805938151772
14.215690607734807,-0.21146319722814105
14.249060773480664,-0.17989571176774327
14.28243093922652,-0.1706021045830207
14.315801104972376,-0.1878477206532759
14.349171270718234,-0.22120516355820774
14.38254143646409,-0.2504667006586116
14.415911602209945,-0.2549677015535723
14.449281767955803,-0.2229855358833242
14.482651933701659,-0.1567828206772973
14.516022099447515,-0.07085975086603429
14.54939226519337,0.015737357414193118
14.582762430939228,0.08917615375380591
14.616132596685084,0.14760269525566422
14.64950276243094,0.20125490631614465
14.682872928176797,0.26567264303066523
14.716243093922653,0.35139371724550256
14.749613259668509,0.4554463931310639
14.782983425414367,0.5591243266554211
14.816353591160222,0.633453551891087
14.849723756906078,0.6500914766610847
14.883093922651934,0.5929530582088355
14.916464088397792,0.465657478256222
14.949834254143648,0.2917759486999043
14.983204419889503,0.10780104146539118
15.016574585635361,-0.04852698919545925
15.049944751381217,-0.1503502360523807
15.083314917127073,-0.19006317026316066
15.116685082872928,-0.1810509127227672
15.150055248618786,-0.15217492038094513
15.183425414364642,-0.13687651291684247
15.216795580110498,-0.16071917338135805
15.250165745856355,-0.23187358315604772
15.283535911602211,-0.3380841774250585
15.316906077348067,-0.4512771328751685
15.350276243093925,-0.5380479777011147
15.38364640883978,-0.5719821079981023
15.417016574585636,-0.5430689308590495
15.450386740331492,-0.46066021490846815
15.48375690607735,-0.3490031032641709
15.517127071823205,-0.23730372511006265
15.550497237569061,-0.1483822038210897
15.583867403314919,-0.0904273891093769
15.617237569060775,-0.054981701473729876
15.65060773480663,-0.021687518875877027
15.683977900552488,0.032356136952684925
15.717348066298344,0.12241247292729515
15.7507182320442,0.24889952771685817
15.784088397790056,0.3955512190226117
15.817458563535913,0.5332941563346223
15.85082872928177,0.6283652341776425
15.884198895027625,0.652143206373582
15.917569060773483,0.5899537056863249
15.950939226519338,0.4464807065731141
15.984309392265194,0.24613790347968575
16.01767955801105,0.02781070945489259
16.051049723756908,-0.16512743871536192
16.084419889502765,-0.29687809555795097
16.11779005524862,-0.34943752572756
16.151160220994477,-0.32717442018498055
16.18453038674033,-0.25388962612740945
16.21790055248619,-0.16352769008890414
16.251270718232046,-0.08836851959941044
16.2846408839779,-0.04937094574646783
16.318011049723758,-0.051939486070219684
16.351381215469615,-0.0875776067057165
16.38475138121547,-0.13925926990363457
16.418121546961327,-0.187295702645018
16.451491712707185,-0.21340999617710982
16.48486187845304,-0.20283730949457712
16.518232044198896,-0.1459683847902498
16.551602209944754,-0.04104759121098188
16.584972375690608,0.10233091009376578
16.618342541436466,0.26134474316024614
16.651712707182323,0.4027563157665082
16.685082872928177,0.49165187825532114
16.718453038674035,0.5037975130907626
16.751823204419892,0.43626284240302043
16.785193370165747,0.31061853510044624
16.818563535911604,0.16602601826591618
16.851933701657458,0.044485917962209943
16.885303867403316,-0.025322665170282716
16.918674033149173,-0.03819628520376041
16.952044198895027,-0.011991577681690957
16.985414364640885,0.022708382403078865
17.018784530386743,0.03738285638287276
17.052154696132597,0.017468849275751784
17.085524861878454,-0.034034743792009534
17.118895027624312,-0.10203323009508766
17.152265193370166,-0.16993048386733625
17.185635359116024,-0.22910818679678688
17.21900552486188,-0.28225035103812807
17.252375690607735,-0.339281854224033
