Frequency (Hz),Amplitude
0.0,0.6970701452727806
0.01978021978021978,0.6968114387973101
0.03956043956043956,0.6960357139642833
0.05934065934065934,0.6947441553156568
0.07912087912087912,0.6929387396410198
0.0989010989010989,0.6906222398556635
0.11868131868131868,0.6877982305276765
0.13846153846153844,0.6844710951539155
0.15824175824175823,0.6806460353158693
0.17802197802197803,0.676329081880051
0.1978021978021978,0.6715271084434302
0.21758241758241756,0.6662478472638635
0.23736263736263735,0.660499907958443
0.2571428571428572,0.6542927993000236
0.2769230769230769,0.6476369544943501
0.2967032967032967,0.640543760377769
0.31648351648351647,0.6330255910387321
0.3362637362637363,0.6250958464357849
0.35604395604395606,0.6167689966598413
0.3758241758241758,0.6080606325698983
0.3956043956043956,0.5989875236167868
0.4153846153846154,0.5895676837579286
0.4351648351648351,0.5798204464541225
0.45494505494505494,0.5697665498213476
0.4747252747252747,0.5594282330793396
0.4945054945054945,0.5488293454824691
0.5142857142857143,0.5379954689201016
0.5340659340659341,0.5269540553103731
0.5538461538461538,0.5157345797494352
0.5736263736263736,0.5043687100730505
0.5934065934065934,0.4928904929783977
0.6131868131868132,0.48133655606145626
0.6329670329670329,0.46974632394657134
0.6527472527472528,0.4581622449938774
0.6725274725274726,0.446630022714606
0.6923076923076923,0.4351988428371498
0.7120879120879121,0.42392158277877157
0.7318681318681318,0.4128549849565896
0.7516483516483516,0.40205976887793815
0.7714285714285715,0.3916006494340886
0.7912087912087912,0.3815462207529659
0.810989010989011,0.37196865730229617
0.8307692307692308,0.3629431782863056
0.8505494505494506,0.35454722012279677
0.8703296703296702,0.34685926799242
0.8901098901098901,0.3399573144803873
0.9098901098901099,0.3339169439472351
0.9296703296703297,0.32880908623417526
0.9494505494505494,0.3246975397222743
0.9692307692307692,0.32163642375088664
0.989010989010989,0.3196677712136124
1.0087912087912088,0.3188194985226062
1.0285714285714287,0.31910397898142673
1.0483516483516484,0.32051739168294846
1.0681318681318681,0.3230399278970867
1.087912087912088,0.3266368285427467
1.1076923076923075,0.3312601239190407
1.1274725274725275,0.33685087252877266
1.1472527472527472,0.343341662426115
1.1670329670329669,0.3506591466585418
1.1868131868131868,0.3587264243655
1.2065934065934065,0.3674651361183248
1.2263736263736265,0.376797201633052
1.2461538461538462,0.38664617952700814
1.2659340659340659,0.39693826693777134
1.2857142857142858,0.40760298064300204
1.3054945054945055,0.41857357273852924
1.3252747252747252,0.42978723614345327
1.3450549450549452,0.4411851515006847
1.3648351648351649,0.4527124201893131
1.3846153846153846,0.4643179201623205
1.4043956043956045,0.4759541134453693
1.4241758241758242,0.48757682708125427
1.443956043956044,0.49914502337634875
1.4637362637362636,0.5106205705458239
1.4835164835164834,0.5219680211703643
1.5032967032967033,0.5331544031128922
1.523076923076923,0.5441490255290021
1.542857142857143,0.5549233011776848
1.5626373626373626,0.5654505852602778
1.5824175824175823,0.575706030370161
1.6021978021978023,0.5856664567331157
1.621978021978022,0.5953102366879796
1.6417582417582417,0.6046171922469045
1.6615384615384616,0.6135685045456418
1.6813186813186813,0.6221466340181663
1.7010989010989013,0.6303352501869448
1.720879120879121,0.6381191700361681
1.7406593406593405,0.6454843040206258
1.7604395604395604,0.6524176088512903
1.7802197802197801,0.6589070462857005
1.7999999999999998,0.6649415472347225
1.8197802197802198,0.6705109805755215
1.8395604395604395,0.6756061261327226
1.8593406593406594,0.6802186513563135
1.879120879120879,0.6843410912849477
1.8989010989010988,0.6879668314382702
1.9186813186813187,0.6910900933316421
1.9384615384615385,0.6937059223515876
1.9582417582417584,0.6958101777716834
1.978021978021978,0.6973995247261234
1.9978021978021978,0.6984714279929264
2.0175824175824175,0.6990241474713587
2.0373626373626372,0.6990567352683302
2.0571428571428574,0.698569034338029
2.076923076923077,0.6975616786469839
2.096703296703297,0.6960360948647222
2.1164835164835165,0.693994505608012
2.1362637362637362,0.6914399342951044
2.1560439560439564,0.6883762116954603
2.175824175824176,0.6848079842916223
2.195604395604396,0.6807407246024318
2.215384615384615,0.6761807436521428
2.2351648351648348,0.6711352058083729
2.254945054945055,0.6656121462537516
2.2747252747252746,0.6596204914026276
2.2945054945054943,0.6531700826249526
2.314285714285714,0.6462717036963702
2.3340659340659338,0.6389371124559712
2.353846153846154,0.6311790772223347
2.3736263736263736,0.6230114185942084
2.3934065934065933,0.6144490573450047
2.413186813186813,0.6055080692087942
2.4329670329670328,0.5962057474498662
2.452747252747253,0.5865606742042566
2.4725274725274726,0.5765928016779298
2.4923076923076923,0.5663235443745864
2.512087912087912,0.5557758835992426
2.5318681318681318,0.5449744855263605
2.5516483516483515,0.5339458341148617
2.5714285714285716,0.5227183800688289
2.5912087912087913,0.5113227068427698
2.610989010989011,0.4997917143216564
2.6307692307692307,0.4881608201959159
2.6505494505494505,0.4764681781076266
2.6703296703296706,0.4647549102453912
2.6901098901098903,0.45306535006315707
2.70989010989011,0.44144728801945465
2.7296703296703297,0.4299522094862391
2.7494505494505495,0.41863550907955105
2.769230769230769,0.4075566594892889
2.7890109890109893,0.3967793054366447
2.808791208791209,0.38637124492205027
2.8285714285714287,0.3764042511155767
2.8483516483516484,0.36695368036854226
2.8681318681318677,0.3580978069648181
2.887912087912088,0.3499168263231672
2.9076923076923076,0.34249147902186444
2.9274725274725273,0.33590127189270663
2.947252747252747,0.3302223119658526
2.9670329670329667,0.3255248237093812
2.986813186813187,0.32187048444452326
3.0065934065934066,0.31930977587712284
3.0263736263736263,0.3178795955031652
3.046153846153846,0.3176013835310569
3.0659340659340657,0.3184799875226024
3.085714285714286,0.3205034080541864
3.1054945054945056,0.32364345800931366
3.1252747252747253,0.32785724997477317
3.145054945054945,0.3330893275622581
3.1648351648351647,0.3392741975136399
3.184615384615385,0.34633900752353114
3.2043956043956046,0.35420614393630273
3.2241758241758243,0.3627955792130499
3.243956043956044,0.37202686437290267
3.2637362637362637,0.3818207224975594
3.2835164835164834,0.39210024738788557
3.3032967032967036,0.4027917436347669
3.3230769230769233,0.41382526178174556
3.342857142857143,0.4251348880913953
3.3626373626373627,0.43665884641893726
3.3824175824175824,0.4483394631885672
3.4021978021978025,0.46012303800213233
3.4219780219780223,0.4719596536763062
3.441758241758242,0.4838029514793456
3.4615384615384617,0.4956098904822941
3.481318681318681,0.5073405043746712
3.501098901098901,0.5189576647548257
3.520879120879121,0.5304268566319836
3.5406593406593405,0.5417159694792718
3.5604395604395602,0.5527951054733001
3.58021978021978,0.5636364053813018
3.5999999999999996,0.5742138917784783
3.61978021978022,0.5845033287871536
3.6395604395604395,0.5944820972441853
3.659340659340659,0.6041290840602145
3.679120879120879,0.6134245844886136
3.6989010989010986,0.6223502160394059
3.718681318681319,0.6308888428306548
3.7384615384615385,0.6390245092500303
3.758241758241758,0.6467423818910423
3.7780219780219784,0.654028698824435
3.7978021978021976,0.6608707253601527
3.8175824175824173,0.6672567155465677
3.8373626373626375,0.6731758787388981
3.8571428571428568,0.678618350648149
3.876923076923077,0.6835751683537841
3.896703296703296,0.6880382488294435
3.916483516483517,0.6920003705902839
3.936263736263736,0.6954551581245033
3.956043956043956,0.6983970688199534
3.9758241758241755,0.7008213821414285
3.9956043956043956,0.7027241908537685
4.015384615384615,0.7041023941234534
4.035164835164835,0.704953692364987
4.054945054945055,0.7052765837306928
4.0747252747252745,0.7050703621726735
4.094505494505494,0.7043351170347718
4.114285714285715,0.7030717341609528
4.134065934065934,0.7012818985347948
4.153846153846154,0.6989680984933642
4.173626373626373,0.6961336315882989
4.193406593406594,0.6927826121976292
4.213186813186813,0.6889199810246285
4.232967032967033,0.6845515166549788
4.252747252747253,0.6796838493820864
4.2725274725274724,0.6743244775514787
4.292307692307692,0.6684817867223541
4.312087912087913,0.6621650719949757
4.331868131868132,0.655384563909888
4.351648351648352,0.648151458388785
4.371428571428571,0.6404779512574719
4.391208791208792,0.6323772779704933
4.410989010989011,0.6238637592438933
4.43076923076923,0.6149528533985216
4.450549450549451,0.6056612163197278
4.4703296703296695,0.5960067700504234
4.49010989010989,0.5860087811494443
4.50989010989011,0.5756879500631372
4.52967032967033,0.5650665128675879
4.549450549450549,0.5541683568315247
4.569230769230769,0.5430191513103134
4.589010989010989,0.5316464954860154
4.608791208791209,0.5200800843847077
4.628571428571428,0.5083518943831782
4.648351648351649,0.4964963889979512
4.6681318681318675,0.4845507450438195
4.687912087912088,0.4725550981401533
4.707692307692308,0.460552804881698
4.7274725274725276,0.4485907165920396
4.747252747252747,0.4367194562223345
4.767032967032967,0.4249936854072349
4.786813186813187,0.4134723427182744
4.806593406593407,0.4022188266111544
4.826373626373626,0.39130108748073195
4.846153846153847,0.38079158299119964
4.8659340659340655,0.37076704038640995
4.885714285714286,0.36130796057173914
4.905494505494506,0.3524977942122307
4.9252747252747255,0.34442172381082875
4.945054945054945,0.33716500233879965
4.964835164835165,0.3308108328056084
4.984615384615385,0.3254378263543124
5.004395604395604,0.32111714666119173
5.024175824175824,0.3179095264599803
5.043956043956045,0.3158624115006557
5.0637362637362635,0.3150075272780396
5.083516483516483,0.3153591554176422
5.103296703296703,0.3169133409267363
5.123076923076923,0.319648136387948
5.142857142857143,0.32352484894682
5.162637362637362,0.3284901239993854
5.182417582417583,0.33447860615741537
5.2021978021978015,0.3414158801498154
5.221978021978022,0.3492214110927391
5.241758241758242,0.35781126030107135
5.2615384615384615,0.36710042863691134
5.281318681318681,0.37700475503158903
5.301098901098901,0.38744236031458223
5.320879120879121,0.3983346701790758
5.340659340659341,0.4096070761406427
5.36043956043956,0.4211893031731518
5.380219780219781,0.4330155519566583
5.3999999999999995,0.4450244766789105
5.41978021978022,0.45715904947222835
5.43956043956044,0.46936635211988553
5.4593406593406595,0.4815973259649134
5.479120879120879,0.49380650263948245
5.498901098901099,0.5059517314908196
5.518681318681319,0.5179939143413613
5.538461538461538,0.5298967542905739
5.558241758241758,0.5416265224083971
5.578021978021979,0.553151844155918
5.5978021978021975,0.5644435059951844
5.617582417582418,0.5754742817504521
5.637362637362637,0.5862187777255646
5.6571428571428575,0.5966532952661673
5.676923076923077,0.6067557093050473
5.696703296703297,0.6165053613893551
5.716483516483517,0.6258829657210526
5.736263736263735,0.6348705268167734
5.756043956043956,0.6434512674940523
5.775824175824176,0.6516095660018674
5.795604395604395,0.6593309012281527
5.815384615384615,0.666601805028731
5.835164835164835,0.6734098208284268
5.854945054945055,0.6797434677438428
5.874725274725275,0.685592209568112
5.894505494505494,0.6909464280399884
5.914285714285715,0.6957973998940141
5.934065934065933,0.7001372772553818
5.953846153846154,0.7039590710029635
5.973626373626374,0.7072566367778418
5.993406593406593,0.710024663363338
6.013186813186813,0.7122586632060994
6.032967032967033,0.7139549648881929
6.052747252747253,0.7151107073962436
6.072527472527473,0.7157238360682662
6.092307692307692,0.7157931001302028
6.112087912087913,0.7153180517651522
6.131868131868131,0.7142990466874979
6.151648351648352,0.7127372462234193
6.171428571428572,0.7106346209283456
6.191208791208791,0.7079939558023072
6.210989010989011,0.7048188571946056
6.230769230769231,0.7011137615230094
6.2505494505494505,0.696883945967332
6.270329670329671,0.6921355413364647
6.29010989010989,0.6868755473496085
6.309890109890111,0.6811118506199632
6.329670329670329,0.674853245680949
6.349450549450549,0.6681094594542045
6.36923076923077,0.6608911796242347
6.3890109890109885,0.6532100874592696
6.408791208791209,0.6450788957014648
6.428571428571428,0.6365113922436811
6.4483516483516485,0.6275224904156151
6.468131868131868,0.6181282868189009
6.487912087912088,0.6083461277798502
6.507692307692308,0.5981946856288016
6.527472527472527,0.5876940461636625
6.547252747252747,0.5768658088097228
6.567032967032967,0.5657332011391943
6.5868131868131865,0.5543212095526288
6.606593406593407,0.5426567280304764
6.626373626373626,0.530768726911524
6.6461538461538465,0.5186884436046414
6.665934065934065,0.5064495969350317
6.685714285714286,0.49408862638464573
6.705494505494506,0.4816449566975298
6.725274725274725,0.46916128703408694
6.745054945054945,0.4566839018747863
6.764835164835165,0.4442629979445312
6.7846153846153845,0.4319530172504003
6.804395604395605,0.4198129705623855
6.824175824175824,0.4079067279916273
6.8439560439560445,0.3963032435034024
6.863736263736263,0.38507666826908066
6.883516483516484,0.37430629423194517
6.903296703296704,0.36407625549295913
6.923076923076923,0.3544749036903346
6.942857142857143,0.34559376857844687
6.962637362637362,0.3375260221971581
6.9824175824175825,0.3303643909460035
7.002197802197802,0.3241985102527893
7.021978021978022,0.3191117931869973
7.041758241758242,0.3151779815349849
7.061538461538461,0.31245764932217746
7.081318681318681,0.3109950085119684
7.101098901098901,0.31081539495342564
7.1208791208791204,0.3119237675715937
7.140659340659341,0.31430443297981386
7.16043956043956,0.3179220342668843
7.1802197802197805,0.3227236594694191
7.199999999999999,0.3286417787746909
7.21978021978022,0.33559764227901456
7.23956043956044,0.34350477005692603
7.259340659340659,0.35227222813779235
7.279120879120879,0.36180747970401617
7.298901098901099,0.37201870191220016
7.318681318681318,0.38281654471010235
7.338461538461539,0.39411536908716444
7.358241758241758,0.40583403752524727
7.3780219780219785,0.41789634352956084
7.397802197802197,0.43023116648958154
7.417582417582418,0.4427724288944347
7.437362637362638,0.4554589198727273
7.457142857142857,0.4682340353072549
7.476923076923077,0.4810454721924218
7.496703296703297,0.4938449042724388
7.516483516483516,0.506587657518469
7.536263736263736,0.5192323975283455
7.556043956043957,0.5317408361675074
7.575824175824176,0.5440774613777483
7.595604395604395,0.556209291746373
7.615384615384615,0.568105655881375
7.635164835164835,0.5797379956624163
7.654945054945055,0.5910796918634357
7.674725274725275,0.602105910346696
7.694505494505494,0.6127934669160033
7.7142857142857135,0.6231207089253775
7.734065934065935,0.6330674118204085
7.753846153846154,0.6426146889136203
7.7736263736263735,0.6517449128382315
7.793406593406592,0.6604416472763316
7.813186813186814,0.668689587705714
7.832967032967034,0.6764745100514941
7.852747252747252,0.6837832262598007
7.872527472527472,0.6906035459316829
7.892307692307693,0.6969242432629985
7.912087912087912,0.7027350286343398
7.931868131868132,0.7080265242813027
7.951648351648351,0.7127902435526532
7.971428571428572,0.7170185733327509
7.991208791208791,0.7207047592655117
8.010989010989011,0.723842893471364
8.03076923076923,0.7264279044977877
8.05054945054945,0.728455549287427
8.07032967032967,0.7299224069880715
8.09010989010989,0.7308258744652746
8.10989010989011,0.7311641634123457
8.129670329670331,0.7309362989848901
8.149450549450549,0.7301421199177012
8.169230769230769,0.7287822801123479
8.189010989010988,0.7268582517134957
8.20879120879121,0.7243723297231657
8.22857142857143,0.721327638233374
8.248351648351647,0.7177281383915817
8.268131868131867,0.7135786382490218
8.287912087912087,0.7088848046812151
8.307692307692308,0.7036531776133302
8.327472527472528,0.6978911868307598
8.347252747252746,0.6916071717095497
8.367032967032966,0.6848104042621518
8.386813186813187,0.6775111159632462
8.406593406593407,0.6697205288994711
8.426373626373627,0.6614508918765936
8.446153846153845,0.6527155222209294
8.465934065934066,0.6435288541287549
8.485714285714286,0.6339064945509629
8.505494505494505,0.6238652877511591
8.525274725274725,0.6134233898448953
8.545054945054945,0.6026003548163646
8.564835164835165,0.5914172337156227
8.584615384615384,0.5798966889606496
8.604395604395604,0.5680631258987494
8.624175824175826,0.5559428440082931
8.643956043956043,0.5435642103256809
8.663736263736263,0.5309578578329903
8.683516483516483,0.5181569115907764
8.703296703296704,0.5051972452782271
8.723076923076924,0.49211777040451865
8.742857142857142,0.4789607596334873
8.762637362637362,0.4657722042111635
8.782417582417583,0.4526022031228644
8.802197802197803,0.4395053779641193
8.821978021978023,0.42654130212995356
8.84175824175824,0.4137749252729454
8.86153846153846,0.4012769634985529
8.881318681318682,0.3891242120153331
8.901098901098901,0.37739971985163606
8.920879120879121,0.366192746466897
8.940659340659339,0.3555983996413893
8.96043956043956,0.345716836981184
8.98021978021978,0.3366519064246054
9.0,0.3285091136452582
9.01978021978022,0.3213928469481909
9.03956043956044,0.31540287185647176
9.05934065934066,0.3106302290603333
9.079120879120879,0.3071528173782874
9.098901098901099,0.305031086264773
9.11868131868132,0.3043043542928302
9.138461538461538,0.3049882654658434
9.158241758241758,0.30707377108310774
9.178021978021977,0.31052779826008226
9.197802197802199,0.3152954945818702
9.217582417582419,0.32130369823932486
9.237362637362637,0.3284651373786349
9.257142857142856,0.33668283626789003
9.276923076923078,0.3458542825187913
9.296703296703297,0.35587504602772113
9.316483516483517,0.36664168947614295
9.336263736263735,0.3780539375113167
9.356043956043957,0.3900161606111019
9.375824175824176,0.402438278931321
9.395604395604396,0.41523620884011325
9.415384615384616,0.42833197096048337
9.435164835164835,0.4416535630574271
9.454945054945055,0.4551346811818655
9.474725274725275,0.468714352601767
9.494505494505495,0.48233652654235776
9.514285714285714,0.49594965449887757
9.534065934065934,0.5095062809075092
9.553846153846154,0.5229626568717177
9.573626373626373,0.5362783839079887
9.593406593406593,0.5494160907578028
9.613186813186815,0.5623411437427207
9.632967032967032,0.5750213895352441
9.652747252747252,0.5874269282879688
9.672527472527472,0.5995299145882996
9.692307692307693,0.611304383531004
9.712087912087913,0.6227260992140806
9.731868131868131,0.6337724230898644
9.75164835164835,0.6444221997920714
9.771428571428572,0.6546556582761776
9.791208791208792,0.6644543263349276
9.810989010989012,0.6738009567691896
9.83076923076923,0.682679463699447
9.850549450549451,0.6910748676917401
9.87032967032967,0.698973248541652
9.89010989010989,0.7063617047117356
9.90989010989011,0.7132283185518594
9.92967032967033,0.719562126550517
9.94945054945055,0.7253530939686994
9.96923076923077,0.7305920932990135
9.989010989010989,0.7352708860726265
10.008791208791209,0.7393821076063635
10.028571428571428,0.7429192543444317
10.048351648351648,0.7458766735033516
10.068131868131868,0.7482495547776413
10.08791208791209,0.750033923907419
10.107692307692307,0.7512266379484978
10.127472527472527,0.7518253821224844
10.147252747252747,0.7518286681580078
10.167032967032966,0.7512358340668108
10.186813186813188,0.7500470453297229
10.206593406593406,0.7482632974985607
10.226373626373626,0.7458864202513187
10.246153846153845,0.7429190829703246
10.265934065934067,0.7393648019470372
10.285714285714286,0.7352279493537748
10.305494505494504,0.730513764162208
10.325274725274724,0.7252283652326296
10.345054945054946,0.7193787668472156
10.364835164835165,0.7129728970160122
10.384615384615385,0.7060196189481034
10.404395604395603,0.6985287561528599
10.424175824175824,0.6905111217202918
10.443956043956044,0.6819785524264879
10.463736263736264,0.6729439484226222
10.483516483516484,0.6634213193964466
10.503296703296703,0.6534258382471899
10.523076923076923,0.6429739034898526
10.542857142857143,0.6320832118086805
