Time (s),Filtered Signal
0.0,0.005988523300143855
0.0334075723830735,-0.1888991123437782
0.066815144766147,-0.37282189668008414
0.1002227171492205,-0.5371640565293517
0.133630289532294,-0.6752874204354569
0.1670378619153675,-0.7796711718376643
0.200445434298441,-0.8389290249923347
0.23385300668151449,-0.838139107934089
0.267260579064588,-0.7641740538764834
0.3006681514476615,-0.6142861272428864
0.334075723830735,-0.40333831194930564
0.3674832962138085,-0.1647694392378623
0.400890868596882,0.05691070946606721
0.4342984409799555,0.2199573721440431
0.46770601336302897,0.29983612551064115
0.5011135857461025,0.2977698972079956
0.534521158129176,0.23940650280743744
0.5679287305122495,0.16416998226987387
0.601336302895323,0.11006074237311012
0.6347438752783965,0.10042717303361003
0.66815144766147,0.13782321412898613
0.7015590200445435,0.20644257167609767
0.734966592427617,0.28076849529278625
0.7683741648106905,0.33588523410209514
0.801781737193764,0.3551691546373905
0.8351893095768375,0.33323966411404077
0.868596881959911,0.27464292362871234
0.9020044543429845,0.19035382611815818
0.9354120267260579,0.0942301446962273
0.9688195991091315,0.00045813880662148426
1.002227171492205,-0.07822379300857212
1.0356347438752784,-0.1322857288523323
1.069042316258352,-0.15750653946929413
1.1024498886414256,-0.15682512379726252
1.135857461024499,-0.14064385823248568
1.1692650334075725,-0.12444555032704997
1.202672605790646,-0.123709286566153
1.2360801781737194,-0.147653934776996
1.269487750556793,-0.19440639273770974
1.3028953229398665,-0.25006609792908846
1.33630289532294,-0.29271645848630223
1.3697104677060135,-0.3003163912229091
1.403118040089087,-0.2595714845260293
1.4365256124721606,-0.17218998716947273
1.469933184855234,-0.055709598827835834
1.5033407572383075,0.061945859540819895
1.536748329621381,0.15257938720097558
1.5701559020044544,0.1988675828988311
1.603563474387528,0.20204972325479936
1.6369710467706016,0.18247433104821312
1.670378619153675,0.17178556056867944
1.7037861915367485,0.19898627998094384
1.737193763919822,0.27572841664310815
1.7706013363028954,0.38740091050530706
1.804008908685969,0.4949221672967296
1.8374164810690425,0.5478906083777392
1.8708240534521159,0.5045977838704817
1.9042316258351895,0.350767527565915
1.937639198218263,0.1086815272546135
1.9710467706013366,-0.16799840077131528
2.00445434298441,-0.41233230376950686
2.0378619153674835,-0.5679764338667271
2.071269487750557,-0.6089481953709187
2.1046770601336307,-0.5471195855147465
2.138084632516704,-0.424711949729856
2.1714922048997773,-0.2956312231294525
2.204899777282851,-0.20406702799487453
2.2383073496659245,-0.1693518986048633
2.271714922048998,-0.18265214972525137
2.3051224944320716,-0.21551030192919152
2.338530066815145,-0.23522781167879003
2.3719376391982183,-0.21970243938155087
2.405345211581292,-0.1653794910449826
2.4387527839643655,-0.08567188902168396
2.472160356347439,-0.0017260796561977235
2.5055679287305126,0.069285655384377
2.538975501113586,0.12247477132064741
2.5723830734966593,0.16635217313438425
2.605790645879733,0.2166691853366306
2.6391982182628064,0.28641239515768685
2.67260579064588,0.37704511320608264
2.7060133630289536,0.47525651211644787
2.739420935412027,0.556728581222646
2.7728285077951007,0.5951758232826087
2.806236080178174,0.5726574931440258
2.8396436525612474,0.48680368935335044
2.873051224944321,0.3521024392150976
2.9064587973273945,0.1949507209906926
2.939866369710468,0.044643468767377306
2.9732739420935417,-0.0760948921939544
3.006681514476615,-0.15749840256817793
3.0400890868596884,-0.20395748245441347
3.073496659242762,-0.23006767635288577
3.1069042316258355,-0.25353510649691013
3.140311804008909,-0.2879166137763362
3.1737193763919826,-0.3378216154568125
3.207126948775056,-0.3978433740355424
3.2405345211581293,-0.4548901377600246
3.273942093541203,-0.4925231214832885
3.3073496659242765,-0.4957209173708382
3.34075723830735,-0.4549606541072761
3.3741648106904236,-0.36908816601297056
3.407572383073497,-0.24668486452936603
3.4409799554565703,-0.10548550702425114
3.474387527839644,0.030739807790288894
3.5077951002227175,0.13800954137911825
3.541202672605791,0.1996418008733286
3.5746102449888646,0.21293108961254967
3.608017817371938,0.1916857770440949
3.6414253897550113,0.16224157457427393
3.674832962138085,0.15329927201973892
3.7082405345211584,0.18330598253349517
3.7416481069042318,0.2511303818592953
3.7750556792873056,0.3349232511386937
3.808463251670379,0.40036429651694705
3.8418708240534527,0.4148501367908062
3.875278396436526,0.3611911688581163
3.9086859688195994,0.2447293245705055
3.942093541202673,0.09113331496454051
3.9755011135857465,-0.06352487760331005
4.00890868596882,-0.18572276052441095
4.042316258351893,-0.2551480510768634
4.075723830734967,-0.2693209085206703
4.109131403118041,-0.24112276838708574
4.142538975501114,-0.19088625904788756
4.1759465478841875,-0.13668939494602966
4.209354120267261,-0.08723211507933881
4.242761692650334,-0.04068483704997464
4.276169265033408,0.00987910553809976
4.309576837416482,0.06749513162371684
4.342984409799555,0.12433734072394191
4.3763919821826285,0.16184848600945395
4.409799554565702,0.15916612280102843
4.443207126948775,0.10576212217698698
4.476614699331849,0.010890788914244203
4.510022271714923,-0.09649199666343992
4.543429844097996,-0.1785392947944469
4.5768374164810695,-0.2050573496913327
4.610244988864143,-0.1672910086177006
4.643652561247216,-0.08176293962413812
4.67706013363029,0.01771380832420799
4.710467706013364,0.09551782841331982
4.743875278396437,0.12922199257717415
4.77728285077951,0.11692881195305442
4.810690423162584,0.07425803672684368
4.844097995545657,0.023831235342316074
4.877505567928731,-0.01640836484004503
4.910913140311805,-0.03992883787189637
4.944320712694878,-0.0507588571082422
4.977728285077951,-0.05695883578276614
5.011135857461025,-0.06334146618026355
5.044543429844098,-0.06828528061209783
5.077951002227172,-0.06650106160344536
5.111358574610246,-0.05555607221867568
5.144766146993319,-0.04127086456840156
5.178173719376392,-0.037467601631910485
5.211581291759466,-0.05891534574093104
5.244988864142539,-0.11081990515722581
5.278396436525613,-0.18113283296203933
5.311804008908687,-0.24130512586684144
5.34521158129176,-0.2568742731411489
5.378619153674833,-0.20362848333464262
5.412026726057907,-0.08128951732147927
5.445434298440981,0.08287720306790919
5.478841870824054,0.24332360910356915
5.512249443207128,0.3545292144352225
5.545657015590201,0.38975057647662176
5.579064587973274,0.3513148818423589
5.612472160356348,0.2678957767358956
5.645879732739422,0.1807009206970338
5.679287305122495,0.1256108196412055
5.712694877505569,0.11948355640669113
5.746102449888642,0.15589286381514456
5.779510022271715,0.21056893848616845
5.812917594654789,0.25263780932705165
5.846325167037863,0.2563002528888285
5.879732739420936,0.20884561520063033
5.91314031180401,0.11338859026441538
5.946547884187083,-0.013193711488469673
5.979955456570156,-0.14569126982594374
6.01336302895323,-0.25777572335004456
6.046770601336304,-0.3293812332465093
6.080178173719377,-0.35242645239881143
6.1135857461024505,-0.3330276018574222
6.146993318485524,-0.28905312401208344
6.180400890868597,-0.24341503387978639
6.213808463251671,-0.21532579087663772
6.247216035634745,-0.21293291939840625
6.280623608017818,-0.23052345690333148
6.3140311804008915,-0.2517540131095193
6.347438752783965,-0.25774246687512925
6.380846325167038,-0.23648538186305945
6.414253897550112,-0.18910238981461072
6.447661469933186,-0.12952029282725583
6.481069042316259,-0.07716364811045251
6.5144766146993325,-0.04581233607184383
6.547884187082406,-0.03425015546411094
6.581291759465479,-0.024155222284449124
6.614699331848553,0.012468148574966111
6.648106904231627,0.09888691854244999
6.6815144766147,0.2389949243591713
6.7149220489977735,0.4102022613100882
6.748329621380847,0.5685959791553161
6.78173719376392,0.6651931909846064
6.815144766146994,0.6662728192622861
6.848552338530068,0.5682174034191015
6.881959910913141,0.3996276154171061
6.915367483296214,0.20963506005865462
6.948775055679288,0.04807630904977164
6.982182628062361,-0.053116757537233834
7.015590200445435,-0.08916713235918318
7.048997772828509,-0.07937332669758176
7.082405345211582,-0.05481531244162188
7.115812917594655,-0.04371344959363589
7.149220489977729,-0.06114259344851683
7.182628062360802,-0.10645811251437033
7.216035634743876,-0.16755832604514778
7.24944320712695,-0.228302879592214
7.282850779510023,-0.2750977338022997
7.316258351893096,-0.3003517823517342
7.34966592427617,-0.3027681606046047
7.383073496659243,-0.28587320466323535
7.416481069042317,-0.2562462774747941
7.449888641425391,-0.22201024009047077
7.4832962138084635,-0.19123056253095452
7.516703786191537,-0.1697304246028788
7.550111358574611,-0.15853454350145804
7.583518930957685,-0.15208196448956468
7.616926503340758,-0.13867984446678666
7.650334075723832,-0.1039875388152663
7.683741648106905,-0.036864897164805566
7.717149220489978,0.06456418212237183
7.750556792873052,0.1894361212230577
7.783964365256126,0.31535933901824986
7.817371937639199,0.4144909086081592
7.850779510022273,0.4623825680935047
7.884187082405346,0.44607594352166946
7.917594654788419,0.3681743961981316
7.951002227171493,0.24542907993184554
7.984409799554567,0.10276214914916254
8.01781737193764,-0.03460599030903866
8.051224944320714,-0.147868319535229
8.084632516703786,-0.22801101268858762
8.118040089086861,-0.2752404884259723
8.151447661469934,-0.2953570114991693
8.184855233853007,-0.2949811830783854
8.218262806236082,-0.2777951551036318
8.251670378619155,-0.24341217521430325
8.285077951002227,-0.18927838729902569
8.318485523385302,-0.11454447738063579
8.351893095768375,-0.023758996193168364
8.385300668151448,0.07185826397140542
8.418708240534523,0.15671513458663153
8.452115812917596,0.21605810457171426
8.485523385300668,0.24182370534037334
8.518930957683743,0.23631628091077342
8.552338530066816,0.21174693224679114
8.585746102449889,0.18552085255319242
8.619153674832964,0.17313431252150047
8.652561247216036,0.18169507988888325
8.68596881959911,0.20685554589931493
8.719376391982184,0.23444985332683488
8.752783964365257,0.24607489689427883
8.78619153674833,0.22622728870036074
8.819599109131405,0.16813501282916518
8.853006681514477,0.07621664590691053
8.88641425389755,-0.0353613518764161
8.919821826280625,-0.1470926520482139
8.953229398663698,-0.23978847200100578
8.98663697104677,-0.29977867748374265
9.020044543429846,-0.32240616237844294
9.053452115812918,-0.31304416988987654
9.086859688195991,-0.2852427896992313
9.120267260579066,-0.256101118835983
9.153674832962139,-0.23981544721619902
9.187082405345212,-0.24144566456783162
9.220489977728286,-0.2536451949434174
9.25389755011136,-0.25862365970509565
9.287305122494432,-0.23563201140544277
9.320712694877507,-0.1714091581461704
9.35412026726058,-0.06880564690637607
9.387527839643653,0.05122211584098544
9.420935412026727,0.15631802474376144
9.4543429844098,0.21581196864599245
9.487750556792873,0.2141786979838882
9.521158129175948,0.15816373928073083
9.55456570155902,0.0738619083437407
9.587973273942094,-0.004777134312395987
9.621380846325168,-0.050086399190865785
9.654788418708241,-0.05041076405471796
9.688195991091314,-0.011207797635661232
9.721603563474389,0.051696642946891885
9.755011135857462,0.12178667379029123
9.788418708240535,0.1886728926066581
9.82182628062361,0.24885110597663893
9.855233853006682,0.3013879358433576
9.888641425389755,0.342590484128331
9.92204899777283,0.36393760328900276
9.955456570155903,0.3550691667360603
9.988864142538976,0.3101647550196281
10.02227171492205,0.2336903060283477
10.055679287305123,0.14153782059643524
10.089086859688196,0.05595427020354255
10.12249443207127,-0.0039119920265137985
10.155902004454344,-0.031328257238284786
10.189309576837417,-0.03619153887861969
10.222717149220491,-0.04140140565484837
10.256124721603564,-0.072559959677969
10.289532293986637,-0.14570976524223198
10.322939866369712,-0.2590031716127008
10.356347438752785,-0.39228446816761575
10.389755011135858,-0.5145932384514923
10.423162583518932,-0.5957609477432546
10.456570155902005,-0.6166049705187701
10.489977728285078,-0.5734334834402729
10.523385300668153,-0.47577944127157107
10.556792873051226,-0.33966989060507985
10.590200445434299,-0.18060406179685926
10.623608017817373,-0.00996820293640246
10.657015590200446,0.1637527432968299
10.69042316258352,0.33058115989504744
10.723830734966594,0.4750666406902579
10.757238307349667,0.5762137646224942
10.790645879732741,0.612634535877447
10.824053452115814,0.5711339233271013
10.857461024498887,0.4545842211561586
10.890868596881962,0.2846769128762613
10.924276169265035,0.09722938222823678
10.957683741648108,-0.06877773214620858
10.991091314031182,-0.18406878594066803
11.024498886414255,-0.23826454860576257
11.057906458797328,-0.24130178545932368
11.091314031180403,-0.21654513229785072
11.124721603563476,-0.18894218232416604
11.158129175946549,-0.1738298702329944
11.191536748329623,-0.17150148457449935
11.224944320712696,-0.16967915119771587
11.25835189309577,-0.152124424289229
11.291759465478844,-0.1086996404882443
11.325167037861917,-0.041666346933706924
11.35857461024499,0.034917766748351765
11.391982182628064,0.10223542227320503
11.425389755011137,0.14640367605085505
11.45879732739421,0.16571731944622353
11.492204899777285,0.17162733589257162
11.525612472160358,0.1828285634548897
11.55902004454343,0.21522891113102985
11.592427616926505,0.27250436307905646
11.625835189309578,0.3416329087826585
11.659242761692651,0.39562512171489245
11.692650334075726,0.4027277643836956
11.726057906458799,0.33881823716268034
11.759465478841872,0.19833597128743996
11.792873051224946,-0.0006651515710298479
11.82628062360802,-0.21985418812362295
11.859688195991092,-0.4117476178237011
11.893095768374167,-0.5347950306853955
11.92650334075724,-0.5667240077843798
11.959910913140313,-0.5109773642161917
11.993318485523387,-0.3939418620007773
12.02672605790646,-0.25452250948129596
12.060133630289533,-0.13058139582869607
12.093541202672608,-0.047508378583396
12.12694877505568,-0.012646887306626503
12.160356347438753,-0.016517356947056416
12.193763919821828,-0.03919993904833427
12.227171492204901,-0.0588545868854517
12.260579064587974,-0.05934668257663585
12.293986636971049,-0.03485214560745464
12.327394209354122,0.009470984885197384
12.360801781737194,0.06052300662727727
12.39420935412027,0.10285141081915405
12.427616926503342,0.12490605566664616
12.461024498886415,0.12373095187104975
12.49443207126949,0.1061663369993518
12.527839643652563,0.08578690977429793
12.561247216035635,0.07660169214155522
12.59465478841871,0.08625191615787796
12.628062360801783,0.11207427409120044
12.661469933184856,0.14231933735284027
12.69487750556793,0.1623063806920814
12.728285077951004,0.16256180459985084
12.761692650334076,0.14456078795969338
12.795100222717151,0.1205447271835395
12.828507795100224,0.10681144521631032
12.861915367483297,0.11349060138161025
12.895322939866372,0.13622140508254033
12.928730512249444,0.15488311244138742
12.962138084632517,0.14138703978048595
12.995545657015592,0.07383957452795607
13.028953229398665,-0.04952232348092691
13.062360801781738,-0.20408575631899098
13.095768374164813,-0.3447084149633414
13.129175946547885,-0.4222765267998138
13.162583518930958,-0.40397735039731264
13.195991091314033,-0.28792659067908066
13.229398663697106,-0.10516985791907597
13.262806236080179,0.0919123087110523
13.296213808463254,0.24930012172908114
13.329621380846326,0.33013950399918895
13.3630289532294,0.32483464543106466
13.396436525612474,0.24949514651982463
13.429844097995547,0.13551078285445894
13.46325167037862,0.016478678408778
13.496659242761694,-0.08158616619059827
13.530066815144767,-0.1440820280102974
13.56347438752784,-0.16686339037369793
13.596881959910915,-0.1537087845681903
13.630289532293988,-0.11473424015132522
13.66369710467706,-0.06583993304092442
13.697104677060135,-0.02720824704256896
13.730512249443208,-0.018847155364959806
13.763919821826281,-0.05328950914276814
13.797327394209356,-0.1283242125999265
13.830734966592429,-0.22403166869839433
13.864142538975502,-0.3072051178676562
13.897550111358576,-0.34280460550693087
13.93095768374165,-0.308164455530196
13.964365256124722,-0.20350142133340135
13.997772828507797,-0.053339335273954805
14.03118040089087,0.10244367587539488
14.064587973273943,0.22414078991828207
14.097995545657017,0.2871893220317506
14.13140311804009,0.2898310751294774
14.164810690423163,0.250552313753744
14.198218262806238,0.19751018588313504
14.23162583518931,0.15568976455790506
14.265033407572384,0.13778188720915838
14.298440979955458,0.14203622632387722
14.331848552338531,0.1565186942449991
14.365256124721604,0.16644463477089935
14.398663697104679,0.1607406384926126
14.432071269487752,0.13543544177541778
14.465478841870825,0.09362757065485448
14.4988864142539,0.04329130876553941
14.532293986636972,-0.0055538691752773876
14.565701559020045,-0.0434639872737606
14.59910913140312,-0.06391038206361815
14.632516703786193,-0.06542124352182446
14.665924276169266,-0.053057290987639366
14.69933184855234,-0.03810199595610993
14.732739420935413,-0.034930409671702724
14.766146993318486,-0.055235474254026
14.79955456570156,-0.10164166410309462
14.832962138084634,-0.16400275391741542
14.866369710467707,-0.22119960651080658
14.899777282850781,-0.2488271003045388
14.933184855233854,-0.22990857903039633
14.966592427616927,-0.16359422041487282
15.0,-0.06719113562462464
