Frequency (Hz),Amplitude
0.0,1.9868337812538086
0.019867549668874173,2.0147570830373702
0.039735099337748346,2.0961912646936556
0.059602649006622516,2.2249723232057104
0.07947019867549669,2.3930108648230473
0.09933774834437085,2.5920940214383412
0.11920529801324503,2.8149484160579346
0.13907284768211922,3.055600243374452
0.15894039735099338,3.309327449547559
0.17880794701986755,3.5724535205107433
0.1986754966887417,3.8421180656757072
0.2185430463576159,4.116077604203625
0.23841059602649006,4.39254899151341
0.2582781456953642,4.670091910099468
0.27814569536423844,4.947522503257155
0.2980132450331126,5.223850376458182
0.31788079470198677,5.4982326505636605
0.33774834437086093,5.7699403160300236
0.3576158940397351,6.038333438416981
0.3774834437086093,6.302842749268497
0.3973509933774834,6.56295586882826
0.4172185430463576,6.818206912729673
0.4370860927152318,7.068168590906771
0.45695364238410596,7.312446157452608
0.4768211920529801,7.550672746829297
0.49668874172185434,7.782505757104233
0.5165562913907285,8.007624030295382
0.5364238410596026,8.225725644198802
0.5562913907284769,8.436526176664962
0.5761589403973509,8.639757337331211
0.5960264900662252,8.835165886889941
0.6158940397350993,9.022512782585842
0.6357615894039735,9.20157250256523
0.6556291390728477,9.372132512202224
0.6754966887417219,9.533992843506514
0.695364238410596,9.686965764822505
0.7152317880794702,9.83087552273513
0.7350993377483444,9.9655581417491
0.7549668874172186,10.090861270160612
0.7748344370860927,10.206644062784807
0.7947019867549668,10.312777092977546
0.8145695364238411,10.409142287807738
0.8344370860927152,10.495632881371616
0.8543046357615894,10.572153382160957
0.8741721854304636,10.638619551145286
0.8940397350993378,10.694958387845142
0.9139072847682119,10.741108122184636
0.9337748344370861,10.777018210341517
0.9536423841059603,10.802649333179005
0.9735099337748344,10.817973396161179
0.9933774834437087,10.822973529932694
1.0132450331125828,10.81764409099714
1.033112582781457,10.80199066216217
1.0529801324503312,10.776030052643264
1.0728476821192052,10.739790297938017
1.0927152317880795,10.693310659806965
1.1125827814569538,10.636641626931247
1.1324503311258278,10.569844917071189
1.1523178807947019,10.492993481830231
1.1721854304635762,10.406171515447468
1.1920529801324504,10.309474469409334
1.2119205298013245,10.2030090751038
1.2317880794701985,10.086893377254015
1.2516556291390728,9.961256781489247
1.271523178807947,9.826240120164176
1.2913907284768211,9.681995741463526
1.3112582781456954,9.528687627974273
1.3311258278145695,9.366491552333773
1.3509933774834437,9.19559527935374
1.370860927152318,9.016198826281832
1.390728476821192,8.828514795740839
1.410596026490066,8.632768799570005
1.4304635761589404,8.42919999654474
1.4503311258278146,8.218061773117777
1.4701986754966887,7.999622604389809
1.4900662251655628,7.774167143137005
1.5099337748344372,7.541997598816009
1.5298013245033113,7.303435487310046
1.5496688741721854,7.058823857577367
1.5695364238410596,6.80853013586738
1.5894039735099337,6.552949775432027
1.609271523178808,6.2925109649201145
1.6291390728476822,6.027680739473597
1.6490066225165563,5.758972965913319
1.6688741721854303,5.486958853199884
1.6887417218543048,5.212280894492762
1.7086092715231789,4.935671510202214
1.728476821192053,4.657978177481611
1.7483443708609272,4.380197559243795
1.7682119205298013,4.103522151271165
1.7880794701986755,3.829404296081598
1.8079470198675496,3.5596440099414024
1.8278145695364238,3.2965085489349617
1.847682119205298,3.04289174161485
1.8675496688741722,2.8025165260728286
1.8874172185430464,2.5801673771810933
1.9072847682119205,2.381896632036271
1.9271523178807946,2.215064047672238
1.9470198675496688,2.0879524034816725
1.9668874172185429,2.0086619444180145
1.9867549668874174,1.9832665446897004
2.0066225165562916,2.013911104125629
2.0264900662251657,2.0980316207530434
2.0463576158940397,2.229282146951448
2.066225165562914,2.399479964733433
2.086092715231788,2.6003968213953343
2.1059602649006623,2.824788964975141
2.1258278145695364,3.066728867450639
2.1456953642384105,3.321541248890906
2.165562913907285,3.585590171117449
2.185430463576159,3.8560480467707277
2.205298013245033,4.130697021186901
2.2251655629139075,4.407773657154317
2.2450331125827816,4.68585270810477
2.2649006622516556,4.963761842299375
2.2847682119205297,5.240519504527878
2.3046357615894038,5.5152896247739855
2.324503311258278,5.787348463928876
2.3443708609271523,6.056060185794971
2.364238410596027,6.320858721299604
2.384105960264901,6.581234195804224
2.403973509933775,6.8367226898091085
2.423841059602649,7.086898454606177
2.443708609271523,7.331367951300665
2.463576158940397,7.569765255664366
2.4834437086092715,7.801748494647403
2.5033112582781456,8.026997068409736
2.52317880794702,8.245209475031578
2.543046357615894,8.456101600936174
2.562913907284768,8.659405373577064
2.5827814569536423,8.854867697630448
2.6026490066225163,9.042249614266062
2.622516556291391,9.2213256367896
2.642384105960265,9.391883226296764
2.662251655629139,9.55372237884075
2.6821192052980134,9.706655301632086
2.7019867549668874,9.85050616042769
2.7218543046357615,9.985110883865632
2.741721854304636,10.110317013314857
2.76158940397351,10.22598358902188
2.781456953642384,10.331981065089025
2.801324503311258,10.428191247215164
2.821192052980132,10.514507248253048
2.8410596026490067,10.59083345754332
2.8609271523178808,10.65708552072579
2.8807947019867552,10.713190327337347
2.9006622516556293,10.75908600401026
2.9205298013245033,10.794721911510631
2.9403973509933774,10.820058644218268
2.9602649006622515,10.835068030962974
2.9801324503311255,10.839733136409189
3.0,10.834048262431601
3.0198675496688745,10.818018949156208
3.0397350993377485,10.791661975563494
3.0596026490066226,10.755005359768967
3.0794701986754967,10.708088359318758
3.0993377483443707,10.650961472071858
3.119205298013245,10.583686438492508
3.1390728476821192,10.506336246456408
3.1589403973509933,10.418995139992333
3.1788079470198674,10.321758633747129
3.198675496688742,10.21473353539469
3.218543046357616,10.098037978723095
3.23841059602649,9.971801470754428
3.2582781456953644,9.836164957006112
3.2781456953642385,9.691280909929423
3.2980132450331126,9.537313446707758
3.3178807947019866,9.37443848402737
3.3377483443708607,9.202843939229117
3.3576158940397347,9.022729989520275
3.3774834437086096,8.834309403814904
3.3973509933774837,8.637807965474257
3.4172185430463577,8.433465008995869
3.437086092715232,8.221534099906535
3.456953642384106,8.002283895236538
3.47682119205298,7.775999232657823
3.4966887417218544,7.542982510589062
3.5165562913907285,7.303555440604635
3.5364238410596025,7.0580612791678
3.556291390728477,6.806867680646217
3.576158940397351,6.550370361488647
3.596026490066225,6.288997831714055
3.615894039735099,6.023217542258861
3.6357615894039736,5.753543926535125
3.6556291390728477,5.480548998180041
3.6754966887417218,5.2048764281757505
3.695364238410596,4.927260397236378
3.7152317880794703,4.648551050813427
3.7350993377483444,4.369749136259629
3.754966887417219,4.092053445932565
3.774834437086093,3.816926079770115
3.794701986754967,3.546182225446412
3.814569536423841,3.282112744798853
3.834437086092715,3.027648051802854
3.854304635761589,2.7865671042625504
3.8741721854304636,2.563737912458307
3.8940397350993377,2.3653311189805493
3.9139072847682117,2.198858682680407
3.9337748344370858,2.072766604802558
3.9536423841059607,1.9952715639683252
3.9735099337748347,1.972437838545267
3.993377483443709,2.006233168431086
4.013245033112583,2.093801399262755
4.033112582781457,2.228505468730568
4.052980132450331,2.4019604821080667
4.072847682119205,2.6058414593930923
4.0927152317880795,2.8328846555552114
4.112582781456953,3.0771835528818787
4.132450331125828,3.3340996210370673
4.152317880794702,3.600035801599623
4.172185430463576,3.8721996290535974
4.19205298013245,4.148402800493589
4.211920529801325,4.426905880561221
4.231788079470199,4.706302773844327
4.251655629139073,4.985436301759446
4.271523178807947,5.263336859673272
4.291390728476821,5.539177797055354
4.311258278145695,5.812242804370827
4.33112582781457,6.081901911443516
4.3509933774834435,6.347593684062486
4.370860927152318,6.608811909496488
4.390728476821192,6.865095557875089
4.410596026490066,7.116021154276308
4.43046357615894,7.3611969402518325
4.450331125827815,7.6002583751424755
4.470198675496689,7.83286464901013
4.490066225165563,8.05869596560069
4.509933774834438,8.277451415956538
4.529801324503311,8.488847308347834
4.549668874172186,8.692615853090116
4.569536423841059,8.888504125037658
4.589403973509934,9.076273244521746
4.6092715231788075,9.255697730955095
4.629139072847682,9.42656499346677
4.649006622516556,9.588674930637401
4.66887417218543,9.741839617301684
4.688741721854305,9.88588306092987
4.708609271523179,10.020641013627372
4.728476821192054,10.14596082854785
4.748344370860927,10.26170135168332
4.768211920529802,10.36773284171197
4.788079470198675,10.46393691195374
4.80794701986755,10.550206489582997
4.827814569536423,10.626445788137097
4.847682119205298,10.692570290084948
4.867549668874172,10.748506736816127
4.887417218543046,10.79419312390713
4.9072847682119205,10.829578699937999
4.927152317880794,10.854623967488218
4.947019867549669,10.869300685248415
4.966887417218543,10.87359187045701
4.986754966887418,10.867491801117085
5.006622516556291,10.85100601767704
5.026490066225166,10.824151324077905
5.04635761589404,10.786955788285116
5.066225165562914,10.739458742642968
5.086092715231788,10.681710784620305
5.105960264900662,10.613773778765962
5.125827814569536,10.535720860969892
5.14569536423841,10.447636446440216
5.1655629139072845,10.349616243171257
5.185430463576159,10.241767273105813
5.205298013245033,10.124207903706356
5.225165562913908,9.997067893265571
5.245033112582782,9.86048845403812
5.264900662251656,9.71462233819753
5.28476821192053,9.559633952765473
5.304635761589404,9.39569951108649
5.324503311258278,9.22300723021346
5.344370860927152,9.04175758583695
5.364238410596027,8.852163639280137
5.3841059602649,8.654451454786495
5.403973509933775,8.448860630112671
5.4238410596026485,8.235644969663625
5.443708609271523,8.015073337561164
5.463576158940397,7.787430738800997
5.483443708609272,7.553019690969526
5.503311258278146,7.312161968186274
5.52317880794702,7.065200824880908
5.543046357615895,6.812503842373246
5.562913907284768,6.554466589826173
5.582781456953643,6.291517358513423
5.602649006622516,6.024123322521024
5.622516556291391,5.752798611709077
5.642384105960264,5.478114971132759
5.662251655629139,5.200715950127421
5.682119205298013,4.921335949890759
5.701986754966887,4.640826011283694
5.7218543046357615,4.360189012370051
5.741721854304636,4.080628048312043
5.7615894039735105,3.8036132517294505
5.781456953642384,3.5309741463137256
5.801324503311259,3.265026433960133
5.821192052980132,3.008742567472428
5.841059602649007,2.7659709125378957
5.860927152317881,2.541690259925038
5.880794701986755,2.342238762887527
5.900662251655629,2.1753594295571403
5.920529801324503,2.04976914272045
5.940397350993377,1.9739152527576684
5.960264900662251,1.9539259825611779
5.980132450331126,1.9915794779909535
6.0,2.0836290805089157
6.0198675496688745,2.223011081330168
6.039735099337749,2.4010187709691375
6.059602649006623,2.609150440609336
6.079470198675497,2.8400795528382368
6.099337748344371,3.0879030284282734
6.119205298013245,3.348015661324337
6.139072847682119,3.6168626428977153
6.158940397350993,3.8916926522948825
6.178807947019867,4.17035352143196
6.198675496688741,4.451136011494485
6.218543046357616,4.7326586240948725
6.23841059602649,5.013783952860571
6.258278145695365,5.293558182413638
6.2781456953642385,5.571167232897888
6.298013245033113,5.845904790809514
6.317880794701987,6.117148830487204
6.337748344370861,6.384344228067256
6.357615894039735,6.646989777186427
6.377483443708609,6.9046284108873035
6.397350993377484,7.1568397794109115
6.417218543046357,7.403234574603808
6.437086092715232,7.643450160746263
6.456953642384105,7.877147190979925
6.47682119205298,8.10400697343267
6.496688741721854,8.323729412042074
6.516556291390729,8.536031391129502
6.5364238410596025,8.740645504908027
6.556291390728477,8.937319056743638
6.5761589403973515,9.125813270520025
6.596026490066225,9.305902669565222
6.6158940397351,9.477374588476657
6.635761589403973,9.640028790682317
6.655629139072848,9.79367717031408
6.675496688741721,9.938143521390074
6.695364238410596,10.073263360733996
6.715231788079469,10.198883793738844
6.735099337748344,10.314863414190711
6.754966887417219,10.421072231037252
6.774834437086093,10.517391616316715
6.794701986754967,10.603714269531805
6.814569536423841,10.679944194617164
6.8344370860927155,10.745996686354497
6.854304635761589,10.801798323669237
6.874172185430464,10.847286967724841
6.894039735099337,10.882411763136588
6.913907284768212,10.90713314097209
6.933774834437086,10.921422822506505
6.95364238410596,10.925263822964688
6.973509933774834,10.918650454723782
6.993377483443709,10.901588329671986
7.013245033112583,10.874094360633615
7.033112582781457,10.836196761981247
7.052980132450331,10.787935049771479
7.072847682119205,10.729360041966615
7.0927152317880795,10.660533859550743
7.112582781456954,10.581529929620643
7.132450331125828,10.492432991842133
7.152317880794702,10.393339110021563
7.172185430463576,10.284355690964421
7.19205298013245,10.165601513298268
7.211920529801324,10.037206769545456
7.231788079470198,9.89931312547397
7.251655629139073,9.7520738016683
7.271523178807947,9.595653683394161
7.291390728476822,9.430229466245736
7.311258278145695,9.25598984684353
7.33112582781457,9.073135770104805
7.3509933774834435,8.881880747483777
7.370860927152318,8.682451264270723
7.390728476821192,8.475087298814756
7.410596026490066,8.260042982754904
7.430463576158941,8.037587439507124
7.450331125827814,7.808005849048221
7.470198675496689,7.571600801421574
7.490066225165562,7.328694020716352
7.509933774834438,7.079628567454444
7.52980132450331,6.824771663099979
7.549668874172186,6.56451832972764
7.569536423841059,6.299296106481154
7.589403973509934,6.029571200691618
7.6092715231788075,5.755856567704994
7.629139072847682,5.478722607697934
7.649006622516557,5.198811446675538
7.66887417218543,4.916856171302928
7.6887417218543055,4.633706968787476
7.708609271523178,4.350366959751121
7.728476821192054,4.068041698325171
7.748344370860927,3.7882079389599768
7.768211920529802,3.5127093322008323
7.788079470198675,3.243888868050499
7.80794701986755,2.9847687951674264
7.827814569536423,2.7392845516599515
7.847682119205298,2.512560628472354
7.8675496688741715,2.3111648585885365
7.887417218543046,2.143169719197852
7.907284768211921,2.0176944797574667
7.927152317880795,1.9435492378497394
7.9470198675496695,1.9269949728185924
7.966887417218543,1.969572901427316
7.986754966887418,2.0674977503429637
8.006622516556291,2.2131045176120945
8.026490066225167,2.3972283431012813
8.046357615894038,2.611111583331527
8.066225165562914,2.8473307774221506
8.086092715231787,3.0999787204616127
8.105960264900663,3.364488704497369
8.125827814569536,3.6373581298531557
8.14569536423841,3.915887648791523
8.165562913907285,4.197971250822712
8.185430463576159,4.481938543033799
8.205298013245034,4.76643983098562
8.225165562913906,5.050363375175299
8.245033112582782,5.332775922891227
8.264900662251655,5.612879809562224
8.28476821192053,5.8899818049453865
8.304635761589404,6.163470302191633
8.324503311258278,6.432798467547417
8.344370860927151,6.6974716819529165
8.364238410596027,6.957038100354715
8.3841059602649,7.211081496855494
8.403973509933774,7.45921580149075
8.42384105960265,7.701080900400423
8.443708609271523,7.936339387932164
8.463576158940398,8.16467404204203
8.483443708609272,8.385785853623156
8.503311258278146,8.599392483173675
8.52317880794702,8.805227049369574
8.543046357615895,9.003037176993795
8.562913907284768,9.192584248627522
8.582781456953642,9.373642817174252
8.602649006622515,9.546000145823161
8.62251655629139,9.709455849294578
8.642384105960264,9.863821615742115
8.66225165562914,10.008920992946816
8.682119205298013,10.144589225742
8.701986754966887,10.2706731341886
8.721854304635762,10.38703102404914
8.741721854304636,10.49353262271525
8.76158940397351,10.590059035023687
8.781456953642383,10.676502714424466
8.801324503311259,10.75276744579611
8.821192052980132,10.818768336881153
8.841059602649008,10.874431815873736
8.86092715231788,10.919695633154399
8.880794701986755,10.954508865558527
8.90066225165563,10.978831921897438
8.920529801324504,10.992636548740181
8.940397350993377,10.995905835720901
8.960264900662251,10.988634219867253
8.980132450331126,10.97082748866241
9.0,10.942502781759394
9.019867549668875,10.903688591471228
9.039735099337747,10.854424762369902
9.059602649006623,10.79476249054685
9.079470198675496,10.724764323327067
9.099337748344372,10.644504160494675
9.119205298013245,10.554067258390338
9.139072847682119,10.453550238592067
9.158940397350994,10.34306110330494
9.178807947019868,10.222719260079232
9.198675496688743,10.092655559074496
9.218543046357615,9.953012346816106
9.23841059602649,9.80394354128916
9.258278145695364,9.645614734329511
9.27814569536424,9.478203328666194
9.298013245033111,9.301898718726127
9.317880794701987,9.116902526540091
9.33774834437086,8.923428906935957
9.357615894039736,8.72170493986624
9.37748344370861,8.5119711324618
9.397350993377483,8.294482059595246
9.417218543046358,8.069507179880274
9.437086092715232,7.837331874824773
9.456953642384107,7.598258773273759
9.47682119205298,7.352609442703805
9.496688741721854,7.100726555329727
9.516556291390728,6.8429766731809885
9.536423841059603,6.579753846392558
9.556291390728477,6.31148428891006
9.57615894039735,6.038632494429516
9.596026490066224,5.761709295707808
9.6158940397351,5.48128257177079
9.635761589403973,5.197991598864118
9.655629139072847,4.912566464982162
9.675496688741722,4.62585458685465
9.695364238410596,4.338857270334587
9.715231788079471,4.052780555118978
9.735099337748345,3.769106405986894
9.754966887417218,3.489692705363764
9.774834437086092,3.2169131843430394
9.794701986754967,2.9538500782795762
9.814569536423841,2.704548811364433
9.834437086092716,2.4743249532430864
9.854304635761588,2.2700573082846627
9.874172185430464,2.100277005122504
9.894039735099337,1.9746767784015264
9.913907284768213,1.9025931601973571
9.933774834437086,1.8904838244664204
9.95364238410596,1.939551339490616
9.973509933774835,2.0452465522028653
9.993377483443709,2.199070489578073
10.013245033112582,2.391241412968609
10.033112582781456,2.612669772357797
10.052980132450331,2.8558145896753624
10.072847682119205,3.114771461466168
10.09271523178808,3.3850293157360722
10.112582781456952,3.6631566472943935
10.132450331125828,3.946523297858857
10.152317880794701,4.233083946707919
10.172185430463577,4.521218881514408
10.192052980132452,4.809619686602109
10.211920529801324,5.097207817216084
10.2317880794702,5.383076548049892
10.251655629139073,5.666449354837469
10.271523178807948,5.9466498367451
10.29139072847682,6.2230797791063255
10.311258278145695,6.495203000268376
10.331125827814569,6.762533345179131
10.350993377483444,7.024625680749384
10.370860927152318,7.281069085801538
10.390728476821192,7.531481661309809
10.410596026490065,7.775506548383577
10.43046357615894,8.012808854730945
10.450331125827816,8.243073270403354
10.470198675496688,8.466002210736892
10.490066225165563,8.681314365529984
10.509933774834437,8.888743563382326
10.529801324503312,9.088037882034078
10.549668874172186,9.27895895175399
10.56953642384106,9.461281410918621
10.589403973509933,9.634792482019686
10.609271523178808,9.799291643232138
10.629139072847682,9.95459037594276
10.649006622516556,10.10051197269248
10.66887417218543,10.236891393127566
10.688741721854305,10.363575158007377
10.70860927152318,10.480421273243964
10.728476821192054,10.587299177474357
10.748344370860927,10.684089707882556
10.7682119205298,10.770685079964183
10.788079470198676,10.84698887771623
10.80794701986755,10.912916051378817
10.827814569536423,10.96839292038506
10.847682119205297,11.01335717961696
