Frequency (Hz),Amplitude
0.0,16.509232960959864
0.019867549668874173,16.510662018903652
0.039735099337748346,16.51494281894557
0.059602649006622516,16.52205627843428
0.07947019867549669,16.531970721561883
0.09933774834437085,16.54464207073187
0.11920529801324503,16.560014111412585
0.13907284768211922,16.578018827496155
0.15894039735099338,16.59857680344522
0.17880794701986755,16.62159768885133
0.1986754966887417,16.6469807204614
0.2185430463576159,16.674615296262626
0.23841059602649006,16.70438159585379
0.2582781456953642,16.736151241078773
0.27814569536423844,16.76978799075092
0.2980132450331126,16.805148463255343
0.31788079470198677,16.842082880870265
0.33774834437086093,16.880435829792894
0.3576158940397351,16.92004703007747
0.3774834437086093,16.96075210998469
0.3973509933774834,17.002383379587165
0.4172185430463576,17.04477059886707
0.4370860927152318,17.08774173596314
0.45695364238410596,17.1311237116677
0.4768211920529801,17.17474312672522
0.49668874172185434,17.21842696893715
0.5165562913907285,17.26200329751947
0.5364238410596026,17.30530190258835
0.5562913907284769,17.348154938053508
0.5761589403973509,17.39039752657833
0.5960264900662252,17.431868335614375
0.6158940397350993,17.472410123834504
0.6357615894039735,17.51187025757029
0.6556291390728477,17.550101197108766
0.6754966887417219,17.586960952916428
0.695364238410596,17.622313512039614
0.7152317880794702,17.656029235079334
0.7350993377483444,17.687985224257773
0.7549668874172186,17.7180656631838
0.7748344370860927,17.746162128990782
0.7947019867549668,17.772173877561244
0.8145695364238411,17.79600810257309
0.8344370860927152,17.817580169103188
0.8543046357615894,17.836813822509605
0.8741721854304636,17.853641373282827
0.8940397350993378,17.86800385851403
0.9139072847682119,17.879851180574455
0.9337748344370861,17.88914222353775
0.9536423841059603,17.895844947805724
0.9735099337748344,17.899936463322263
0.9933774834437087,17.901403081677955
1.0132450331125828,17.900240347322782
1.033112582781457,17.89645304801618
1.0529801324503312,17.890055204554976
1.0728476821192052,17.881070039728762
1.0927152317880795,17.86952992636378
1.1125827814569538,17.85547631422808
1.1324503311258278,17.83895963548533
1.1523178807947019,17.820039188303962
1.1721854304635762,17.798782998150653
1.1920529801324504,17.775267656228394
1.2119205298013245,17.749578134455167
1.2317880794701985,17.7218075763277
1.2516556291390728,17.69205706297124
1.271523178807947,17.660435353647397
1.2913907284768211,17.627058599977296
1.3112582781456954,17.5920500331394
1.3311258278145695,17.555539623322634
1.3509933774834437,17.517663710758367
1.370860927152318,17.478564607720873
1.390728476821192,17.438390170978263
1.410596026490066,17.397293344296976
1.4304635761589404,17.355431670752946
1.4503311258278146,17.31296677478612
1.4701986754966887,17.270063814150124
1.4900662251655628,17.226890902160928
1.5099337748344372,17.18361850093103
1.5298013245033113,17.14041878659597
1.5496688741721854,17.097464987891136
1.5695364238410596,17.054930699817472
1.5894039735099337,17.012989174542838
1.609271523178808,16.97181259211611
1.6291390728476822,16.931571314015482
1.6490066225165563,16.89243312300625
1.6688741721854303,16.85456245323716
1.6887417218543048,16.818119614947165
1.7086092715231789,16.78326001857667
1.728476821192053,16.750133403468435
1.7483443708609272,16.718883076687074
1.7682119205298013,16.689645167776916
1.7880794701986755,16.662547905496723
1.8079470198675496,16.63771092271138
1.8278145695364238,16.615244595671488
1.847682119205298,16.595249423864054
1.8675496688741722,16.57781545646728
1.8874172185430464,16.563021771183628
1.9072847682119205,16.550936010857455
1.9271523178807946,16.541613982812606
1.9470198675496688,16.53509932527033
1.9668874172185429,16.531423244546616
1.9867549668874174,16.530604325983013
2.0066225165562916,16.532648420758438
2.0264900662251657,16.537548609875795
2.0463576158940397,16.54528524573142
2.066225165562914,16.555826070785034
2.086092715231788,16.569126411964906
2.1059602649006623,16.585129448592305
2.1258278145695364,16.603766550807393
2.1456953642384105,16.62495768474284
2.165562913907285,16.648611880035084
2.185430463576159,16.674627754700644
2.205298013245033,16.70289409194023
2.2251655629139075,16.733290463078188
2.2450331125827816,16.76568789059449
2.2649006622516556,16.79994954506623
2.2847682119205297,16.83593146979651
2.3046357615894038,16.873483326969065
2.324503311258278,16.912449159313383
2.3443708609271523,16.952668161493026
2.364238410596027,16.99397545572269
2.384105960264901,17.036202866469363
2.403973509933775,17.079179689485375
2.423841059602649,17.1227334508451
2.443708609271523,17.166690652100467
2.463576158940397,17.21087749812318
2.4834437086092715,17.2551206046541
2.5033112582781456,17.299247683022468
2.52317880794702,17.34308819992566
2.543046357615894,17.386474010563887
2.562913907284768,17.429239963802633
2.5827814569536423,17.471224478382915
2.6026490066225163,17.512270089514754
2.622516556291391,17.552223965469626
2.642384105960265,17.59093839403498
2.662251655629139,17.62827123890574
2.6821192052980134,17.664086366267565
2.7019867549668874,17.698254041973673
2.7218543046357615,17.73065129983542
2.741721854304636,17.761162281635173
2.76158940397351,17.789678549535406
2.781456953642384,17.81609937159704
2.801324503311258,17.840331981140015
2.821192052980132,17.862291810679295
2.8410596026490067,17.88190270115349
2.8609271523178808,17.899097087131388
2.8807947019867552,17.9138161586398
2.9006622516556293,17.9260100002002
2.9205298013245033,17.935637707599035
2.9403973509933774,17.942667482845465
2.9602649006622515,17.947076707692602
2.9801324503311255,17.948851996016707
3.0,17.947989225262607
3.0198675496688745,17.944493547075343
3.0397350993377485,17.93837937714837
3.0596026490066226,17.929670364227693
3.0794701986754967,17.918399338122562
3.0993377483443707,17.90460823648398
3.119205298013245,17.88834801002779
3.1390728476821192,17.869678505796458
3.1589403973509933,17.848668327978142
3.1788079470198674,17.825394675730028
3.198675496688742,17.79994315739145
3.218543046357616,17.772407580418502
3.23841059602649,17.742889716330442
3.2582781456953644,17.71149903992811
3.2781456953642385,17.67835244203167
3.2980132450331126,17.64357391498692
3.3178807947019866,17.60729421021253
3.3377483443708607,17.569650467103415
3.3576158940397347,17.53078581267468
3.3774834437086096,17.490848931423677
3.3973509933774837,17.4499936050107
3.4172185430463577,17.408378221512404
3.437086092715232,17.36616525418691
3.456953642384106,17.32352070990935
3.47682119205298,17.28061354768994
3.4966887417218544,17.237615067974883
3.5165562913907285,17.194698273753954
3.5364238410596025,17.152037204852554
3.556291390728477,17.10980624717283
3.576158940397351,17.068179419059835
3.596026490066225,17.027329637402527
3.615894039735099,16.987427966529193
3.6357615894039736,16.9486428534135
3.6556291390728477,16.91113935316479
3.6754966887417218,16.87507834922182
3.695364238410596,16.840615773093766
3.7152317880794703,16.807901828884113
3.7350993377483444,16.777080228178658
3.754966887417219,16.748287441167683
3.774834437086093,16.721651970090786
3.794701986754967,16.697293651231263
3.814569536423841,16.67532299173412
3.834437086092715,16.65584054746956
3.854304635761589,16.63893634800758
3.8741721854304636,16.6246893745033
3.8940397350993377,16.613167095918868
3.9139072847682117,16.604425068526385
3.9337748344370858,16.59850660305572
3.9536423841059607,16.595442503178518
3.9735099337748347,16.595250878268022
3.993377483443709,16.597937032559553
4.013245033112583,16.603493431973558
4.033112582781457,16.611899748972792
4.052980132450331,16.62312298492747
4.072847682119205,16.637117668575097
4.0927152317880795,16.653826128307188
4.112582781456953,16.673178835211612
4.132450331125828,16.69509481306115
4.152317880794702,16.719482110784337
4.172185430463576,16.746238332392007
4.19205298013245,16.775251218871716
4.211920529801325,16.806399276210215
4.231788079470199,16.839552443457514
4.251655629139073,16.874572794610696
4.271523178807947,16.911315268062246
4.291390728476821,16.94962841742205
4.311258278145695,16.989355177675417
4.33112582781457,17.03033364087149
4.3509933774834435,17.07239783583524
4.370860927152318,17.11537850674962
4.390728476821192,17.159103885852414
4.410596026490066,17.20340045591879
4.43046357615894,17.248093698648336
4.450331125827815,17.29300882553019
4.470198675496689,17.337971488214382
4.490066225165563,17.382808465862745
4.509933774834438,17.42734832738018
4.529801324503311,17.471422066832996
4.549668874172186,17.514863710739256
4.569536423841059,17.557510896263164
4.589403973509934,17.599205419661264
4.6092715231788075,17.63979375460723
4.629139072847682,17.679127540269352
4.649006622516556,17.717064039225388
4.66887417218543,17.753466565478288
4.688741721854305,17.788204882982694
4.708609271523179,17.82115557520842
4.728476821192054,17.85220238635556
4.748344370860927,17.881236534898612
4.768211920529802,17.908157000176235
4.788079470198675,17.93287078276115
4.80794701986755,17.955293139343915
4.827814569536423,17.975347792847305
4.847682119205298,17.99296711845518
4.867549668874172,18.008092306196033
4.887417218543046,18.02067350066512
4.9072847682119205,18.030669918405444
4.927152317880794,18.038049943395023
4.947019867549669,18.042791201010147
4.966887417218543,18.044880610751004
4.986754966887418,18.04431441792947
5.006622516556291,18.04109820442945
5.026490066225166,18.03524687855942
5.04635761589404,18.026784643926067
5.066225165562914,18.01574494716639
5.086092715231788,18.002170404287963
5.105960264900662,17.98611270527976
5.125827814569536,17.967632496574396
5.14569536423841,17.946799240864895
5.1655629139072845,17.92369105370886
5.185430463576159,17.898394516289702
5.205298013245033,17.8710044636515
5.225165562913908,17.841623747682245
5.245033112582782,17.810362974091067
5.264900662251656,17.777340212611364
5.28476821192053,17.742680679666325
5.304635761589404,17.706516392755297
5.324503311258278,17.668985795866284
5.344370860927152,17.630233355288258
5.364238410596027,17.590409125294702
5.3841059602649,17.54966828329347
5.403973509933775,17.508170634196492
5.4238410596026485,17.46608008394978
5.443708609271523,17.42356408238905
5.463576158940397,17.38079303584382
5.483443708609272,17.337939690206433
5.503311258278146,17.29517848551005
5.52317880794702,17.252684883421615
5.543046357615895,17.21063466944615
5.562913907284768,17.169203232058116
5.582781456953643,17.12856482141459
5.602649006622516,17.088891790761156
5.622516556291391,17.050353824104228
5.642384105960264,17.013117154185593
5.662251655629139,16.977343775246048
5.682119205298013,16.94319065549353
5.701986754966887,16.910808954585736
5.7218543046357615,16.880343251784687
5.741721854304636,16.851930790730492
5.7615894039735105,16.825700746998994
5.781456953642384,16.801773524743545
5.801324503311259,16.780260088765395
5.821192052980132,16.761261338297786
5.841059602649007,16.744867528627626
5.860927152317881,16.73115774640212
5.880794701986755,16.720199444085296
5.900662251655629,16.712048038537105
5.920529801324503,16.706746578094595
5.940397350993377,16.704325481851612
5.960264900662251,16.704802354067677
5.980132450331126,16.70818187581112
6.0,16.714455775066043
6.0198675496688745,16.723602875632277
6.039735099337749,16.73558922423891
6.059602649006623,16.750368294397376
6.079470198675497,16.767881264658087
6.099337748344371,16.788057368125735
6.119205298013245,16.810814309346952
6.139072847682119,16.83605874402763
6.158940397350993,16.863686816473763
6.178807947019867,16.893584749191426
6.198675496688741,16.92562947872975
6.218543046357616,16.959689331611493
6.23841059602649,16.995624734062705
6.258278145695365,17.03328894922717
6.2781456953642385,17.072528835622226
6.298013245033113,17.113185620751736
6.317880794701987,17.15509568403228
6.337748344370861,17.19809134349334
6.357615894039735,17.242001641073724
6.377483443708609,17.286653121739448
6.397350993377484,17.331870602082112
6.417218543046357,17.377477924508643
6.437086092715232,17.42329869359439
6.456953642384105,17.469156991628843
6.47682119205298,17.514878070832843
6.496688741721854,17.56028902015611
6.516556291390729,17.60521940497209
6.5364238410596025,17.649501878367218
6.556291390728477,17.692972763069765
6.5761589403973515,17.73547260337936
6.596026490066225,17.776846686738956
6.6158940397351,17.81694553483624
6.635761589403973,17.855625364333292
6.655629139072848,17.892748517500625
6.675496688741721,17.92818386317724
6.695364238410596,17.961807168593683
6.715231788079469,17.99350144268269
6.735099337748344,18.02315725156267
6.754966887417219,18.050673006917602
6.774834437086093,18.0759552280136
6.794701986754967,18.098918778089683
6.814569536423841,18.119487075841885
6.8344370860927155,18.13759228268596
6.854304635761589,18.153175466438107
6.874172185430464,18.166186741996302
6.894039735099337,18.176585389538356
6.913907284768212,18.18433995068018
6.933774834437086,18.189428302957257
6.95364238410596,18.19183771290843
6.973509933774834,18.19156486795281
6.993377483443709,18.18861588715982
7.013245033112583,18.18300631092096
7.033112582781457,18.174761069438414
7.052980132450331,18.16391442985532
7.072847682119205,18.150509921760914
7.0927152317880795,18.134600240717543
7.112582781456954,18.11624712937307
7.132450331125828,18.0955212356439
7.152317880794702,18.072501947382477
7.172185430463576,18.04727720288024
7.19205298013245,18.01994327650261
7.211920529801324,17.99060453871146
7.231788079470198,17.959373189700923
7.251655629139073,17.92636896586014
7.271523178807947,17.891718818280676
7.291390728476822,17.855556562551143
7.311258278145695,17.81802249912875
7.33112582781457,17.77926300364952
7.3509933774834435,17.739430086637924
7.370860927152318,17.69868092220575
7.390728476821192,17.657177345490414
7.410596026490066,17.615085318776188
7.430463576158941,17.572574366471365
7.450331125827814,17.529816979377543
7.470198675496689,17.4869879889882
7.490066225165562,17.44426391288795
7.509933774834438,17.401822272693497
7.52980132450331,17.359840886376116
7.549668874172186,17.31849713723252
7.569536423841059,17.2779672222191
7.589403973509934,17.23842538282831
7.6092715231788075,17.200043122157624
7.629139072847682,17.162988412290133
7.649006622516557,17.127424896565014
7.66887417218543,17.093511091748944
7.6887417218543055,17.061399595519642
7.708609271523178,17.03123630502323
7.728476821192054,17.003159652557507
7.748344370860927,16.977299864650753
7.768211920529802,16.953778250938385
7.788079470198675,16.932706529278914
7.80794701986755,16.914186193485445
7.827814569536423,16.89830792987712
7.847682119205298,16.885151088569042
7.8675496688741715,16.87478321502297
7.887417218543046,16.86725964687467
7.907284768211921,16.862623180446253
7.927152317880795,16.860903810650342
7.9470198675496695,16.862118547212926
7.966887417218543,16.866271309297623
7.986754966887418,16.873352899723727
8.006622516556291,16.883341059054025
8.026490066225167,16.89620059890659
8.046357615894038,16.911883612937036
8.066225165562914,16.930329763066645
8.086092715231787,16.95146663771372
8.105960264900663,16.97521017803896
8.125827814569536,17.001465167555104
8.14569536423841,17.030125779887207
8.165562913907285,17.061076179011565
8.185430463576159,17.094191165953685
8.205298013245034,17.129336865689616
8.225165562913906,17.16637144786979
8.245033112582782,17.205145874964966
8.264900662251655,17.2455046715128
8.28476821192053,17.287286708313736
8.304635761589404,17.33032599567179
8.324503311258278,17.3744524800921
8.344370860927151,17.419492839216797
8.364238410596027,17.465271270192414
8.3841059602649,17.51161026710489
8.403973509933774,17.55833138357751
8.42384105960265,17.605255977094068
8.443708609271523,17.652205932075017
8.463576158940398,17.699004359187068
8.483443708609272,17.74547626880254
8.503311258278146,17.791449216935863
8.52317880794702,17.8367539223675
8.543046357615895,17.88122485401619
8.562913907284768,17.924700787937617
8.582781456953642,17.96702533360838
8.602649006622515,18.008047429400882
8.62251655629139,18.04762180736577
8.642384105960264,18.085609427615
8.66225165562914,18.121877882744123
8.682119205298013,18.156301772845772
8.701986754966887,18.188763051753153
8.721854304635762,18.219151345211014
8.741721854304636,18.247364241708944
8.76158940397351,18.273307556725555
8.781456953642383,18.296895571129
8.801324503311259,18.31805124445797
8.821192052980132,18.336706403771945
8.841059602649008,18.35280190871161
8.86092715231788,18.366287793351507
8.880794701986755,18.37712338535897
8.90066225165563,18.385277402898417
8.920529801324504,18.390728029637827
8.940397350993377,18.39346296812873
8.960264900662251,18.393479471740335
8.980132450331126,18.39078435523685
9.0,18.385393983992184
9.019867549668875,18.377334241743466
9.039735099337747,18.36664047669008
9.059602649006623,18.353357425654337
9.079470198675496,18.337539115930724
9.099337748344372,18.31924874436606
9.119205298013245,18.29855853313402
9.139072847682119,18.275549561594914
9.158940397350994,18.25031157356757
9.178807947019868,18.22294275928595
9.198675496688743,18.193549511271428
9.218543046357615,18.162246153322506
9.23841059602649,18.129154641812313
9.258278145695364,18.09440423848846
9.27814569536424,18.058131153998357
9.298013245033111,18.02047816141015
9.317880794701987,17.981594179076303
9.33774834437086,17.94163382228861
9.357615894039736,17.90075692330699
9.37748344370861,17.85912801951033
9.397350993377483,17.816915809616987
9.417218543046358,17.774292578158366
9.437086092715232,17.731433588661062
9.456953642384107,17.688516446301254
9.47682119205298,17.645720431139956
9.496688741721854,17.603225803425744
9.516556291390728,17.561213082861922
9.536423841059603,17.51986230417256
9.556291390728477,17.479352251760545
9.57615894039735,17.439859676725675
9.596026490066224,17.40155849999255
9.6158940397351,17.364619005776984
9.635761589403973,17.329207030086675
9.655629139072847,17.295483149392904
9.675496688741722,17.263601875015954
9.695364238410596,17.233710859120382
9.715231788079471,17.20595011850968
9.735099337748345,17.18045128262526
9.754966887417218,17.157336872285253
9.774834437086092,17.136719615730104
9.794701986754967,17.118701808469037
9.814569536423841,17.10337472323696
9.834437086092716,17.090818076071805
9.854304635761588,17.081099554109294
9.874172185430464,17.074274410167025
9.894039735099337,17.07038512856235
9.913907284768213,17.06946116588577
9.933774834437086,17.071518769650194
9.95364238410596,17.076560876870204
9.973509933774835,17.08457709371462
9.993377483443709,17.095543756439653
10.013245033112582,17.10942407286933
10.033112582781456,17.126168342767425
10.052980132450331,17.145714254559426
10.072847682119205,17.167987255035374
10.09271523178808,17.192900987909482
10.112582781456952,17.220357796447658
10.132450331125828,17.250249284808117
10.152317880794701,17.282456932283008
10.172185430463577,17.316852754285406
10.192052980132452,17.35330000369548
10.211920529801324,17.391653906062302
10.2317880794702,17.431762422148502
10.251655629139073,17.47346703139406
10.271523178807948,17.51660353005712
10.29139072847682,17.561002838049404
10.311258278145695,17.60649180881145
10.331125827814569,17.65289403695501
10.350993377483444,17.70003065882324
10.370860927152318,17.74772114157253
10.390728476821192,17.795784056849314
10.410596026490065,17.844037835611818
10.43046357615894,17.89230150111899
10.450331125827816,17.94039537756957
10.470198675496688,17.988141772315597
10.490066225165563,18.035365629990316
10.509933774834437,18.081895157277643
10.529801324503312,18.12756241740349
10.549668874172186,18.172203893748186
10.56953642384106,18.2156610222626
10.589403973509933,18.25778069261559
10.609271523178808,18.298415718213857
10.629139072847682,18.337425275409018
10.649006622516556,18.37467531235285
10.66887417218543,18.41003892807275
10.688741721854305,18.443396722424634
10.70860927152318,18.474637117637997
10.728476821192054,18.503656652202256
10.748344370860927,18.53036024785572
10.7682119205298,18.55466145043259
