Frequency (Hz),Amplitude
0.0,1.1302787494759665
0.019823788546255508,1.1297760824941956
0.039647577092511016,1.1282687288730853
0.059471365638766524,1.125758631341042
0.07929515418502203,1.122249030322504
0.09911894273127755,1.117744467839216
0.11894273127753305,1.1122507931459495
0.13876651982378857,1.1057751702800904
0.15859030837004406,1.0983260877648096
0.17841409691629956,1.0899133707716007
0.1982378854625551,1.0805481961240095
0.2180616740088106,1.0702431106108248
0.2378854625550661,1.0590120531779985
0.25770925110132165,1.0468703816869795
0.27753303964757714,1.0338349050673108
0.29735682819383263,1.0199239218581113
0.31718061674008813,1.0051572663332562
0.3370044052863437,0.9895563636449642
0.3568281938325991,0.9731442957116169
0.37665198237885467,0.9559458799270695
0.3964757709251102,0.9379877631966238
0.41629955947136565,0.9192985343249769
0.4361233480176212,0.8999088584164866
0.4559471365638767,0.8798516377215791
0.4757709251101322,0.8591622043070483
0.49559471365638774,0.8378785510764349
0.5154185022026433,0.8160416090601319
0.5352422907488987,0.7936955805757436
0.5550660792951543,0.7708883398690044
0.5748898678414097,0.7476719152158369
0.5947136563876653,0.7241030692036737
0.6145374449339208,0.7002439969662703
0.6343612334801763,0.6761631653736773
0.6541850220264318,0.6519363192408267
0.6740088105726874,0.6276476828651124
0.6938325991189428,0.6033913854485048
0.7136563876651982,0.5792731351646424
0.7334801762114539,0.5554121554265928
0.7533039647577093,0.5319433729867549
0.7731277533039648,0.5090198029251287
0.7929515418502204,0.48681499939338735
0.8127753303964759,0.46552531984799667
0.8325991189427313,0.44537157211517236
0.8524229074889869,0.42659937558477456
0.8722466960352424,0.40947729530037213
0.8920704845814978,0.3942915805031181
0.9118942731277534,0.3813363183135021
0.931718061674009,0.3708982353273109
0.9515418502202644,0.36323646512070745
0.9713656387665199,0.35855933809141793
0.9911894273127755,0.3570021518489582
1.0110132158590308,0.3586109629007578
1.0308370044052866,0.36333672849449794
1.0506607929515421,0.37104148765837125
1.0704845814977975,0.3815148052013573
1.090308370044053,0.3944961034566132
1.1101321585903086,0.40969784826487055
1.1299559471365639,0.4268256741558211
1.1497797356828194,0.4455934429503778
1.1696035242290752,0.46573295595684894
1.1894273127753305,0.4869991068450134
1.209251101321586,0.5091716696432608
1.2290748898678416,0.5320548870585242
1.248898678414097,0.5554757939636061
1.2687224669603525,0.5792819382736424
1.288546255506608,0.6033389245846198
1.3083700440528636,0.6275280290185522
1.3281938325991192,0.6517440138578634
1.3480176211453747,0.6758931953174954
1.36784140969163,0.6998917738844713
1.3876651982378856,0.7236644131548161
1.4074889867841411,0.747143042154772
1.4273127753303965,0.7702658524912208
1.4471365638766522,0.7929764620076186
1.4669603524229078,0.8152232189117656
1.4867841409691631,0.8369586234243884
1.5066079295154187,0.8581388472301926
1.5264317180616742,0.8787233340685293
1.5462555066079295,0.898674467533794
1.5660792951541853,0.9179572945197843
1.5859030837004409,0.9365392947462293
1.6057268722466962,0.9543901884805895
1.6255506607929517,0.9714817759568464
1.6453744493392073,0.987787803136981
1.6651982378854626,1.003283849400866
1.6850220264317182,1.0179472335212782
1.7048458149779737,1.0317569349126212
1.7246696035242293,1.0446935276607052
1.7444933920704848,1.056739125266572
1.7643171806167404,1.0678773343883026
1.7841409691629957,1.0780932161540977
1.8039647577092512,1.0873732538595484
1.8237885462555068,1.09570532606155
1.8436123348017623,1.1030786842475835
1.863436123348018,1.1094839343992553
1.8832599118942732,1.1149130218870775
1.9030837004405288,1.1193592192345592
1.9229074889867843,1.1228171163764906
1.9427312775330399,1.125282613112076
1.9625550660792954,1.126752913520675
1.982378854625551,1.1272265221678022
2.002202643171806,1.12670324198497
2.0220264317180616,1.125184173758153
2.041850220264317,1.12267171721033
2.061674008810573,1.119169573712599
2.0814977973568287,1.1146827507085868
2.1013215859030843,1.1092175679896532
2.1211453744493394,1.1027816660137764
2.140969162995595,1.0953840165226252
2.1607929515418505,1.0870349357789548
2.180616740088106,1.0777461008237477
2.2004405286343616,1.0675305692404857
2.220264317180617,1.0564028030163959
2.2400881057268722,1.0443786972099591
2.2599118942731278,1.0314756142753254
2.2797356828193833,1.0177124250608478
2.299559471365639,1.0031095576988056
2.319383259911895,0.987689055841033
2.3392070484581504,0.97147464798145
2.3590308370044055,0.9544918299504704
2.378854625550661,0.9367679630806929
2.3986784140969166,0.9183323910438748
2.418502202643172,0.8992165789628924
2.4383259911894277,0.8794542791303993
2.4581497797356833,0.8590817285421332
2.4779735682819384,0.8381378845028851
2.497797356828194,0.8166647058141726
2.5176211453744495,0.7947074885289939
2.537444933920705,0.7723152669767083
2.5572687224669606,0.7495412927163398
2.577092511013216,0.7264436062294264
2.5969162995594717,0.7030857184013171
2.6167400881057272,0.6795374209353785
2.6365638766519828,0.6558757463639141
2.6563876651982383,0.632186098507501
2.676211453744494,0.6085635718190916
2.6960352422907494,0.5851144709811833
2.715859030837005,0.5619580272250911
2.73568281938326,0.5392282804143971
2.7555066079295156,0.5170760494659874
2.775330396475771,0.49567084000712747
2.7951541850220267,0.47520242881239
2.8149779735682823,0.4558817145787882
2.834801762114538,0.4379402405828417
2.854625550660793,0.42162760841441044
2.874449339207049,0.40720588717685374
2.8942731277533045,0.3949402057348632
2.91409691629956,0.38508515620310996
2.9339207048458156,0.37786754761195507
2.953744493392071,0.3734673516953246
2.9735682819383262,0.3719999785115079
2.993392070484582,0.3735036369691003
3.0132158590308373,0.37793488474944764
3.033039647577093,0.3851735415728183
3.0528634361233484,0.3950356821817569
3.072687224669604,0.4072915412690431
3.092511013215859,0.42168457558028044
3.1123348017621146,0.4379485928699683
3.1321585903083706,0.4558211687064433
3.151982378854626,0.47505286521203804
3.1718061674008817,0.49541265603311296
3.1916299559471373,0.5166903832275671
3.2114537444933924,0.5386971421657616
3.231277533039648,0.561264369443059
3.2511013215859035,0.5842422206327869
3.270925110132159,0.6074976412366756
3.2907488986784146,0.6309123856430106
3.31057268722467,0.6543811310870894
3.3303964757709252,0.6778097612349029
3.350220264317181,0.7011138485252271
3.3700440528634363,0.7242173376676325
3.389867841409692,0.747051418256603
3.4096916299559474,0.7695535676905707
3.4295154185022034,0.7916667433542801
3.4493392070484585,0.8133387033214706
3.469162995594714,0.8345214364184911
3.4889867841409696,0.8551706846192171
3.508810572687225,0.8752455429970778
3.5286343612334807,0.8947081246191421
3.5484581497797363,0.9135232797236712
3.5682819383259914,0.9316583602379184
3.588105726872247,0.9490830221661842
3.6079295154185025,0.9657690596248013
3.627753303964758,0.9816902653473885
3.6475770925110136,0.9968223133560852
3.667400881057269,1.0111426602194928
3.6872246696035247,1.0246304619194424
3.7070484581497802,1.037266503846704
3.726872246696036,1.0490331418587278
3.7466960352422913,1.0599142526753667
3.7665198237885464,1.069895192173305
3.7863436123348024,1.078962760377676
3.8061674008810575,1.0871051721479734
3.8259911894273135,1.0943120327226308
3.8458149779735686,1.100574317427596
3.8656387665198246,1.1058843549741475
3.8854625550660797,1.1102358138742816
3.905286343612335,1.113623691590589
3.925110132158591,1.116044306115795
3.9449339207048464,1.117495289746035
3.964757709251102,1.1179755848743826
3.9845814977973575,1.1174854416888322
4.004405286343612,1.1160264177127333
4.024229074889869,1.1136013791780406
4.044052863436123,1.110214504273087
4.06387665198238,1.1058712883590427
4.083700440528634,1.1005785513034065
4.103524229074891,1.094344447136792
4.123348017621146,1.087178476302059
4.143171806167401,1.0790915008341104
4.162995594713657,1.0700957628869643
4.182819383259912,1.0602049071129047
4.2026431718061685,1.0494340075006343
4.222466960352423,1.0377995993969689
4.242290748898679,1.0253197175740243
4.262114537444934,1.0120139413647764
4.28193832599119,0.9979034480787856
4.301762114537445,0.9830110761332871
4.321585903083701,0.9673613995979959
4.3414096916299565,0.9509808161635551
4.361233480176212,0.9338976509115854
4.381057268722468,0.9161422786987539
4.400881057268723,0.8977472684783357
4.420704845814979,0.8787475534813248
4.440528634361234,0.859180631875357
4.46035242290749,0.8390868033204882
4.4801762114537445,0.8185094477484897
4.500000000000001,0.7974953536971464
4.5198237885462555,0.7760951046052678
4.539647577092512,0.7543635325570623
4.559471365638767,0.7323602499439926
4.579295154185023,0.7101502701928943
4.599118942731278,0.6878047287688731
4.618942731277533,0.6654017145850342
4.63876651982379,0.6430272189452633
4.658590308370044,0.62077620302009
4.678414096916301,0.5987537738953262
4.6982378854625555,0.5770764410766869
4.718061674008811,0.5558733969401165
4.737885462555067,0.5352877224737916
4.757709251101322,0.5154773604954866
4.777533039647578,0.49661562098910245
4.797356828193833,0.4788908909400251
4.817180616740089,0.4625051275917724
4.837004405286344,0.447670648747297
4.856828193832599,0.43460474591066295
4.876651982378855,0.42352180091875574
4.896475770925111,0.4146229440650412
4.9162995594713665,0.4080838621895352
4.936123348017622,0.4040420555990358
4.955947136563877,0.4025854301298162
4.975770925110133,0.40374429931185996
4.995594713656388,0.40748844628476694
5.015418502202644,0.4137298926589093
5.035242290748899,0.42233077466242486
5.055066079295155,0.43311470529858925
5.07488986784141,0.445879548570605
5.094713656387666,0.46040969851800007
5.114537444933921,0.4764865342222621
5.134361233480177,0.49389641535621004
5.154185022026432,0.512436162745133
5.174008810572688,0.5319163358519615
5.193832599118943,0.552162781446643
5.213656387665199,0.5730169440158481
5.2334801762114544,0.5943353645798247
5.25330396475771,0.615988700883233
5.2731277533039655,0.637860508670436
5.292951541850221,0.659845945052471
5.312775330396477,0.6818504947688607
5.332599118942731,0.7037887771883049
5.352422907488988,0.7255834629140113
5.372246696035242,0.7471643103113604
5.392070484581499,0.7684673210685218
5.4118942731277535,0.7894340076301464
5.43171806167401,0.8100107622610753
5.451541850220265,0.8301483163863859
5.47136563876652,0.8498012789053799
5.491189427312777,0.8689277428635059
5.511013215859031,0.8874889508590466
5.530837004405288,0.9054490106608092
5.550660792951542,0.9227746536039049
5.570484581497798,0.9394350293519125
5.5903083700440535,0.9554015315357148
5.610132158590309,0.9706476495931811
5.6299559471365646,0.9851488428411872
5.64977973568282,0.9988824334198129
5.669603524229076,1.0118275152677005
5.689427312775331,1.023964876729201
5.709251101321586,1.0352769347679358
5.729074889867842,1.045747679077919
5.748898678414098,1.05536262465141
5.768722466960353,1.0641087715894626
5.788546255506609,1.0719745711338795
5.808370044052864,1.0789498970629827
5.82819383259912,1.0850260217339707
5.848017621145375,1.090195596174785
5.867841409691631,1.0944526337328035
5.887665198237886,1.0977924968784005
5.907488986784142,1.1002118868416824
5.927312775330397,1.101708835832068
5.9471365638766525,1.102282701655541
5.966960352422908,1.1019341646038712
5.986784140969164,1.1006652265464367
6.00660792951542,1.0984792122095557
6.026431718061675,1.0953807726807478
6.04625550660793,1.0913758912293272
6.066079295154186,1.0864718915891016
6.085903083700441,1.0806774489067443
6.105726872246697,1.0740026036208592
6.125550660792952,1.0664587786037698
6.145374449339208,1.0580587999716162
6.1651982378854635,1.0488169220508485
6.185022026431718,1.038748857081294
6.204845814977975,1.027871810340984
6.224669603524229,1.0162045214967947
6.244493392070486,1.0037673131210878
6.264317180616741,0.990582147469808
6.284140969162996,0.9766726927952875
6.303964757709252,0.9620644006698138
6.323788546255507,0.9467845960261458
6.3436123348017635,0.9308625818823784
6.363436123348018,0.9143297610098446
6.3832599118942746,0.8972197771262865
6.403083700440529,0.8795686785472575
6.422907488986785,0.8614151075999187
6.44273127753304,0.8428005194796874
6.462555066079296,0.8237694345860355
6.482378854625551,0.8043697286666214
6.502202643171807,0.7846529652629264
6.5220264317180625,0.7646747748849457
6.541850220264318,0.7444952848977207
6.561674008810574,0.724179603061728
6.581497797356829,0.7037983557249335
6.601321585903085,0.6834282783925896
6.62114537444934,0.6631528512344211
6.640969162995596,0.6430629643022195
6.6607929515418505,0.6232575859493982
6.680616740088107,0.6038443922160112
6.700440528634362,0.5849402939112177
6.720264317180618,0.566671771390772
6.740088105726873,0.5491748952531592
6.759911894273129,0.532594877030253
6.779735682819384,0.5170849632855534
6.799559471365639,0.5028044695850071
6.819383259911895,0.48991576259491876
6.83920704845815,0.47858005734329084
6.859030837004407,0.4689520189089433
6.8788546255506615,0.4611733488524641
6.898678414096917,0.4553657790911739
6.918502202643173,0.4516241408210579
6.938325991189428,0.45001034719991023
6.958149779735684,0.45054914505925564
6.977973568281939,0.4532263057270261
6.997797356828195,0.4579895585599971
7.01762114537445,0.46475211622404194
7.037444933920705,0.4733982296791248
7.0572687224669615,0.48378995581557294
7.077092511013216,0.49577426945145525
7.096916299559473,0.5091897776834972
7.116740088105728,0.5238725245497436
7.136563876651983,0.5396606257721538
7.156387665198239,0.5563976868829963
7.176211453744494,0.5739351052161087
7.19603524229075,0.5921334357820335
7.215859030837005,0.6108630268989487
7.235682819383261,0.6300041221884445
7.255506607929516,0.649446597779901
7.275330396475772,0.6690894693166233
7.295154185022027,0.6888402699396278
7.314977973568283,0.7086143714910013
7.334801762114538,0.7283342979635644
7.354625550660794,0.7479290625979275
7.374449339207049,0.767333547226944
7.394273127753305,0.7864879335280921
7.4140969162995605,0.805337189841393
7.433920704845816,0.8238306133521588
7.453744493392072,0.8419214250977702
7.473568281938327,0.8595664139575134
7.493392070484583,0.8767256251791874
7.513215859030838,0.8933620888355552
7.533039647577093,0.9094415837181206
7.552863436123348,0.9249324324474623
7.572687224669605,0.9398053239329783
7.59251101321586,0.954033159698605
7.612334801762115,0.9675909209766154
7.6321585903083715,0.9804555538394497
7.651982378854627,0.9926058699797675
7.671806167400882,1.004022461058669
7.691629955947137,1.0146876248183083
7.711453744493394,1.0245853014007433
7.731277533039649,1.0337010185308546
7.751101321585904,1.0420218444106202
7.7709251101321595,1.049536347337852
7.790748898678416,1.056234561207398
7.81057268722467,1.062107956179812
7.830396475770926,1.0671494139137694
7.850220264317182,1.0713532068564626
7.870044052863436,1.0747149811733283
7.889867841409693,1.0772317429756908
7.909691629955948,1.078901847574678
7.929515418502204,1.079724991553415
7.9493392070484585,1.0797022075078155
7.969162995594715,1.078835861360933
7.9889867841409705,1.0771296522080898
8.008810572687224,1.0745886146999246
8.02863436123348,1.071219124019965
8.048458149779737,1.0670289035629454
8.068281938325994,1.0620270354701018
8.088105726872246,1.0562239742296757
8.107929515418503,1.049631563605243
8.12775330396476,1.0422630572116698
8.147577092511014,1.03413314311985
8.167400881057269,1.0252579729368891
8.187224669603525,1.0156551958786944
8.207048458149782,1.0053439984282027
8.226872246696036,0.9943451502528432
8.246696035242293,0.9826810571421726
8.266519823788547,0.9703758218166576
8.286343612334802,0.9574553135529266
8.306167400881058,0.9439472476652879
8.325991189427315,0.9298812759738707
8.345814977973568,0.9152890894717112
8.365638766519824,0.9002045344657598
8.38546255506608,0.8846637434989165
8.405286343612337,0.8687052823427481
8.42511013215859,0.8523703142597543
8.444933920704846,0.8357027825343774
8.464757709251103,0.8187496119201254
8.484581497797357,0.8015609290838217
8.504405286343614,0.7841903012709376
8.524229074889869,0.7666949911689821
8.544052863436125,0.7491362241873392
8.56387665198238,0.7315794619591087
8.583700440528636,0.714094672641541
8.60352422907489,0.6967565843827949
8.623348017621145,0.6796449029907057
8.643171806167402,0.662844468310827
8.662995594713658,0.6464453161602715
8.682819383259913,0.630542604181223
8.702643171806168,0.6152363513591931
8.722466960352424,0.6006309334174498
8.74229074889868,0.5868342717357967
8.762114537444935,0.5739566544516302
8.78193832599119,0.5621091381513469
8.801762114537446,0.5514015003007388
8.821585903083701,0.541939748717767
8.841409691629957,0.533823245214072
8.861233480176212,0.5271415626153951
8.881057268722468,0.5219712595729377
8.900881057268723,0.5183728131963635
8.92070484581498,0.5163879804660125
8.940528634361234,0.5160378522831235
8.960352422907489,0.5173218124506872
8.980176211453745,0.5202175222370954
9.000000000000002,0.5246819351873979
9.019823788546258,0.5306532296919002
9.039647577092511,0.5380534520782912
9.059471365638768,0.5467916074055735
9.079295154185024,0.5567669242867741
9.099118942731279,0.5678720484201579
9.118942731277533,0.5799959741020423
9.13876651982379,0.5930265885738323
9.158590308370046,0.6068527674528781
9.1784140969163,0.6213660120225879
9.198237885462555,0.6364616569584849
9.218061674008812,0.6520397001293322
9.237885462555067,0.6680053167578442
9.257709251101323,0.6842691217266829
9.27753303964758,0.7007472394218301
9.297356828193834,0.7173612329216906
9.317180616740089,0.734037935544025
9.337004405286345,0.750709219045915
9.356828193832602,0.7673117248680085
9.376651982378855,0.7837865780617417
9.396475770925111,0.8000790980147569
9.416299559471367,0.8161385157258368
9.436123348017622,0.8319177040320466
9.455947136563877,0.84737292468844
9.475770925110133,0.8624635943783224
9.49559471365639,0.877152070440864
9.515418502202644,0.8914034562168609
9.5352422907489,0.905185425329856
9.555066079295155,0.9184680638577333
9.57488986784141,0.9312237291470331
9.594713656387666,0.9434269239306563
9.614537444933923,0.9550541843947037
9.634361233480178,0.9660839808756257
9.654185022026432,0.9764966299362786
9.674008810572689,0.9862742166555182
9.693832599118945,0.9954005260613027
9.713656387665198,1.0038609827360194
9.733480176211454,1.0116425977202463
9.75330396475771,1.0187339219352325
9.773127753303967,1.0251250054333292
9.792951541850222,1.0308073618684543
9.812775330396477,1.0357739376557649
9.832599118942733,1.0400190853601832
9.852422907488988,1.0435385409186133
9.872246696035244,1.0463294043600102
9.892070484581499,1.0483901237422568
9.911894273127754,1.0497204820750055
9.93171806167401,1.050321587043864
9.951541850220266,1.0501958633943917
9.971365638766521,1.0493470478742968
9.991189427312776,1.047780186669527
10.011013215859032,1.045501635305413
10.030837004405289,1.0425190610169852
10.050660792951543,1.0388414476244525
10.070484581497798,1.0344791029796794
10.090308370044054,1.029443669077837
10.11013215859031,1.0237481349554083
10.129955947136565,1.0174068525202395
10.14977973568282,1.0104355554820685
10.169603524229077,1.0028513815713513
10.189427312775331,0.994672898249779
10.209251101321588,0.9859201321261457
10.229074889867842,0.9766146022947266
10.248898678414099,0.966779357807495
10.268722466960353,0.9564390194735043
10.28854625550661,0.9456198261452112
10.308370044052865,0.9343496855972117
10.32819383259912,0.9226582300223424
10.348017621145376,0.9105768760560511
10.367841409691632,0.898138889083683
10.387665198237887,0.885379451376271
10.407488986784141,0.8723357333266555
10.427312775330398,0.8590469667043713
10.447136563876654,0.8455545184005534
10.466960352422909,0.8319019625744801
10.486784140969164,0.8181351484260322
10.50660792951542,0.8043022599877135
10.526431718061675,0.7904538633447171
10.546255506607931,0.7766429355501541
10.566079295154186,0.7629248682151722
10.585903083700442,0.7493574373522907
10.605726872246697,0.7360007295957529
