Time (s),Filtered Signal
0.0,0.020782165386286768
0.03337008452774715,-0.35642448999334175
0.0667401690554943,-0.6707053545373882
0.10011025358324147,-0.8654240890538488
0.1334803381109886,-0.8987796091624778
0.16685042263873576,-0.7541222962232211
0.20022050716648293,-0.44829630379040636
0.23359059169423008,-0.032848046127721554
0.2669606762219772,0.41506266668632297
0.30033076074972437,0.8106708404343115
0.3337008452774715,1.0827063310743588
0.36707092980521866,1.1901091901908532
0.40044101433296586,1.1289977683611885
0.433811098860713,0.9290112749682836
0.46718118338846015,0.6422912209615486
0.5005512679162073,0.33001750287296533
0.5339213524439544,0.05030294657459155
0.5672914369717016,-0.15114473228617725
0.6006615214994487,-0.24790676186554345
0.6340316060271959,-0.23758832200967153
0.667401690554943,-0.14338884334821542
0.7007717750826902,-0.010334971562514722
0.7341418596104373,0.10547010916186515
0.7675119441381845,0.1535261949046104
0.8008820286659317,0.10671479583639844
0.8342521131936789,-0.027180038631789926
0.867622197721426,-0.20664177047246268
0.9009922822491732,-0.37185799245821743
0.9343623667769203,-0.4691829879758162
0.9677324513046675,-0.47419039466137636
1.0011025358324146,-0.402461753901923
1.0344726203601617,-0.3024006579249519
1.0678427048879089,-0.2328342089541886
1.101212789415656,-0.2357472929431247
1.1345828739434032,-0.31716430066120327
1.1679529584711503,-0.4453007474745075
1.2013230429988975,-0.5664418743494215
1.2346931275266446,-0.6300317278069454
1.2680632120543918,-0.6099815278300244
1.301433296582139,-0.5116915910352676
1.334803381109886,-0.362385648073005
1.3681734656376332,-0.191615971176328
1.4015435501653803,-0.014062791416934093
1.4349136346931275,0.1749685610870837
1.4682837192208746,0.3887537407944127
1.5016538037486218,0.6299103710290626
1.535023888276369,0.8751036896310873
1.568393972804116,1.0743077260200256
1.6017640573318634,1.1670595876344438
1.6351341418596106,1.1083634851821145
1.6685042263873577,0.8912180734753872
1.7018743109151049,0.5542787123568091
1.735244395442852,0.17073096020474754
1.7686144799705992,-0.17642884719394927
1.8019845644983463,-0.4216878734798518
1.8353546490260935,-0.5358328663461691
1.8687247335538406,-0.5301468900043921
1.9020948180815878,-0.4465794203822968
1.935464902609335,-0.33967237255857785
1.968834987137082,-0.25776789110911424
2.002205071664829,-0.22945909255006286
2.0355751561925763,-0.2579948396844323
2.0689452407203235,-0.3233382204932781
2.1023153252480706,-0.3899290564209386
2.1356854097758178,-0.41782430752335287
2.169055494303565,-0.3749491641238029
2.202425578831312,-0.24800873204745422
2.235795663359059,-0.049266318438312265
2.2691657478868064,0.18342699858179767
2.3025358324145535,0.3946600603233802
2.3359059169423007,0.5264825650178871
2.369276001470048,0.5367065406996667
2.402646085997795,0.4149359143189832
2.436016170525542,0.19057581245944735
2.4693862550532892,-0.071200917047961
2.5027563395810364,-0.2861887480619612
2.5361264241087835,-0.37698643824724537
2.5694965086365307,-0.3003484297917115
2.602866593164278,-0.06627508179665363
2.636236677692025,0.2598050918467995
2.669606762219772,0.5753007051597845
2.7029768467475193,0.7747591089852278
2.7363469312752664,0.7881350364756671
2.7697170158030135,0.6075594899145554
2.8030871003307607,0.29059253410531694
2.836457184858508,-0.06246386652898424
2.869827269386255,-0.3480568078707625
2.903197353914002,-0.4987061158734599
2.9365674384417493,-0.5052369995628455
2.9699375229694964,-0.4131532047987439
3.0033076074972436,-0.2966173926338046
3.0366776920249907,-0.22358291049325094
3.070047776552738,-0.22847766947122225
3.103417861080485,-0.30341914284390237
3.136787945608232,-0.4087319637875749
3.1701580301359793,-0.4944216421247972
3.203528114663727,-0.5209255564499419
3.236898199191474,-0.4707453613553759
3.270268283719221,-0.3493190483968697
3.3036383682469683,-0.17902888094255362
3.3370084527747155,0.008453734506341215
3.3703785373024626,0.17879496965749714
3.4037486218302098,0.3011762894009654
3.437118706357957,0.35555419831388296
3.470488790885704,0.3404427942768734
3.503858875413451,0.27757091077195806
3.5372289599411983,0.20873985876930326
3.5705990444689455,0.1828745210003951
3.6039691289966926,0.2365163181813159
3.63733921352444,0.3757071741364765
3.670709298052187,0.5682309510406062
3.704079382579934,0.7513979179034797
3.7374494671076812,0.8536139634281052
3.7708195516354284,0.8213737759737435
3.8041896361631755,0.6404741969584116
3.8375597206909227,0.342594624886536
3.87092980521867,-0.005333095489160088
3.904299889746417,-0.32445248590840187
3.937669974274164,-0.5507402441677316
3.9710400588019112,-0.6551741437637248
4.004410143329658,-0.6503191310256858
4.0377802278574055,-0.5816322094877566
4.071150312385153,-0.5073866193683974
4.1045203969129,-0.4751737627150935
4.137890481440647,-0.5040356441930153
4.171260565968394,-0.578854124531632
4.204630650496141,-0.6584833593491984
4.238000735023888,-0.6934320976239197
4.2713708195516356,-0.6453069360690309
4.304740904079383,-0.500334693571749
4.33811098860713,-0.27272657637245096
4.371481073134877,0.0016470209926214543
4.404851157662624,0.27727060976463924
4.438221242190371,0.5116790817294109
4.471591326718118,0.6750511780882741
4.504961411245866,0.7550222606531959
4.538331495773613,0.7567463390753267
4.57170158030136,0.6991122108397108
4.605071664829107,0.6083853012093957
4.638441749356854,0.5108560370822696
4.671811833884601,0.42636675668161933
4.7051819184123485,0.3644888402737656
4.738552002940096,0.32429473013862387
4.771922087467843,0.2972825475970498
4.80529217199559,0.27177081464447683
4.838662256523337,0.23675476605390344
4.872032341051084,0.18401122352747332
4.905402425578831,0.10858745921953716
4.9387725101065785,0.008762285447315249
4.972142594634326,-0.11351770106501288
5.005512679162073,-0.2517263147479263
5.03888276368982,-0.39447062835096297
5.072252848217567,-0.5271517702647557
5.105622932745314,-0.635832172350954
5.138993017273061,-0.7118069693621367
5.1723631018008085,-0.7542446976442084
5.205733186328556,-0.7688659361013789
5.239103270856303,-0.762891273551677
5.27247335538405,-0.7390089059748108
5.305843439911797,-0.6920968074891989
5.339213524439544,-0.6110524952360818
5.372583608967291,-0.48513005054145003
5.4059536934950385,-0.3115208671574369
5.439323778022786,-0.10013699006059995
5.472693862550533,0.1270457968548687
5.50606394707828,0.34215079088811184
5.539434031606027,0.5207553745534912
5.572804116133774,0.6507962485832817
5.606174200661521,0.7372767052963423
5.6395442851892685,0.8000861970633238
5.672914369717016,0.864478821937355
5.706284454244763,0.9469285891075515
5.73965453877251,1.042136306863521
5.773024623300257,1.1181176300663638
5.806394707828004,1.1240475938938357
5.839764792355751,1.010000501880727
5.873134876883499,0.7512242903139282
5.906504961411246,0.3657084755786247
5.939875045938993,-0.08466321866762432
5.97324513046674,-0.5120737233495406
6.006615214994487,-0.8332130098350091
6.039985299522234,-0.9988389910457569
6.073355384049981,-1.008943356228692
6.106725468577729,-0.906935684176166
6.140095553105476,-0.7567188721930062
6.173465637633223,-0.6147511498674347
6.20683572216097,-0.5106177441692368
6.240205806688717,-0.4437775426986493
6.273575891216464,-0.39486668818036835
6.3069459757442115,-0.34284979454924325
6.340316060271959,-0.27811797170892605
6.373686144799706,-0.20600061641883496
6.407056229327454,-0.14146738041529613
6.440426313855201,-0.09999367987339251
6.473796398382948,-0.08983663770277783
6.507166482910695,-0.10843113759011139
6.540536567438442,-0.14282087145372124
6.5739066519661895,-0.1727861450394569
6.607276736493937,-0.17556296812396702
6.640646821021684,-0.13151461314063181
6.674016905549431,-0.02987205653590433
6.707386990077178,0.1270743358224731
6.740757074604925,0.32319478473624996
6.774127159132672,0.5320883850011706
6.8074972436604195,0.7240942110423005
6.840867328188167,0.8740807431762836
6.874237412715914,0.9667419295018299
6.907607497243661,0.9971985546628728
6.940977581771408,0.9671178102266729
6.974347666299155,0.879150909162846
7.007717750826902,0.7336973344024114
7.0410878353546495,0.5307902798402375
7.074457919882397,0.27659368701032433
7.107828004410144,-0.009563205763360123
7.141198088937891,-0.2931621554445399
7.174568173465638,-0.5310823431228999
7.207938257993385,-0.6857263850616284
7.241308342521132,-0.7407092057024263
7.27467842704888,-0.7098856372617172
7.308048511576627,-0.6335822304866858
7.341418596104374,-0.5617944496065179
7.374788680632121,-0.5311414840918255
7.408158765159868,-0.5468259100725653
7.441528849687615,-0.5797748304006095
7.4748989342153624,-0.5821798082810005
7.50826901874311,-0.5148170719721024
7.541639103270857,-0.3720820894288802
7.575009187798604,-0.19030465979612168
7.608379272326351,-0.03275565646685938
7.641749356854098,0.042774228078017694
7.675119441381845,0.017528324607012872
7.7084895259095925,-0.0720713022412694
7.74185961043734,-0.146355872093743
7.775229694965087,-0.11872473264789322
7.808599779492834,0.06068569004027903
7.841969864020581,0.3759481025564607
7.875339948548328,0.7463552491923584
7.908710033076075,1.0580891849939316
7.9420801176038225,1.2117120983939624
7.97545020213157,1.1628246368808284
8.008820286659317,0.9371111042523156
8.042190371187063,0.6142500817591527
8.075560455714811,0.2904904238986297
8.108930540242557,0.0389828882941542
8.142300624770305,-0.11406835231622552
8.175670709298052,-0.1890820193912998
8.2090407938258,-0.23262601889280055
8.242410878353546,-0.2893320181736143
8.275780962881294,-0.3799737617391944
8.30915104740904,-0.4943076480373468
8.342521131936788,-0.5993968329015759
8.375891216464534,-0.6575435734571354
8.409261300992283,-0.6449671286710783
8.442631385520029,-0.5632506439454801
8.476001470047777,-0.4392361749946757
8.509371554575523,-0.3138663482292867
8.542741639103271,-0.22482831224811295
8.57611172363102,-0.19032295172549615
8.609481808158765,-0.20092969964875415
8.642851892686513,-0.2233455876513702
8.67622197721426,-0.2148478099610026
8.709592061742008,-0.1426001187286932
8.742962146269754,0.0005630279401980388
8.776332230797502,0.19119304749141916
8.809702315325248,0.383956638211492
8.843072399852996,0.5306242644256365
8.876442484380743,0.6007312721516082
8.90981256890849,0.5940252121758454
8.943182653436237,0.5385324498038893
8.976552737963985,0.47524406238749317
9.009922822491731,0.4372718912893963
9.04329290701948,0.43403590672052744
9.076662991547225,0.4481148269723199
9.110033076074973,0.44558560502952554
9.14340316060272,0.3938576214342302
9.176773245130468,0.27777423385551914
9.210143329658214,0.1064734921472253
9.243513414185962,-0.09118893516530788
9.276883498713708,-0.2790314905451793
9.310253583241456,-0.42685475899355907
9.343623667769203,-0.5184806951579789
9.37699375229695,-0.5521986045879084
9.410363836824697,-0.5357556500393054
9.443733921352445,-0.4804159566809715
9.477104005880191,-0.3977715037635986
9.51047409040794,-0.2999507025885158
9.543844174935685,-0.20102463012755545
9.577214259463434,-0.11676197649894611
9.61058434399118,-0.06165610764305052
9.643954428518928,-0.0447345690681071
9.677324513046674,-0.0669262195597831
9.710694597574422,-0.12169018297682047
9.744064682102168,-0.1980813840765682
9.777434766629916,-0.28352906667172556
9.810804851157663,-0.36401406717289625
9.84417493568541,-0.4219379906885678
9.877545020213157,-0.4348164108561545
9.910915104740905,-0.37855882039760125
9.944285189268651,-0.23650153827071244
9.9776552737964,-0.010916148304730073
10.011025358324146,0.26956501568365576
10.044395442851894,0.552684068986295
10.07776552737964,0.7769703142888407
10.111135611907388,0.8930531361330989
10.144505696435134,0.8827021895517468
10.177875780962882,0.7665983215723388
10.211245865490628,0.596658273183608
10.244615950018376,0.43569224520263955
10.277986034546123,0.3327703985767848
10.31135611907387,0.30440279244951446
10.344726203601617,0.3290508296110142
10.378096288129365,0.3569997213661222
10.411466372657111,0.3315643735042975
10.44483645718486,0.21326146978488686
10.478206541712606,-0.0025076042819488376
10.511576626240354,-0.2812058023471711
10.5449467107681,-0.5601162246734206
10.578316795295848,-0.7703874754112758
10.611686879823594,-0.8616872098651042
10.645056964351342,-0.8199130672121199
10.678427048879088,-0.6711977929561017
10.711797133406836,-0.471053243913375
10.745167217934583,-0.28353221099277504
10.77853730246233,-0.15902294318419383
10.811907386990077,-0.11908538237408788
10.845277471517825,-0.1529550083203063
10.878647556045571,-0.22511947508558122
10.91201764057332,-0.28935563368974065
10.945387725101066,-0.3034497272570279
10.978757809628814,-0.24036651619375252
11.01212789415656,-0.09426925242546041
11.045497978684308,0.11834002335055965
11.078868063212054,0.3617829278161506
11.112238147739802,0.5885988842079164
11.145608232267548,0.7509196322739796
11.178978316795297,0.8139174352148542
11.212348401323043,0.7671403073581605
11.24571848585079,0.6286508131235747
11.279088570378537,0.4389088647716054
11.312458654906285,0.24586343892068993
11.345828739434031,0.08731274336047408
11.37919882396178,-0.02162147545770909
11.412568908489526,-0.09038466488341325
11.445938993017274,-0.14395197077060584
11.47930907754502,-0.20779367487645506
11.512679162072768,-0.2942549463750965
11.546049246600514,-0.39647485402190064
11.579419331128262,-0.49194149148128097
11.612789415656009,-0.5532333849766128
11.646159500183757,-0.5605567313476343
11.679529584711503,-0.510420387385747
11.71289966923925,-0.416957732250607
11.746269753766997,-0.3058225093033752
11.779639838294745,-0.20374220807532797
11.813009922822491,-0.12844288284368235
11.84638000735024,-0.08315790936166487
11.879750091877986,-0.057576970495395875
11.913120176405734,-0.034002217496765755
11.94649026093348,0.004804373200987838
11.979860345461228,0.06989121451937276
12.013230429988974,0.16451699237573875
12.046600514516722,0.2859424020290132
12.079970599044469,0.42791032550865155
12.113340683572217,0.5811905065423297
12.146710768099963,0.7316262458032761
12.180080852627711,0.8577427986570638
12.213450937155457,0.9312619222590055
12.246821021683205,0.9227163420571789
12.280191106210951,0.8112853158060161
12.3135611907387,0.5948585459700657
12.346931275266446,0.29525039548549864
12.380301359794194,-0.04467383968938435
12.41367144432194,-0.37137175672047407
12.447041528849688,-0.6343444238138932
12.480411613377434,-0.7978464638346463
12.513781697905182,-0.8469245648852529
12.547151782432929,-0.7873697344033981
12.580521866960677,-0.6417680238147921
12.613891951488423,-0.4443335089405759
12.647262036016171,-0.23581064291122708
12.680632120543917,-0.05794903277373791
12.714002205071665,0.05351014682411673
12.747372289599411,0.07717078773447862
12.78074237412716,0.013296100306089081
12.814112458654908,-0.11368876895314856
12.847482543182654,-0.2605652123765264
12.880852627710402,-0.3785417254130786
12.914222712238148,-0.4302527822946328
12.947592796765896,-0.4036719532641801
12.980962881293642,-0.3163731443998697
13.01433296582139,-0.20725648660057158
13.047703050349137,-0.11843077111229139
13.081073134876885,-0.07483188494901709
13.114443219404631,-0.07091980990415774
13.147813303932379,-0.07130478055776121
13.181183388460125,-0.026192057734214194
13.214553472987873,0.10439253832720714
13.24792355751562,0.3283043067809088
13.281293642043368,0.6115517149378342
13.314663726571114,0.8865818209862844
13.348033811098862,1.075854226489611
13.381403895626608,1.1207531245525268
13.414773980154356,1.0032970216221937
13.448144064682102,0.7515402342872616
13.48151414920985,0.4272163539202143
13.514884233737597,0.10206047250060801
13.548254318265345,-0.16650258747038332
13.581624402793091,-0.3506372501385876
13.614994487320839,-0.45378218963719635
13.648364571848585,-0.5004400117290755
13.681734656376333,-0.5202787454351975
13.71510474090408,-0.5339445546323167
13.748474825431828,-0.5459850730243767
13.781844909959574,-0.5464623069986388
13.815214994487322,-0.5190213514816368
13.848585079015068,-0.4508888887562031
13.881955163542816,-0.34018621695692725
13.915325248070562,-0.19777143333352537
13.94869533259831,-0.04355889874446506
13.982065417126057,0.10036285758220774
14.015435501653805,0.21645664464200454
14.048805586181551,0.29554751659276873
14.082175670709299,0.33674094547200323
14.115545755237045,0.3444638874381915
14.148915839764793,0.32485334934533666
14.18228592429254,0.2836001308843355
14.215656008820288,0.22609707587082795
14.249026093348034,0.1591350072018465
14.282396177875782,0.09236706809544408
14.315766262403528,0.03784840460669879
14.349136346931276,0.007030466419892659
14.382506431459023,0.0060683578374078504
14.41587651598677,0.031510610661460915
14.449246600514517,0.06882797129947675
14.482616685042265,0.09545747115568605
14.515986769570011,0.08815192940018289
14.54935685409776,0.03214236376300983
14.582726938625505,-0.0718192658655583
14.616097023153253,-0.20600093552239132
14.649467107681,-0.3408708040716564
14.682837192208748,-0.4448572426387213
14.716207276736494,-0.49456209526056905
14.749577361264242,-0.4813882176563646
14.782947445791988,-0.4125510313278693
14.816317530319736,-0.30706277338439436
14.849687614847483,-0.18905559081411316
14.88305769937523,-0.08106438365187024
14.916427783902977,0.001000914663361475
14.949797868430725,0.050541698553898895
14.983167952958471,0.07052680038717926
15.01653803748622,0.07135769283455594
15.049908122013965,0.06668789750623949
15.083278206541713,0.0683705066970117
15.11664829106946,0.08257912949534929
15.150018375597208,0.10907075707512277
15.183388460124954,0.14402393786499784
15.216758544652702,0.18460729185670116
15.250128629180448,0.23204265747178285
15.283498713708196,0.2907077318957906
15.316868798235943,0.3635164061646587
15.35023888276369,0.4465979478180452
15.383608967291437,0.5270960002504141
15.416979051819185,0.5860338901259532
15.450349136346931,0.604926811545942
15.48371922087468,0.5724717391330509
15.517089305402425,0.48781546566582074
15.550459389930174,0.35933078432538734
15.58382947445792,0.20066329414197584
15.617199558985668,0.02701679692964734
15.650569643513414,-0.14648646218868788
15.683939728041162,-0.3049138234992496
15.717309812568908,-0.43423326424021635
15.750679897096656,-0.5241662135239885
15.784049981624403,-0.5723315190848346
15.81742006615215,-0.586628980334778
15.850790150679897,-0.5828383633882537
15.884160235207645,-0.5770878629527512
15.917530319735391,-0.5765377717363028
15.95090040426314,-0.5737695433272345
15.984270488790886,-0.5492485197810516
16.017640573318634,-0.4820959019679674
16.05101065784638,-0.3643890540831903
16.084380742374126,-0.2111742387409658
16.117750826901876,-0.0593862964603216
16.151120911429622,0.04603742410458177
16.18449099595737,0.07365964871433846
16.217861080485115,0.024393174633463542
16.251231165012864,-0.06272331659839407
16.28460124954061,-0.12276753563276101
16.317971334068357,-0.09143122943115879
16.351341418596103,0.06551715118788817
16.384711503123853,0.3334150837024056
16.4180815876516,0.6498559264776128
16.451451672179346,0.9262174900117335
16.484821756707092,1.0807324837678312
16.51819184123484,1.0690684422917291
16.551561925762588,0.8996254476347085
16.584932010290334,0.6277458018169443
16.61830209481808,0.33238047889490335
16.65167217934583,0.08606014014848484
16.685042263873576,-0.06900991944590586
16.718412348401323,-0.12984661613860715
16.75178243292907,-0.12523257914235345
16.78515251745682,-0.09782529120595157
16.818522601984565,-0.0853240239101729
16.85189268651231,-0.1087963015446036
16.885262771040058,-0.17124013143716837
16.918632855567807,-0.26380473264690557
16.952002940095554,-0.37379765073996324
16.9853730246233,-0.48911375742325974
17.018743109151046,-0.5973229611938004
17.052113193678796,-0.6819937935973482
17.085483278206542,-0.7212194584043743
17.11885336273429,-0.6922013553444764
17.15222344726204,-0.5816365205198097
17.185593531789785,-0.39694469627313445
17.21896361631753,-0.17108254013327603
17.252333700845277,0.04428964120037568
17.285703785373027,0.19675419548037765
