Frequency (Hz),Amplitude
0.0,4.173276261517537
0.04,4.171266284237244
0.08,4.165238481955287
0.12,4.15519924286067
0.16,4.1411592123431165
0.19999999999999998,4.1231332907244935
0.24,4.1011406303256965
0.27999999999999997,4.075204632121264
0.32,4.045352942320462
0.36,4.01161744931134
0.39999999999999997,3.974034281517682
0.44,3.9326438068520058
0.48,3.887490634606917
0.52,3.8386236208190794
0.5599999999999999,3.786095878374443
0.6,3.7299647934116584
0.64,3.670292049938674
0.6799999999999999,3.607143665025202
0.72,3.54059003749791
0.76,3.470706013781343
0.7999999999999999,3.3975709754429033
0.84,3.321268954178794
0.88,3.2418887815066233
0.9199999999999999,3.1595242824283614
0.96,3.074274524959164
1.0,2.986244140912402
1.04,2.895543738011806
1.0799999999999998,2.802290429725303
1.1199999999999999,2.706608517837689
1.1600000000000001,2.6086303746497492
1.2,2.5084975881960525
1.24,2.4063624570594437
1.28,2.3023899542778765
1.3199999999999998,2.196760327080225
1.3599999999999999,2.0896725677195205
1.4,1.9813490911419238
1.44,1.8720421039701407
1.48,1.7620423713130493
1.52,1.6516914211743128
1.5599999999999998,1.5413987266336255
1.5999999999999999,1.4316661506372383
1.64,1.3231230168216548
1.68,1.2165766321623752
1.72,1.113084756408908
1.76,1.014057427463394
1.7999999999999998,0.921392516830947
1.8399999999999999,0.8376339345070896
1.88,0.7660962580985935
1.92,0.7108065762902259
1.9599999999999997,0.6760111128269363
2.0,0.665086303814391
2.0399999999999996,0.6792356031549016
2.08,0.7169313690656212
2.12,0.7746172595634074
2.1599999999999997,0.8480309392025938
2.2,0.9332230680265944
2.2399999999999998,1.0269812890018468
2.28,1.1268531459863842
2.3200000000000003,1.2310116352607305
2.36,1.338098299222132
2.4,1.4470919668191993
2.44,1.5572110948722828
2.48,1.6678445325013127
2.5199999999999996,1.7785033091420321
2.56,1.888787160657847
2.6,1.9983611762606468
2.6399999999999997,2.106939362999165
2.68,2.214272955356617
2.7199999999999998,2.3201420057404945
2.76,2.4243492667201094
2.8,2.5267156921699674
2.84,2.6270770953228424
2.88,2.72528164311939
2.92,2.821187961857166
2.96,2.914663694450072
2.9999999999999996,3.0055843946903353
3.04,3.093832675361652
3.08,3.1792975492392213
3.1199999999999997,3.26187391782723
3.16,3.34146217407352
3.1999999999999997,3.4179678935843625
3.2399999999999998,3.4913015949445425
3.28,3.5613785542546537
3.32,3.6281186623666772
3.36,3.691446315838436
3.4,3.7512903345575985
3.44,3.8075839004641683
3.4799999999999995,3.8602645129410313
3.52,3.9092739573290247
3.5599999999999996,3.9545582837173443
3.5999999999999996,3.99606779370774
3.64,4.033757033286032
3.6799999999999997,4.067584790282684
3.7199999999999998,4.097514095184968
3.76,4.12351222429181
3.7999999999999994,4.14555070438993
3.84,4.163605318285588
3.88,4.177656110657032
3.9199999999999995,4.187687393804194
3.96,4.193687752968853
4.0,4.195650050984013
4.04,4.193571432088819
4.079999999999999,4.187453324817498
4.12,4.177301443940094
4.16,4.163125791501448
4.199999999999999,4.144940657075008
4.24,4.1227646174221775
4.28,4.096620535828353
4.319999999999999,4.066535561476411
4.36,4.032541129320631
4.4,3.994672961042511
4.4399999999999995,3.9529710678099854
4.4799999999999995,3.907479755728827
4.5200000000000005,3.8582476350773467
4.56,3.805327634662759
4.6,3.7487770229423334
4.640000000000001,3.6886574379309716
4.68,3.625034928390834
4.72,3.5579800093964877
4.76,3.4875677361280886
4.8,3.4138778007164685
4.84,3.3369946582152816
4.88,3.2570076893994657
4.92,3.1740114102135113
4.96,3.0881057404925603
5.0,2.9993963482994954
5.039999999999999,2.907995091206442
5.08,2.814020582588277
5.12,2.717598920190441
5.159999999999999,2.618864626897662
5.2,2.51796187124706
5.24,2.4150460599864174
5.279999999999999,2.3102859301360863
5.319999999999999,2.203866318471894
5.36,2.09599185953207
5.3999999999999995,1.9868919704824712
5.4399999999999995,1.8768276397459045
5.48,1.7661007725493436
5.52,1.655067200001377
5.56,1.5441549862627428
5.6,1.4338904472059542
5.64,1.3249354048787303
5.68,1.2181406633510954
5.72,1.1146222324725388
5.76,1.015867241345758
5.8,0.9238720318995954
5.84,0.8412962143872721
5.879999999999999,0.7715658723673143
5.92,0.7187632213794145
5.96,0.6870543804757359
5.999999999999999,0.6795537987497328
6.04,0.6970969965327175
6.08,0.7378586228713248
6.119999999999999,0.7981668224974201
6.16,0.8737950076717026
6.2,0.9608916458123915
6.239999999999999,1.0563420923765985
6.279999999999999,1.1577689383217966
6.32,1.2633963897318405
6.359999999999999,1.3718988382938666
6.3999999999999995,1.4822753872356802
6.44,1.5937565854620577
6.4799999999999995,1.7057381638851208
6.52,1.8177347392008547
6.56,1.9293475513765947
6.6,2.040241872711298
6.64,2.1501310529156052
6.68,2.258765133577099
6.72,2.365922633545672
6.76,2.47140455681942
6.8,2.575029975396839
6.84,2.6766327409320656
6.88,2.77605901456874
6.92,2.8731653963140875
6.959999999999999,2.9678174983488277
7.0,3.059888850311231
7.04,3.149260055131974
7.08,3.23581813559152
7.119999999999999,3.319456027201872
7.16,3.40007218415115
7.199999999999999,3.4775702731661156
7.239999999999999,3.5518589361190016
7.28,3.62285160663768
7.32,3.690466369297457
7.359999999999999,3.754625852478795
7.3999999999999995,3.8152571478827744
7.4399999999999995,3.872291751158984
7.4799999999999995,3.925665519231144
7.52,3.975318640785706
7.5600000000000005,4.021195617078727
7.599999999999999,4.063245250761203
7.64,4.1014206408563565
7.68,4.135679182369883
7.719999999999999,4.165982569294697
7.76,4.1922968000003555
7.800000000000001,4.214592184185457
7.839999999999999,4.2328433507277525
7.88,4.24702925589846
7.92,4.25713319152
7.959999999999999,4.263142792744449
8.0,4.265050045217299
8.040000000000001,4.262851291470563
8.08,4.256547236463918
8.12,4.246142952264428
8.159999999999998,4.231647881927352
8.2,4.213075842714518
8.24,4.190445028865299
8.28,4.163778014221173
8.32,4.133101755100961
8.36,4.098447593933963
8.399999999999999,4.059851264286384
8.44,4.0173528980681645
8.48,3.970997035889196
8.52,3.9208326417541155
8.56,3.866913123554468
8.6,3.809296361149539
8.639999999999999,3.748044744240769
8.68,3.6832252227629465
8.72,3.6149093731693087
8.76,3.5431734848189826
8.8,3.4680986717389537
8.84,3.389771016404252
8.879999999999999,3.308281753960708
8.92,3.223727507644527
8.959999999999999,3.136210589224583
9.0,3.0458393823762613
9.040000000000001,2.9527288323679
9.079999999999998,2.857001072839619
9.12,2.758786230548536
9.16,2.6582234628559798
9.2,2.5554623020641354
9.24,2.450664407861858
9.280000000000001,2.3440058676647233
9.32,2.2356802398556797
9.36,2.125902614877393
9.399999999999999,2.0149150859543674
9.44,1.902994193341441
9.48,1.7904611610670897
9.52,1.6776961238333519
9.559999999999999,1.5651581009196933
9.6,1.453413284165689
9.639999999999999,1.3431753280738241
9.68,1.2353627175551571
9.72,1.1311795110930325
9.76,1.0322252371218061
9.8,0.9406330000406298
9.84,0.8592116750576466
9.879999999999999,0.7915117968424356
9.92,0.7416412339365616
9.959999999999999,0.7136042183098161
10.0,0.7101494808658356
10.04,0.7316815291254195
10.079999999999998,0.7760851066412243
10.12,0.8396199176184798
10.16,0.9181371846005597
10.2,1.007903015637923
10.24,1.1059017791907666
10.280000000000001,1.2098223357946312
10.319999999999999,1.317927479414097
10.36,1.4289113385766403
10.4,1.5417811551897675
10.44,1.655768890922471
10.48,1.770267963460212
10.52,1.8847887167711872
10.559999999999999,1.998927170978343
10.6,2.1123429989891904
10.639999999999999,2.224743881675466
10.68,2.335874285199836
10.72,2.445507326016141
10.76,2.5534388120358398
10.799999999999999,2.659482833633716
10.84,2.763468470455866
10.879999999999999,2.8652373102814277
10.92,2.964641565138706
10.96,3.061542631155281
11.0,3.1558099812544027
11.04,3.2473203097717676
11.08,3.3359568693388675
11.12,3.4216089556334826
11.16,3.5041715066445382
11.2,3.5835447911742295
11.24,3.659634167258227
11.28,3.73234989561922
11.319999999999999,3.801606996597557
11.36,3.867325141521679
11.4,3.929428571402187
11.44,3.9878460373099482
11.48,4.04251075794178
11.52,4.09336039076877
11.559999999999999,4.140337013862469
11.6,4.183387116048107
11.64,4.222461593475434
11.68,4.257515751052075
11.72,4.28850930747124
11.759999999999998,4.315406402799799
11.799999999999999,4.338175607785853
11.84,4.356789934206115
11.879999999999999,4.37122684570955
11.92,4.38146826873058
11.96,4.38750060314762
11.999999999999998,4.38931473245405
12.04,4.386906033292831
12.08,4.380274384285223
12.12,4.369424174161298
12.16,4.3543643092777335
12.200000000000001,4.335108220689008
12.239999999999998,4.31167387102456
12.28,4.284083761519483
12.32,4.252364939653311
12.36,4.216549007974579
12.4,4.176672134832691
12.44,4.132775067909496
12.479999999999999,4.084903151648164
12.52,4.033106349926123
12.559999999999999,3.9774392756240156
12.6,3.9179612291199284
12.64,3.854736248207544
12.68,3.7878331725258936
12.719999999999999,3.7173257263318997
12.76,3.643292624392654
12.799999999999999,3.565817706985377
12.84,3.4849901115545996
12.88,3.400904490604755
12.92,3.3136612880607426
12.959999999999999,3.223367089829517
12.999999999999998,3.1301350689484053
13.04,3.0340855519410943
13.08,2.9353467414304912
13.12,2.8340556415508096
13.16,2.730359248518051
13.2,2.6244160906902487
13.239999999999998,2.516398233264208
13.28,2.4064939063906943
13.32,2.294910977864789
13.36,2.1818815815162425
13.4,2.0676683432398026
13.44,1.9525728380097538
13.479999999999999,1.8369471921648763
13.52,1.7212101566707743
13.559999999999999,1.6058695723274052
13.6,1.4915539830511995
13.64,1.3790572449923504
13.68,1.269401170772619
13.719999999999999,1.1639218422382602
13.76,1.0643830894524093
13.799999999999999,0.9731103983591495
13.84,0.8931093613036757
13.88,0.8280714516311866
13.919999999999998,0.782087649541067
13.959999999999999,0.7588907768122889
14.0,0.7607291300595815
14.04,0.7874860727117952
14.08,0.8367388097158591
14.120000000000001,0.9047038918856537
14.16,0.9873409676006877
14.2,1.0810533633411004
14.239999999999998,1.1829320481386225
14.28,1.2907314988067857
14.32,1.40274786934443
14.36,1.5176877248806435
14.399999999999999,1.6345585359904964
14.44,1.7525859214135566
14.479999999999999,1.8711537339046098
14.52,1.9897614199246307
14.56,2.107993789714617
14.6,2.2254995164521545
14.64,2.3419757366328615
14.68,2.457156922069509
14.719999999999999,2.570806760694303
14.76,2.6827121745877474
14.799999999999999,2.792678870806663
14.84,2.900528002705547
14.879999999999999,3.006093644040381
14.919999999999998,3.1092208639360024
14.959999999999999,3.209764250354426
15.0,3.307586771419891
15.04,3.4025588934574604
15.079999999999998,3.4945578956641374
15.120000000000001,3.5834673365124616
15.159999999999998,3.669176638031406
15.199999999999998,3.7515807622181105
15.24,3.830579959839898
15.28,3.9060795763724507
15.319999999999999,3.9779899031988126
15.36,4.046226064758941
15.399999999999999,4.1107079343015185
15.439999999999998,4.1713600724020266
15.48,4.228111683584568
15.52,4.280896587302813
15.559999999999999,4.329653200257725
15.600000000000001,4.374324527602609
15.639999999999999,4.414858161043708
15.679999999999998,4.451206282212585
15.72,4.483325669985589
15.76,4.511177710670208
15.799999999999999,4.534728410180527
15.84,4.55394840749345
15.879999999999999,4.568812988821037
15.919999999999998,4.579302102058501
15.96,4.58540037117641
16.0,4.587097110324186
16.04,4.584386337502805
16.080000000000002,4.577266787751235
16.12,4.56574192587645
16.16,4.5498199588431465
16.200000000000003,4.529513848030038
16.24,4.5048413216572625
16.279999999999998,4.475824887797752
16.319999999999997,4.442491848508076
16.36,4.404874315756051
16.4,4.363009229988839
16.439999999999998,4.3169383823835865
16.48,4.2667084420611365
16.52,4.212370989834155
16.56,4.153982560417061
16.6,4.091604695466446
16.64,4.025304010370159
16.68,3.9551522783931716
16.72,3.881226536660289
16.759999999999998,3.8036092195652897
16.799999999999997,3.722388326617651
16.84,3.6376576335721205
16.88,3.5495169580694554
16.919999999999998,3.458072494135892
16.96,3.3634372340025993
17.0,3.2657315011739745
17.04,3.1650836259994954
17.080000000000002,3.061630804902078
17.12,2.955520197904402
17.16,2.84691033763858
17.2,2.735972948747634
17.24,2.6228953125910173
17.279999999999998,2.5078833630089674
17.32,2.3911657713087062
17.36,2.2729993825514554
17.4,2.1536765152815347
17.44,2.0335348543341323
17.48,1.9129709813623246
17.52,1.7924590401548623
17.56,1.6725766692694293
17.6,1.554041183173725
17.64,1.4377599910665357
17.68,1.3249000809569038
17.72,1.21698098681307
17.759999999999998,1.1159911407357375
17.799999999999997,1.0245125517198856
17.84,0.945802740986033
17.88,0.8837189941795941
17.919999999999998,0.8423098556934033
17.96,0.8249658651120928
18.0,0.8333587124037615
18.04,0.8668049742586933
18.080000000000002,0.9225522217756844
18.12,0.9967517809987504
18.159999999999997,1.0854439683096344
18.2,1.1851419710552495
18.24,1.293020554339318
18.279999999999998,1.4068818105310799
18.32,1.5250408830331854
18.36,1.6462049140969186
18.4,1.7693715057246202
18.44,1.8937511380006689
18.48,2.018710313179799
18.52,2.14373060608446
18.560000000000002,2.268379308032315
18.6,2.39228833473944
18.64,2.5151389807362627
18.679999999999996,2.6366508119741376
18.72,2.7565735019612254
18.759999999999998,2.8746807772493974
18.799999999999997,2.9907658877603573
18.84,3.1046381897618405
18.88,3.2161205484894664
18.919999999999998,3.325047350277073
18.96,3.4312629720861856
19.0,3.534620597292331
19.04,3.6349812957612464
19.080000000000002,3.732213307212032
19.119999999999997,3.8261914820635865
19.159999999999997,3.9167968450781396
19.2,4.0039162553183685
19.24,4.087442142037712
19.279999999999998,4.16727230070186
19.32,4.243309736800928
19.36,4.315462547749426
19.4,4.383643835195535
19.44,4.44777164162663
19.48,4.507768906376664
19.52,4.563563437096907
19.560000000000002,4.615087893506187
19.6,4.662279780836972
19.639999999999997,4.70508145087459
19.68,4.74344010887513
19.72,4.777307824963789
19.759999999999998,4.806641548875524
19.8,4.831403127115865
19.84,4.851559321801844
19.88,4.867081830598441
19.919999999999998,4.877947307301452
19.96,4.884137382738151
20.0,4.885638685766858
20.04,4.882442864259734
20.08,4.874546606052746
20.119999999999997,4.861951659946439
20.159999999999997,4.844664856944009
20.2,4.822698132022557
20.24,4.796068546853221
20.279999999999998,4.764798314019984
20.32,4.728914823440827
20.36,4.688450671873828
20.4,4.643443696602784
20.44,4.593937014650391
20.48,4.539979069174066
20.52,4.481623685074209
20.560000000000002,4.418930136306206
20.599999999999998,4.3519632279600176
20.639999999999997,4.280793396886449
20.68,4.205496835548847
20.72,4.126155644918381
20.759999999999998,4.042858023683065
20.8,3.9556985029044336
20.84,3.864778237663409
20.88,3.7702053703695486
20.92,3.672095484512827
20.96,3.5705721730559534
21.0,3.4657677528729978
21.04,3.357824166302464
21.08,3.2468941239391955
21.119999999999997,3.133142560576684
21.159999999999997,3.0167485006421906
21.2,2.8979074632997524
21.24,2.776834584621941
21.279999999999998,2.6537687006470168
21.32,2.5289777291560323
21.36,2.402765821761567
21.4,2.2754829486398997
21.44,2.147537849671649
21.48,2.019415668296497
21.52,1.8917021110509153
21.56,1.7651166651346777
21.599999999999998,1.6405582113375674
21.639999999999997,1.5191670424452977
21.68,1.4024070675040137
21.72,1.2921688785110264
21.759999999999998,1.1908840708103012
21.8,1.101616280270545
21.84,1.0280478643916824
21.88,0.9742253062594451
21.92,0.9439314680643557
21.96,0.9397429484134981
22.0,0.9621906356759261
22.04,1.0095829255843005
22.08,1.0786235564823499
22.119999999999997,1.165374262866604
22.16,1.2660322968273499
22.2,1.3773264785305128
22.24,1.496613035361317
22.28,1.6218180312027568
22.32,1.7513299613315394
22.36,1.883892849726164
22.4,2.0185173540486594
22.44,2.1544123437393448
22.48,2.290934093309857
22.519999999999996,2.427549135846039
22.56,2.5638072260677753
22.599999999999998,2.6993216295781677
22.639999999999997,2.833754680466682
22.68,2.9668071262246283
22.72,3.0982102059390404
22.759999999999998,3.2277197136031703
22.8,3.3551115142757335
22.84,3.4801781324479157
22.88,3.6027261385326566
22.92,3.7225741345659618
22.96,3.839551193560251
23.0,3.95349564507959
23.04,4.064254127069314
23.08,4.171680843912317
23.119999999999997,4.275636985279782
23.16,4.375990271115519
23.2,4.472614596105488
23.24,4.565389752991489
23.28,4.65420121862625
23.32,4.738939990121242
23.36,4.8195024610862145
23.400000000000002,4.895790330003351
23.44,4.967710534367312
23.479999999999997,5.035175205465297
23.519999999999996,5.098101639649738
23.56,5.156412282732004
23.599999999999998,5.210034724744175
23.639999999999997,5.258901702812944
23.68,5.30295111029138
23.72,5.342126010621689
23.759999999999998,5.376374654670664
23.8,5.4056505005021735
23.84,5.429912234737208
23.88,5.449123794809793
23.92,5.463254391562367
23.96,5.4722785317426945
23.999999999999996,5.476176040069493
24.04,5.4749320806301816
24.08,5.4685371774638885
24.119999999999997,5.456987234269638
24.16,5.44028355326553
24.2,5.418432853313227
24.24,5.39144728751527
24.28,5.359344460594251
24.32,5.322147446476253
24.36,5.279884806629796
24.400000000000002,5.232590609861696
24.439999999999998,5.180304454448062
24.479999999999997,5.123071493690451
24.52,5.060942466243309
24.56,4.993973732871823
24.599999999999998,4.922227321685479
24.64,4.845770984372353
24.68,4.764678266560483
24.72,4.679028596191323
24.759999999999998,4.588907394754718
24.8,4.494406217469628
24.84,4.395622930087412
24.88,4.2926619320638
24.92,4.185634438555205
24.959999999999997,4.074658837271335
24.999999999999996,3.959861140975502
25.04,3.8413755628128126
25.08,3.7193452503004782
25.119999999999997,3.5939232256473685
25.16,3.4652735964098564
25.2,3.333573123286687
25.24,3.1990132639988507
25.28,3.06180285802564
25.32,2.9221716830396693
25.36,2.780375210237659
25.4,2.636701027866835
25.439999999999998,2.4914776140673878
25.479999999999997,2.34508645886658
25.52,2.1979790180253
25.56,2.05070071465445
25.599999999999998,1.9039253109098053
25.64,1.7585046038978769
25.68,1.615540670909714
25.72,1.4764906079704174
25.76,1.3433155374812829
25.8,1.218681850883925
25.84,1.1062000049474192
25.880000000000003,1.0106167072800643
25.919999999999998,0.9377290810897609
25.959999999999997,0.8936254128546307
25.999999999999996,0.8830195904350856
26.04,0.9073349420064062
26.08,0.964041274561775
26.119999999999997,1.0478783564167256
26.16,1.1528243435808474
26.2,1.2734697965088717
26.24,1.4055096106249982
26.28,1.545705362851657
26.32,1.6916672348210746
26.36,1.8416279012379395
26.4,1.9942619542159548
26.439999999999998,2.1485549490083815
26.479999999999997,2.3037120379492753
26.52,2.459095023275751
26.56,2.6141789754551126
26.599999999999998,2.768522129207609
26.64,2.9217447814902635
26.68,3.0735143292513705
26.72,3.2235345351884783
26.76,3.3715377383409924
26.8,3.5172791408070823
26.84,3.660532576220294
26.88,3.8010873486352557
26.919999999999998,3.938745853762945
26.959999999999997,4.073321778459792
27.0,4.204638732204585
27.04,4.332529204582401
27.08,4.456833771174585
27.119999999999997,4.577400490467178
27.16,4.694084448941059
27.2,4.806747422090653
27.24,4.915257626893227
27.28,5.019489547019526
27.32,5.119323816397373
27.36,5.214647150007806
27.4,5.305352313289211
27.439999999999998,5.3913381234498825
27.479999999999997,5.472509477491076
27.52,5.5487774029266435
27.56,5.620059128132603
27.599999999999998,5.686278170028188
27.64,5.7473644374248805
27.68,5.803254348914919
27.72,5.853890964632806
27.76,5.899224131632658
27.8,5.939210642997997
27.839999999999996,5.973814411152142
27.88,6.003006656178254
27.919999999999998,6.026766110298797
27.959999999999997,6.045079240013039
28.0,6.057940487757261
28.04,6.065352535343443
28.08,6.067326591855895
28.12,6.063882709150457
28.16,6.055050128614506
28.2,6.040867663417251
28.240000000000002,6.021384121116284
28.28,5.996658772196586
28.32,5.966761870909327
28.359999999999996,5.931775235656668
28.4,5.891792897138902
28.439999999999998,5.846921823542819
