Time (s),Filtered Signal
0.0,-0.06981343948878126
0.033370535714285714,-0.19725499338392627
0.06674107142857143,-0.27342697923943315
0.10011160714285713,-0.28107601201558513
0.13348214285714285,-0.24922721170042494
0.16685267857142858,-0.23832308155724058
0.20022321428571427,-0.30565621978054863
0.23359375,-0.4709608471852825
0.2669642857142857,-0.701771973607656
0.30033482142857143,-0.926549149258785
0.33370535714285715,-1.0677183162579493
0.36707589285714287,-1.0761547698677318
0.40044642857142854,-0.9491782167493682
0.43381696428571426,-0.7247969410144013
0.4671875,-0.4586272621518891
0.5005580357142857,-0.1982964828338204
0.5339285714285714,0.03106651206095841
0.5672991071428571,0.2254132358744038
0.6006696428571429,0.38959265142612703
0.6340401785714286,0.524687132606179
0.6674107142857143,0.6232109367476358
0.70078125,0.6739333563580455
0.7341517857142857,0.6715966469409101
0.7675223214285715,0.6242140175389703
0.8008928571428571,0.5528462748877713
0.8342633928571428,0.48378152836043
0.8676339285714285,0.43761073068026174
0.9010044642857142,0.4212315291141591
0.934375,0.42676605028004627
0.9677455357142857,0.4372713117995666
1.0011160714285714,0.4354881586559481
1.0344866071428571,0.4107314423837983
1.0678571428571428,0.3607815054234362
1.1012276785714286,0.2890127945335837
1.1345982142857143,0.19986783004143172
1.16796875,0.0964383905713596
1.2013392857142857,-0.017996069384078883
1.2347098214285714,-0.13586927298155255
1.2680803571428572,-0.24250060706935594
1.3014508928571429,-0.3182064637086526
1.3348214285714286,-0.3460416624940544
1.3681919642857143,-0.3217931367312017
1.4015625,-0.26036355978983605
1.4349330357142858,-0.19365664386894288
1.4683035714285715,-0.15927001052513778
1.5016741071428572,-0.18445842659102663
1.535044642857143,-0.27302770496804374
1.5684151785714286,-0.40212504723286974
1.6017857142857141,-0.5313915388210099
1.6351562499999999,-0.6207432657803603
1.6685267857142856,-0.6483078428315752
1.7018973214285713,-0.6194223144114703
1.735267857142857,-0.5617833145839735
1.7686383928571427,-0.5089400853793419
1.8020089285714285,-0.480646083667433
1.8353794642857142,-0.47059876250174776
1.86875,-0.44848737760512236
1.9021205357142856,-0.37581792303035344
1.9354910714285714,-0.2276187334501004
1.968861607142857,-0.008748255592610865
2.002232142857143,0.24405735307138088
2.0356026785714287,0.4761844331232763
2.0689732142857142,0.6387522480689629
2.10234375,0.7102135647773238
2.1357142857142857,0.704987717436432
2.169084821428571,0.6645538592835379
2.202455357142857,0.635383655135567
2.2358258928571426,0.644962592514116
2.2691964285714286,0.688251923166105
2.302566964285714,0.7315715916670215
2.3359375,0.7317643504318705
2.3693080357142855,0.6604202481082794
2.4026785714285714,0.5202337148423719
2.436049107142857,0.34475150552293155
2.469419642857143,0.18164790560774538
2.5027901785714284,0.06846756034007848
2.5361607142857143,0.01379150758900358
2.56953125,-0.006093429223885684
2.6029017857142858,-0.03314211643825574
2.6362723214285713,-0.10344628664166888
2.669642857142857,-0.2258266114398134
2.7030133928571427,-0.37463451593786934
2.7363839285714286,-0.5009373855032173
2.769754464285714,-0.5566014585272084
2.803125,-0.5189410189321819
2.8364955357142856,-0.40329285530665027
2.8698660714285715,-0.257256217561087
2.903236607142857,-0.1398355742286391
2.936607142857143,-0.09611515660645513
2.9699776785714285,-0.13958005200529428
3.0033482142857144,-0.2494824200722354
3.03671875,-0.38279800706461153
3.070089285714286,-0.4936814787241318
3.1034598214285714,-0.551020656674803
3.1368303571428573,-0.5471139953693924
3.170200892857143,-0.49560484082876377
3.2035714285714283,-0.4216408338875154
3.2369419642857142,-0.34965780596909823
3.2703124999999997,-0.2938191629350149
3.3036830357142857,-0.25400382526108467
3.337053571428571,-0.2177449689683604
3.370424107142857,-0.16660704083456554
3.4037946428571426,-0.0844119944565142
3.4371651785714286,0.035579658463217714
3.470535714285714,0.18702102993066874
3.50390625,0.35174199619111896
3.5372767857142855,0.5056157156032621
3.5706473214285714,0.6268839036127152
3.604017857142857,0.7035286144295712
3.637388392857143,0.7363458713496872
3.6707589285714284,0.736118010403346
3.7041294642857143,0.7161678683483766
3.7375,0.684203010863505
3.7708705357142858,0.6381014705216398
3.8042410714285713,0.5683812877828117
3.837611607142857,0.46633631528822866
3.8709821428571427,0.3332991348154986
3.9043526785714286,0.1853496874168535
3.937723214285714,0.04986679967440734
3.97109375,-0.045380497107082744
4.004464285714286,-0.08565888488985005
4.0378348214285715,-0.07838161150557806
4.0712053571428575,-0.052660508490311495
4.1045758928571425,-0.0484694549974185
4.1379464285714285,-0.09969006740222036
4.171316964285714,-0.21852024351032595
4.2046875,-0.3883669081793064
4.238058035714285,-0.5685665798552616
4.271428571428571,-0.7089984955182566
4.304799107142857,-0.7684685795849753
4.338169642857142,-0.7294854185587772
4.371540178571428,-0.6039585887457894
4.404910714285714,-0.42822985442686123
4.43828125,-0.24991178848672796
4.471651785714285,-0.11174064520670024
4.505022321428571,-0.03827816733633905
4.538392857142857,-0.02984745649191841
4.571763392857143,-0.06522142634730144
4.605133928571428,-0.11136289726373261
4.638504464285714,-0.1361223993701661
4.671875,-0.11912341855582764
4.705245535714286,-0.05728559888120157
4.738616071428571,0.036121189500754367
4.771986607142857,0.137527253807643
4.805357142857143,0.221396091629839
4.838727678571429,0.267939755484155
4.872098214285714,0.2682555146935537
4.90546875,0.2261686934796718
4.938839285714286,0.15700709977270413
4.972209821428572,0.08391843244078144
5.005580357142857,0.032345548577049195
5.038950892857143,0.023359968258430692
5.072321428571429,0.06711243648744375
5.105691964285715,0.15852360841521815
5.1390625,0.2776365428296373
5.172433035714286,0.3958056151704153
5.2058035714285715,0.4860694909526449
5.2391741071428575,0.5331091532308734
5.2725446428571425,0.5373547753975597
5.3059151785714285,0.5103887695861701
5.339285714285714,0.4638416691888357
5.3726562499999995,0.3984941944572907
5.406026785714285,0.3011141481097772
5.439397321428571,0.15258755360618406
5.472767857142857,-0.05589021495406484
5.506138392857142,-0.307497102272025
5.539508928571428,-0.5553629312782158
5.572879464285714,-0.734489322412968
5.60625,-0.7872218888237217
5.639620535714285,-0.6916454242268636
5.672991071428571,-0.47894791054728614
5.706361607142857,-0.22917530533678845
5.739732142857143,-0.04393903140232655
5.773102678571428,-0.005652400340540913
5.806473214285714,-0.14051096357605103
5.83984375,-0.4025394667532558
5.873214285714286,-0.6877630941475715
5.906584821428571,-0.8741995296952078
5.939955357142857,-0.8710808649914432
5.973325892857143,-0.6556852123575804
6.006696428571429,-0.2813560594285026
6.040066964285714,0.1464139776788787
6.0734375,0.5140535039701906
6.106808035714286,0.7434215467025825
6.140178571428572,0.8155752041787692
6.173549107142857,0.7664813902153146
6.206919642857143,0.6604747802859021
6.240290178571429,0.5571333235660656
6.273660714285715,0.4881447907826485
6.30703125,0.4531326615172511
6.340401785714286,0.4322776270148809
6.3737723214285715,0.4052674515245273
6.407142857142857,0.36471590887693356
6.4405133928571425,0.31751063586336703
6.4738839285714285,0.27571042418336544
6.507254464285714,0.24466515507007155
6.5406249999999995,0.21680856663842565
6.573995535714285,0.175212617204349
6.607366071428571,0.10448699700700093
6.640736607142857,0.0018962273238504403
6.674107142857142,-0.11868227571277976
6.707477678571428,-0.23308784777392366
6.740848214285714,-0.32037833688728684
6.77421875,-0.37576000401701554
6.807589285714285,-0.4149255711523561
6.840959821428571,-0.46619617793539986
6.874330357142857,-0.5536689459665208
6.907700892857143,-0.6800328648482369
6.941071428571428,-0.8187078860147918
6.974441964285714,-0.920726819684184
7.0078125,-0.9343855104114009
7.041183035714286,-0.8289422691147165
7.074553571428571,-0.6110877471488331
7.107924107142857,-0.3259399108014735
7.141294642857143,-0.04148238452442984
7.174665178571429,0.1769262305163743
7.208035714285714,0.2909061801155772
7.24140625,0.3020716394504198
7.274776785714286,0.24892544140034323
7.308147321428572,0.18989879022030526
7.341517857142857,0.18010673929215687
7.374888392857143,0.25092647483012287
7.408258928571429,0.399357008455538
7.441629464285715,0.5899393706557109
7.475,0.767745708772292
7.508370535714286,0.8777834916974171
7.5417410714285715,0.8844464757115398
7.575111607142857,0.7844472945336025
7.6084821428571425,0.6082692060741955
7.6418526785714285,0.4087965811685214
7.675223214285714,0.24077565745415969
7.7085937499999995,0.1391905320440031
7.741964285714285,0.10602636127509206
7.775334821428571,0.11177218136832902
7.808705357142857,0.11128286150686273
7.842075892857142,0.0664784182631944
7.875446428571428,-0.03529620389475039
7.908816964285714,-0.17632678868506094
7.9421875,-0.3191118460248348
7.975558035714285,-0.42647218126256986
8.008928571428571,-0.4803669461653902
8.042299107142856,-0.48962312372804784
8.075669642857143,-0.48294080324827254
8.109040178571428,-0.49136407423653405
8.142410714285715,-0.5297542977378319
8.17578125,-0.5870364107969065
8.209151785714285,-0.6302149476439618
8.242522321428572,-0.6199898096497826
8.275892857142857,-0.5299755282260498
8.309263392857142,-0.36000257940299785
8.342633928571429,-0.13738893010538109
8.376004464285714,0.09365136693008068
8.409375,0.2887000302335802
8.442745535714286,0.4181041267539674
8.47611607142857,0.47436545630677435
8.509486607142858,0.4702868304780052
8.542857142857143,0.4301562541384621
8.576227678571428,0.378408282339486
8.609598214285715,0.33039125503224553
8.64296875,0.28857128349289174
8.676339285714285,0.24520327252360646
8.709709821428572,0.18973883100971628
8.743080357142857,0.11698586204617803
8.776450892857143,0.03152564595062064
8.809821428571428,-0.05418796630193665
8.843191964285714,-0.1269805518074416
8.8765625,-0.18095452664618789
8.909933035714285,-0.22106976851828503
8.94330357142857,-0.2594818665382543
8.976674107142857,-0.30626450941863126
9.010044642857142,-0.35993747566616985
9.04341517857143,-0.40394933972557273
9.076785714285714,-0.41228364933924455
9.11015625,-0.3622137455600075
9.143526785714286,-0.24778937786193356
9.176897321428571,-0.0864910773362659
9.210267857142856,0.08547856211502051
9.243638392857143,0.22796332372050046
9.277008928571428,0.31477677685200156
9.310379464285715,0.3456420609484507
9.34375,0.34560920847748827
9.377120535714285,0.35166962067434177
9.410491071428572,0.3929257475671786
9.443861607142857,0.47414463745372226
9.477232142857142,0.5710093240484266
9.510602678571429,0.6397117729063029
9.543973214285714,0.6365797449429332
9.57734375,0.5385574202619561
9.610714285714286,0.35484440915654825
9.64408482142857,0.12410725880207724
9.677455357142858,-0.10143457719944556
9.710825892857143,-0.2773339511225718
9.744196428571428,-0.38325823405312764
9.777566964285715,-0.42658674762158383
9.8109375,-0.4322622254224622
9.844308035714285,-0.42521839677343914
9.877678571428572,-0.4155484388478391
9.911049107142857,-0.394766541738864
9.944419642857143,-0.3450334734395844
9.977790178571428,-0.2556590667016686
10.011160714285714,-0.1367608719225975
10.04453125,-0.021185246192434285
10.077901785714285,0.047827121338361145
10.11127232142857,0.03760676105907508
10.144642857142857,-0.055355644085277364
10.178013392857142,-0.1996500562678242
10.21138392857143,-0.3400561328791859
10.244754464285714,-0.4207256128274297
10.278125,-0.4092783177470665
10.311495535714286,-0.3102336271426955
10.344866071428571,-0.16177583307649793
10.378236607142856,-0.01814369908177254
10.411607142857143,0.07356473710534382
10.444977678571428,0.09174788310191245
10.478348214285715,0.04676151025419696
10.51171875,-0.025610176403664413
10.545089285714285,-0.07942483001005787
10.578459821428572,-0.0758046439254984
10.611830357142857,0.004079881125282987
10.645200892857142,0.1538413707500831
10.678571428571429,0.3449972818654529
10.711941964285714,0.53635982704682
10.745312499999999,0.6862259233351744
10.778683035714286,0.7635648492142851
10.81205357142857,0.7550961569914812
10.845424107142858,0.6666519693641486
10.878794642857143,0.5190923598079878
10.912165178571428,0.3407080924662059
10.945535714285715,0.15896647835731256
10.97890625,-0.005659963830452729
11.012276785714285,-0.1421325532440737
11.045647321428572,-0.24753753764224962
11.079017857142857,-0.32352092478087274
11.112388392857143,-0.3726889210757015
11.145758928571428,-0.39681413014636346
11.179129464285714,-0.3973786321813546
11.2125,-0.37744465106612746
11.245870535714285,-0.34297813261562
11.27924107142857,-0.30214452899519395
11.312611607142857,-0.26255639236781014
11.345982142857142,-0.2280287771053907
11.37935267857143,-0.1969830411920727
11.412723214285714,-0.16375979930147347
11.44609375,-0.12229761715904988
11.479464285714286,-0.07010283012656525
11.512834821428571,-0.010196299985664825
11.546205357142856,0.05008093301851192
11.579575892857143,0.1026801441802412
11.612946428571428,0.1428129196088012
11.646316964285715,0.17111311935247242
11.6796875,0.19290274409871128
11.713058035714285,0.21500287970612525
11.746428571428572,0.24169203280255588
11.779799107142857,0.27171987958173965
11.813169642857142,0.29774199247131616
11.846540178571429,0.30850071448349836
11.879910714285714,0.2929768005373317
11.913281249999999,0.2449292954613815
11.946651785714286,0.1659660190735687
11.98002232142857,0.06568767357466063
12.013392857142858,-0.04147859549472915
12.046763392857143,-0.14167534878213894
12.080133928571428,-0.22691088659546846
12.113504464285715,-0.2976203210095154
12.146875,-0.3608892229016091
12.180245535714285,-0.42477998778094206
12.213616071428572,-0.49126826790929434
12.246986607142857,-0.5512924700974136
12.280357142857143,-0.5847764341999574
12.313727678571428,-0.566453588547299
12.347098214285714,-0.4757876574326238
12.38046875,-0.30732450644554354
12.413839285714285,-0.07722185285285778
12.44720982142857,0.17726265535040903
12.480580357142857,0.4062117516905813
12.513950892857142,0.561407705326535
12.54732142857143,0.6120871385393806
12.580691964285714,0.5563910912310489
12.6140625,0.4236574507515849
12.647433035714286,0.2656424693680779
12.680803571428571,0.13896504785491068
12.714174107142856,0.08491710577514275
12.747544642857143,0.11446077908656947
12.780915178571428,0.20466160761254562
12.814285714285713,0.3083596847302864
12.84765625,0.3733718498759661
12.881026785714285,0.3634024223024838
12.914397321428572,0.27203839670402896
12.947767857142857,0.12415902366451402
12.981138392857142,-0.03547774796517955
13.014508928571429,-0.16121089416375772
13.047879464285714,-0.22463240997878436
13.081249999999999,-0.22418226128049634
13.114620535714286,-0.18253941765885526
13.14799107142857,-0.13382861974529944
13.181361607142858,-0.10721628682986604
13.214732142857143,-0.11473616075648295
13.248102678571428,-0.1486191058465469
13.281473214285715,-0.18841517019288317
13.31484375,-0.21340399745235317
13.348214285714285,-0.21357723386352004
13.381584821428572,-0.19376459607158245
13.414955357142857,-0.16936655373663626
13.448325892857143,-0.1565406547270454
13.481696428571428,-0.16236626336191945
13.515066964285714,-0.1802525319651842
13.5484375,-0.19292652269151364
13.581808035714285,-0.18132851563516414
13.61517857142857,-0.134743353314033
13.648549107142857,-0.05703054736089985
13.681919642857142,0.03399894149860541
13.71529017857143,0.11352228157830797
13.748660714285714,0.159601685738465
13.78203125,0.16185523287162076
13.815401785714286,0.12581455314548923
13.848772321428571,0.07175996173467719
13.882142857142856,0.028406594963012902
13.915513392857143,0.02292335192089472
13.948883928571428,0.06986183753559676
13.982254464285713,0.16275650496708702
14.015625,0.2725764821016254
14.048995535714285,0.35563884460180756
14.082366071428572,0.3697569843980043
14.115736607142857,0.29279415359936
14.149107142857142,0.13513164861709445
14.182477678571429,-0.060945840758957336
14.215848214285714,-0.23628542823203466
14.249218749999999,-0.33845011540917974
14.282589285714286,-0.3431667753604938
14.31595982142857,-0.26346458146820395
14.349330357142858,-0.14217700701312513
14.382700892857143,-0.03160943099725739
14.416071428571428,0.029749289767262616
14.449441964285715,0.03264335763754743
14.4828125,-0.0018969352596655217
14.516183035714285,-0.03530832303650322
14.549553571428572,-0.031352126887706014
14.582924107142857,0.026183102307302166
14.616294642857143,0.12552623870808025
14.649665178571428,0.2316756904993337
14.683035714285714,0.3014166542092757
14.71640625,0.30208669868384647
14.749776785714285,0.2261906031537944
14.78314732142857,0.0956706618266707
14.816517857142857,-0.04617333554513267
14.849888392857142,-0.1519552227182496
14.88325892857143,-0.18941867028242962
14.916629464285714,-0.15423302977051562
14.95,-0.0706484549268444
14.983370535714286,0.020245125133785728
15.016741071428571,0.07913178342088766
15.050111607142856,0.08524208673570757
15.083482142857143,0.043662386560042656
15.116852678571428,-0.01962371886209529
15.150223214285713,-0.07177574899714378
15.18359375,-0.0889630197141003
15.216964285714285,-0.06656388913383701
15.250334821428572,-0.01958222255244014
15.283705357142857,0.025859381557906947
15.317075892857142,0.04510386232784519
15.350446428571429,0.02555566035023409
15.383816964285714,-0.029053260895135026
15.417187499999999,-0.10169577114264469
15.450558035714286,-0.17018269742198566
15.48392857142857,-0.21654564454564937
15.517299107142858,-0.23388251613029565
15.550669642857143,-0.2281075771204652
15.584040178571428,-0.21387961227955068
15.617410714285715,-0.20614689043322829
15.65078125,-0.21086116958059226
15.684151785714285,-0.21953307363746843
15.717522321428572,-0.21129163181948898
15.750892857142857,-0.1627296800110431
15.784263392857143,-0.06146238547728611
15.817633928571428,0.08350776550365777
15.851004464285714,0.24084394385724703
15.884375,0.3672921812427442
15.917745535714285,0.42556727371650727
15.95111607142857,0.40146339278373044
15.984486607142857,0.3115385053657775
16.017857142857142,0.19680154432695693
16.05122767857143,0.10465756240133685
16.084598214285712,0.06759449230321592
16.11796875,0.08931372304830618
16.151339285714286,0.14557361865101656
16.18470982142857,0.1992949426429604
16.218080357142856,0.2215341924193692
16.251450892857143,0.20643206855973695
16.28482142857143,0.17158608784381768
16.318191964285713,0.14382884078508665
16.3515625,0.1391500526418258
16.384933035714287,0.14917782466920881
16.41830357142857,0.14292661652962413
16.451674107142857,0.08359072632245795
16.485044642857144,-0.04870689330479288
16.518415178571427,-0.24096019142636624
16.551785714285714,-0.4473421171441173
16.58515625,-0.6059772526111101
16.618526785714284,-0.6644403307443448
16.65189732142857,-0.6017815578380623
16.685267857142858,-0.43701570394425077
16.71863839285714,-0.22091890441467418
16.752008928571428,-0.015803877330332883
16.785379464285715,0.1272021760179556
16.81875,0.18393606494616885
16.852120535714285,0.16090290607620855
16.88549107142857,0.08763892147121256
16.91886160714286,0.0028768979277961552
16.95223214285714,-0.059126954934221265
16.98560267857143,-0.07753479985174368
17.018973214285715,-0.047723383655011484
17.05234375,0.020841002000885706
17.085714285714285,0.10936393110042554
17.119084821428572,0.19523319791210808
17.152455357142856,0.257344674079235
17.185825892857142,0.28089561653247686
17.21919642857143,0.26116299315380664
17.252566964285712,0.20527120092639667
17.2859375,0.13075984705488805
17.319308035714286,0.06043020154371715
17.35267857142857,0.014468195486448517
17.386049107142856,0.00254788226454007
17.419419642857143,0.019453517732593417
17.45279017857143,0.04685365209279407
17.486160714285713,0.061212956467187926
17.51953125,0.044593586538066395
17.552901785714287,-0.006872892924106427
17.58627232142857,-0.08134073365501925
17.619642857142857,-0.15756009463374998
17.653013392857144,-0.21595572003331068
