Frequency (Hz),Amplitude
0.0,0.27854454902449444
0.01978021978021978,0.3234971490172841
0.03956043956043956,0.43096804893781415
0.05934065934065934,0.5661411082848367
0.07912087912087912,0.7130670217153233
0.0989010989010989,0.8653537300909026
0.11868131868131868,1.0201388170536814
0.13846153846153844,1.1759461994577303
0.15824175824175823,1.3319097066521481
0.17802197802197803,1.4874606833173014
0.1978021978021978,1.6421886469962166
0.21758241758241756,1.7957734600400979
0.23736263736263735,1.9479498488737812
0.2571428571428572,2.0984877139554667
0.2769230769230769,2.2471806579909446
0.2967032967032967,2.393839029025968
0.31648351648351647,2.538285560756698
0.3362637362637363,2.6803525671334443
0.35604395604395606,2.8198800994441515
0.3758241758241758,2.9567147173564705
0.3956043956043956,3.09070866185946
0.4153846153846154,3.221719297284013
0.4351648351648351,3.349608737029799
0.45494505494505494,3.474243596831504
0.4747252747252747,3.595494837824471
0.4945054945054945,3.713237673558798
0.5142857142857143,3.827351522940233
0.5340659340659341,3.9377199963280045
0.5538461538461538,4.0442309056035075
0.5736263736263736,4.14677629150781
0.5934065934065934,4.245252463293319
0.6131868131868132,4.339560046980357
0.6329670329670329,4.429604039408945
0.6527472527472528,4.5152938659334
0.6725274725274726,4.596543440092744
0.6923076923076923,4.673271223953132
0.7120879120879121,4.745400288092288
0.7318681318681318,4.812858370404839
0.7516483516483516,4.875577933068523
0.7714285714285715,4.933496217136288
0.7912087912087912,4.986555294317951
0.810989010989011,5.034702115593032
0.8307692307692308,5.0778885563593334
0.8505494505494506,5.116071457872656
0.8703296703296702,5.149212664775031
0.8901098901098901,5.177279058543572
0.9098901098901099,5.20024258672175
0.9296703296703297,5.218080287819795
0.9494505494505494,5.230774311793321
0.9692307692307692,5.23831193602847
0.989010989010989,5.240685576779814
1.0087912087912088,5.237892796023432
1.0285714285714287,5.229936303703077
1.0483516483516484,5.2168239553622735
1.0681318681318681,5.198568745169891
1.087912087912088,5.175188794361637
1.1076923076923075,5.14670733513549
1.1274725274725275,5.11315269005539
1.1472527472527472,5.074558247035301
1.1670329670329669,5.030962429995426
1.1868131868131868,4.982408665304537
1.2065934065934065,4.928945344147743
1.2263736263736265,4.870625780988893
1.2461538461538462,4.80750816833179
1.2659340659340659,4.739655528026977
1.2857142857142858,4.667135659422219
1.3054945054945055,4.590021084718439
1.3252747252747252,4.508388991972021
1.3450549450549452,4.422321176284317
1.3648351648351649,4.331903979846164
1.3846153846153846,4.237228231668903
1.4043956043956045,4.138389188045622
1.4241758241758242,4.035486475065354
1.443956043956044,3.928624034872472
1.4637362637362636,3.8179100778587958
1.4835164835164834,3.7034570436469694
1.5032967032967033,3.585381574642441
1.523076923076923,3.463804507206076
1.542857142857143,3.338850887289128
1.5626373626373626,3.2106500199204024
1.5824175824175823,3.0793355656172037
1.6021978021978023,2.9450457021953587
1.621978021978022,2.8079233785233124
1.6417582417582417,2.668116699043415
1.6615384615384616,2.5257794969529983
1.6813186813186813,2.381072184231625
1.7010989010989013,2.234163016045506
1.720879120879121,2.085229989702451
1.7406593406593405,1.9344637411196626
1.7604395604395604,1.7820720572792639
1.7802197802197801,1.628287098917311
1.7999999999999998,1.4733773547374165
1.8197802197802198,1.3176682516665414
1.8395604395604395,1.1615794967751814
1.8593406593406594,1.0056969414412682
1.879120879120879,0.8509214358510182
1.8989010989010988,0.6988059541397464
1.9186813186813187,0.5524036179365194
1.9384615384615385,0.41863539901783414
1.9582417582417584,0.31490479435042373
1.978021978021978,0.27781859246230256
1.9978021978021978,0.33075865566863905
2.0175824175824175,0.4423758939770865
2.0373626373626372,0.5794237671857796
2.0571428571428574,0.7272953828565838
2.076923076923077,0.8801233167643381
2.096703296703297,1.035249083040323
2.1164835164835165,1.1912847107754405
2.1362637362637362,1.3474063394830265
2.1560439560439564,1.5030675120741925
2.175824175824176,1.657870263498329
2.195604395604396,1.8115019428158297
2.215384615384615,1.9637019779056912
2.2351648351648348,2.1142433452649727
2.254945054945055,2.262921732415322
2.2747252747252746,2.4095489449928063
2.2945054945054943,2.5539487648611514
2.314285714285714,2.6959542798316956
2.3340659340659338,2.835406127255031
2.353846153846154,2.9721513220115443
2.3736263736263736,3.106042467878651
2.3934065934065933,3.2369372260559715
2.413186813186813,3.364697959539557
2.4329670329670328,3.4891914997434745
2.452747252747253,3.610288999286299
2.4725274725274726,3.7278658461852157
2.4923076923076923,3.841801622171317
2.512087912087912,3.951980092859287
2.5318681318681318,4.058289220935021
2.5516483516483515,4.160621195905934
2.5714285714285716,4.25887247563559
2.5912087912087913,4.352943836081086
2.610989010989011,4.442740426517181
2.6307692307692307,4.5281718281637096
2.6505494505494505,4.609152114601361
2.6703296703296706,4.68559991271098
2.6901098901098903,4.757438463136064
2.70989010989011,4.824595679470306
2.7296703296703297,4.887004205527762
2.7494505494505495,4.944601470174351
2.769230769230769,4.997329739295181
2.7890109890109893,5.045136164547818
2.808791208791209,5.087972828612691
2.8285714285714287,5.125796786701428
2.8483516483516484,5.158570104124724
2.8681318681318677,5.186259889755354
2.887912087912088,5.208838325250605
2.9076923076923076,5.22628268992337
2.9274725274725273,5.238575381172343
2.947252747252747,5.245703930401297
2.9670329670329667,5.247661014374588
2.986813186813187,5.244444461972122
3.0065934065934066,5.236057256322372
3.0263736263736263,5.222507532306603
3.046153846153846,5.203808569442113
3.0659340659340657,5.179978780167073
3.085714285714286,5.151041693564832
3.1054945054945056,5.117025934581773
3.1252747252747253,5.077965198810526
3.145054945054945,5.033898222929819
3.1648351648351647,4.984868750914029
3.184615384615385,4.930925496151257
3.2043956043956046,4.872122099637589
3.2241758241758243,4.80851708445085
3.243956043956044,4.740173806748816
3.2637362637362637,4.667160403588259
3.2835164835164834,4.589549737924417
3.3032967032967036,4.507419341229446
3.3230769230769233,4.420851354267646
3.342857142857143,4.329932466692199
3.3626373626373627,4.234753856291175
3.3824175824175824,4.135411128922691
3.4021978021978025,4.0320042604576605
3.4219780219780223,3.924637542418513
3.441758241758242,3.813419533497758
3.4615384615384617,3.6984630198131656
3.481318681318681,3.579884987678082
3.501098901098901,3.4578066139460444
3.520879120879121,3.332353280789485
3.5406593406593405,3.2036546243392756
3.5604395604395602,3.071844630327066
3.58021978021978,2.9370617953345204
3.5999999999999996,2.799449380425613
3.61978021978022,2.659155796398349
3.6395604395604395,2.516335179288369
3.659340659340659,2.3711482456489614
3.679120879120879,2.223763567594069
3.6989010989010986,2.0743594923774835
3.718681318681319,1.923127078309071
3.7384615384615385,1.7702746830049596
3.758241758241758,1.6160353342793148
3.7780219780219784,1.460678982573434
3.7978021978021976,1.30453373554127
3.8175824175824173,1.148024576064963
3.8373626373626375,0.9917484634093224
3.8571428571428568,0.836631444737957
3.876923076923077,0.68428902782238
3.896703296703296,0.5379474104372567
3.916483516483517,0.40506267041662775
3.936263736263736,0.30466489496136373
3.956043956043956,0.2755227321151704
3.9758241758241755,0.3367904194888615
3.9956043956043956,0.45301922103473863
4.015384615384615,0.5924143551309947
4.035164835164835,0.7416506957178869
4.054945054945055,0.8953889081472319
4.0747252747252745,1.0511876074507178
4.094505494505494,1.207757406801626
4.114285714285715,1.3643238443281056
4.134065934065934,1.520367331806298
4.153846153846154,1.6755055162454422
4.173626373626373,1.8294353107200754
4.193406593406594,1.9819022560372772
4.213186813186813,2.1326833713381803
4.232967032967033,2.2815770917824607
4.252747252747253,2.4283971316379667
4.2725274725274724,2.5729686215433185
4.292307692307692,2.7151256151513756
4.312087912087913,2.854709448316017
4.331868131868132,2.9915676446637662
4.351648351648352,3.1255531802884566
4.371428571428571,3.2565239897263387
4.391208791208792,3.3843426371435803
4.410989010989011,3.508876102495677
4.43076923076923,3.6299956487804947
4.450549450549451,3.7475767471028476
4.4703296703296695,3.8614990432694216
4.49010989010989,3.971646354344235
4.50989010989011,4.077906686818744
4.52967032967033,4.180172270291364
4.549450549450549,4.278339602131463
4.569230769230769,4.372309499731751
4.589010989010989,4.461987157770182
4.608791208791209,4.547282208500565
4.628571428571428,4.628108783534742
4.648351648351649,4.704385575910195
4.6681318681318675,4.7760359014884575
4.687912087912088,4.842987758921089
4.707692307692308,4.9051738875682505
4.7274725274725276,4.962531822870151
4.747252747252747,5.015003948762581
4.767032967032967,5.062537546800217
4.786813186813187,5.10508484170966
4.806593406593407,5.14260304314135
4.826373626373626,5.175054383428878
4.846153846153847,5.202406151196799
4.8659340659340655,5.224630720685563
4.885714285714286,5.241705576686169
4.905494505494506,5.253613334997912
4.9252747252747255,5.2603417583411325
4.945054945054945,5.2618837676737344
4.964835164835165,5.258237448875862
4.984615384615385,5.2494060547820505
5.004395604395604,5.235398002554206
5.024175824175824,5.2162268664034
5.043956043956045,5.191911365682448
5.0637362637362635,5.1624753483865735
5.083516483516483,5.127947770115032
5.103296703296703,5.0883626685639545
5.123076923076923,5.043759133639651
5.142857142857143,4.99418127330296
5.162637362637362,4.939678175280121
5.182417582417583,4.880303864804034
5.2021978021978015,4.816117258584356
5.221978021978022,4.747182115245309
5.241758241758242,4.673566982520595
5.2615384615384615,4.595345141555865
5.281318681318681,4.512594548746518
5.301098901098901,4.425397775635214
5.320879120879121,4.333841947517184
5.340659340659341,4.23801868156055
5.36043956043956,4.138024025456049
5.380219780219781,4.033958397882607
5.3999999999999995,3.9259265324369075
5.41978021978022,3.81403742716061
5.43956043956044,3.69840430245751
5.4593406593406595,3.5791445710981296
5.479120879120879,3.456379825266762
5.498901098901099,3.3302358473775926
5.518681318681319,3.20084265391598
5.538461538461538,3.0683345852276838
5.558241758241758,2.93285045958003
5.578021978021979,2.7945338179164687
5.5978021978021975,2.6535332981003457
5.617582417582418,2.5100031967548144
5.637362637362637,2.364104307649346
5.6571428571428575,2.216005176125752
5.676923076923077,2.065883994283711
5.696703296703297,1.9139315100437126
5.716483516483517,1.7603555911271225
5.736263736263735,1.6053885890400597
5.756043956043956,1.4492996422498676
5.775824175824176,1.2924161282253785
5.795604395604395,1.1351630691038108
5.815384615384615,0.9781402819327418
5.835164835164835,0.8222857269427662
5.854945054945055,0.6692561907327021
5.874725274725275,0.5224214767153075
5.894505494505494,0.38976936714168087
5.914285714285715,0.2922050602575793
5.934065934065933,0.27127840964578864
5.953846153846154,0.3414750682337795
5.973626373626374,0.4628903255420801
5.993406593406593,0.6051500257499964
6.013186813186813,0.7561982602798455
6.032967032967033,0.9112388208455374
6.052747252747253,1.0680634191115583
6.072527472527473,1.2254926242602904
6.092307692307692,1.3828088602041364
6.112087912087913,1.5395243062625195
6.131868131868131,1.6952754665071001
6.151648351648352,1.849771001275501
6.171428571428572,2.0027640526269903
6.191208791208791,2.154036705304928
6.210989010989011,2.303390846261186
6.230769230769231,2.450642579494102
6.2505494505494505,2.59561870647596
6.270329670329671,2.7381544534775264
6.29010989010989,2.8780919768878346
6.309890109890111,3.0152793680943204
6.329670329670329,3.14956998724366
6.349450549450549,3.2808220182589234
6.36923076923077,3.408898175511814
6.3890109890109885,3.533665516101611
6.408791208791209,3.6549953266389825
6.428571428571428,3.772763063127989
6.4483516483516485,3.886848328954698
6.468131868131868,3.997134880313876
6.487912087912088,4.103510651367068
6.507692307692308,4.205867793486921
6.527472527472527,4.304102724397494
6.547252747252747,4.39811618406137
6.567032967032967,4.487813294918453
6.5868131868131865,4.573103624634223
6.606593406593407,4.653901249924886
6.626373626373626,4.730124820334249
6.6461538461538465,4.801697621069373
6.665934065934065,4.868547634180406
6.685714285714286,4.9306075975071595
6.705494505494506,4.987815060922653
6.725274725274725,5.040112439488352
6.745054945054945,5.087447063203537
6.764835164835165,5.129771223085661
6.7846153846153845,5.167042213362866
6.804395604395605,5.199222369596828
6.824175824175824,5.226279102584391
6.8439560439560445,5.248184927913126
6.863736263736263,5.264917491067857
6.883516483516484,5.276459588005529
6.903296703296704,5.282799181133007
6.923076923076923,5.283929410638734
6.942857142857143,5.2798486011439865
6.962637362637362,5.270560263653707
6.9824175824175825,5.256073092800556
7.002197802197802,5.236400959389548
7.021978021978022,5.2115628982643925
7.041758241758242,5.1815830915310475
7.061538461538461,5.146490847189101
7.081318681318681,5.106320573238169
7.101098901098901,5.061111747344572
7.1208791208791204,5.010908882173984
7.140659340659341,4.955761486519276
7.16043956043956,4.895724022380063
7.1802197802197805,4.830855858182814
7.199999999999999,4.7612212183691165
7.21978021978022,4.686889129627294
7.23956043956044,4.607933364100397
7.259340659340659,4.524432379976852
7.279120879120879,4.436469259961078
7.298901098901099,4.3441316482389745
7.318681318681318,4.247511686703176
7.338461538461539,4.146705951399428
7.358241758241758,4.041815390413105
7.3780219780219785,3.932945264757777
7.397802197802197,3.8202050942883647
7.417582417582418,3.703708611287377
7.437362637362638,3.5835737252332267
7.457142857142857,3.459922503457851
7.476923076923077,3.3328811740901725
7.496703296703297,3.202580160099013
7.516483516483516,3.069154156758303
7.536263736263736,2.932742270037982
7.556043956043957,2.793488241207303
7.575824175824176,2.6515407948613925
7.595604395604395,2.5070541662420376
7.615384615384615,2.3601888936205055
7.635164835164835,2.211113010673942
7.654945054945055,2.060003857022754
7.674725274725275,1.9070508706986402
7.694505494505494,1.7524599906009557
7.7142857142857135,1.5964607973602736
7.734065934065935,1.4393185153198387
7.753846153846154,1.2813550882303275
7.7736263736263735,1.1229882321531777
7.793406593406592,0.9648087463462538
7.813186813186814,0.8077466074659186
7.832967032967034,0.6534658636145646
7.852747252747252,0.5054256326108548
7.872527472527472,0.37210772543182685
7.892307692307693,0.2766345004958378
7.912087912087912,0.2643989312589937
7.931868131868132,0.34445651052964726
7.951648351648351,0.47178808764138663
7.971428571428572,0.6175084028637381
7.991208791208791,0.7708697589871469
8.010989010989011,0.9276488315766541
8.03076923076923,1.085891193710607
8.05054945054945,1.2445407281902132
8.07032967032967,1.4029452505599458
8.09010989010989,1.560654205731621
8.10989010989011,1.7173265831502809
8.129670329670331,1.8726852315214935
8.149450549450549,2.026492561416363
8.169230769230769,2.1785368726088667
8.189010989010988,2.328624298166766
8.20879120879121,2.47657387719218
8.22857142857143,2.6222144493961927
8.248351648351647,2.765382651672535
8.268131868131867,2.905921603494976
8.287912087912087,3.0436800352986424
8.307692307692308,3.178511708862824
8.327472527472528,3.31027503432429
8.347252747252746,3.438832822042321
8.367032967032966,3.564052128378538
8.386813186813187,3.6858041677006614
8.406593406593407,3.8039642715235584
8.426373626373627,3.918411881401389
8.446153846153845,4.02903056603133
8.465934065934066,4.135708055667452
8.485714285714286,4.238336288781996
8.505494505494505,4.336811467209915
8.525274725274725,4.431034116943093
8.545054945054945,4.5209091524152765
8.564835164835165,4.606345942613758
8.584615384615384,4.687258377721319
8.604395604395604,4.763564935267711
8.624175824175826,4.835188744978758
8.643956043956043,4.902057651671647
8.663736263736263,4.9641042756684595
8.683516483516483,5.021266070297415
8.703296703296704,5.073485376127569
8.723076923076924,5.1207094716441794
8.742857142857142,5.162890620121264
8.762637362637362,5.19998611248848
8.782417582417583,5.2319583060230155
8.802197802197803,5.258774658725287
8.821978021978023,5.280407759261263
8.84175824175824,5.296835352375161
8.86153846153846,5.308040359694419
8.881318681318682,5.314010895865409
8.901098901098901,5.314740279973178
8.920879120879121,5.310227042212681
8.940659340659339,5.300474925792071
8.96043956043956,5.285492884061598
8.98021978021978,5.2652950728743715
9.0,5.239900838198273
9.01978021978022,5.209334699011617
9.03956043956044,5.173626325529439
9.05934065934066,5.132810512822293
9.079120879120879,5.086927149906715
9.098901098901099,5.0360211844048335
9.11868131868132,4.980142582892615
9.138461538461538,4.919346287080874
9.158241758241758,4.853692166002932
9.178021978021977,4.783244964418174
9.197802197802199,4.708074247683407
9.217582417582419,4.628254343397177
9.237362637362637,4.543864280187668
9.257142857142856,4.454987724097958
9.276923076923078,4.361712913127881
9.296703296703297,4.264132590628029
9.316483516483517,4.162343938418498
9.336263736263735,4.056448510738235
9.356043956043957,3.946552170440952
9.375824175824176,3.832765029270618
9.395604395604396,3.7152013946170404
9.415384615384616,3.5939797259328206
9.435164835164835,3.469222605081706
9.454945054945055,3.341056726426052
9.474725274725275,3.2096129146644246
9.494505494505495,3.0750261816361344
9.514285714285714,2.9374358380517442
9.534065934065934,2.7969856832507034
9.553846153846154,2.6538243070588523
9.573626373626373,2.5081055550395748
9.593406593406593,2.3599892361182024
9.613186813186815,2.209642197264805
9.632967032967032,2.057239967647511
9.652747252747252,1.9029693113395454
9.672527472527472,1.7470322772487208
9.692307692307693,1.589652810877377
9.712087912087913,1.431087946532651
9.731868131868131,1.2716476253498885
9.75164835164835,1.111731795179057
9.771428571428572,0.9519048273015633
9.791208791208792,0.7930582487866833
9.810989010989012,0.6368074726758445
9.83076923076923,0.48659860153334694
9.850549450549451,0.3512793918988419
9.87032967032967,0.25662171744574275
9.89010989010989,0.2537795645253874
9.90989010989011,0.34507547397982774
9.92967032967033,0.47925332299027756
9.94945054945055,0.6291366688694496
9.96923076923077,0.7853878130074222
9.989010989010989,0.9444041276117002
10.008791208791209,1.1045119832912604
10.028571428571428,1.2647945869024402
10.048351648351648,1.4246750181976053
10.068131868131868,1.583746281211388
10.08791208791209,1.7416939796276478
10.107692307692307,1.8982579225209046
10.127472527472527,2.0532116817463923
10.147252747252747,2.2063510778441917
10.167032967032966,2.3574873932389444
10.186813186813188,2.5064432228975475
10.206593406593406,2.6530498632041986
10.226373626373626,2.797145632621431
10.246153846153845,2.9385747755141565
10.265934065934067,3.0771867413905785
10.285714285714286,3.212835711784739
10.305494505494504,3.3453802939535215
10.325274725274724,3.4746833289576564
10.345054945054946,3.600611779336627
10.364835164835165,3.7230366728124515
10.384615384615385,3.841833085756738
10.404395604395603,3.9568801549973407
10.424175824175824,4.068061109810908
10.443956043956044,4.175263318193349
10.463736263736264,4.278378343066238
10.483516483516484,4.377302005184975
10.503296703296703,4.471934450308618
10.523076923076923,4.5621802187679545
10.542857142857143,4.647948315991714
10.562637362637362,4.729152282865786
10.582417582417584,4.805710265036485
10.602197802197802,4.877545080448649
10.621978021978022,4.944584284547041
10.641758241758241,5.006760232676349
10.661538461538463,5.064010139298936
10.681318681318682,5.11627613371585
10.7010989010989,5.163505312029771
10.72087912087912,5.2056497851318175
10.740659340659342,5.242666722529491
