Time (s),Filtered Signal
0.0,0.015975939351920234
0.03337028824833703,0.14661171659690628
0.06674057649667406,0.12755378667108994
0.10011086474501109,-0.11652444704354722
0.13348115299334812,-0.5463994297183198
0.16685144124168516,-1.0192958941581713
0.20022172949002218,-1.3465233742104294
0.2335920177383592,-1.3722956349724036
0.26696230598669624,-1.0394976594093157
0.3003325942350333,-0.414621630563817
0.3337028824833703,0.3375060574456719
0.3670731707317073,1.016699850074973
0.40044345898004435,1.4600920489065594
0.4338137472283814,1.594198686114163
0.4671840354767184,1.4473514377277132
0.5005543237250555,1.1222729310630535
0.5339246119733925,0.7455781675836852
0.5672949002217295,0.41854467229759157
0.6006651884700666,0.18919583283063876
0.6340354767184035,0.052978254864637274
0.6674057649667406,-0.024949133253760015
0.7007760532150776,-0.08159367787512078
0.7341463414634146,-0.1375960993036008
0.7675166297117517,-0.19541062352428815
0.8008869179600887,-0.25040432856123945
0.8342572062084257,-0.30393048759033275
0.8676274944567628,-0.3678340921433076
0.9009977827050998,-0.4568739517048204
0.9343680709534368,-0.574342545459116
0.9677383592017739,-0.7011367960910634
1.001108647450111,-0.7967944478587078
1.0344789356984478,-0.813930313177878
1.067849223946785,-0.7195416095389683
1.101219512195122,-0.5124589544706096
1.134589800443459,-0.2279759097026287
1.167960088691796,0.07286139001279215
1.2013303769401331,0.3243372831687529
1.23470066518847,0.4779308394681301
1.268070953436807,0.5157346549930691
1.3014412416851442,0.4509951081386877
1.3348115299334813,0.31779876509127913
1.3681818181818182,0.15661548929884211
1.4015521064301553,0.0030202837687940804
1.4349223946784924,-0.11652536083645804
1.4682926829268292,-0.1831514287906511
1.5016629711751663,-0.18333476142782115
1.5350332594235034,-0.11080386758344901
1.5684035476718403,0.02654062658496026
1.6017738359201774,0.1992117982367807
1.6351441241685145,0.3558244709539975
1.6685144124168514,0.4354963865401085
1.7018847006651885,0.39168307943275515
1.7352549889135256,0.21788654019586712
1.7686252771618625,-0.03877448005018774
1.8019955654101996,-0.28697857173006075
1.8353658536585367,-0.42405809682119344
1.8687361419068735,-0.38013041731258534
1.9021064301552106,-0.15347509897233594
1.9354767184035477,0.18103465614212938
1.9688470066518848,0.49723203960186685
2.002217294900222,0.6677712480027035
2.035587583148559,0.6178209686116871
2.0689578713968957,0.35834636949876614
2.102328159645233,-0.016585934102969456
2.13569844789357,-0.3681788944496306
2.1690687361419068,-0.5706209394560748
2.202439024390244,-0.5629717600014296
2.235809312638581,-0.37243785798465495
2.269179600886918,-0.09892514912252301
2.302549889135255,0.1318325756348955
2.335920177383592,0.22493818462836734
2.369290465631929,0.15669301510264708
2.4026607538802662,-0.019573877907930876
2.436031042128603,-0.20376069203814137
2.46940133037694,-0.29955419882397943
2.5027716186252773,-0.26024291498191243
2.536141906873614,-0.10806831458186433
2.569512195121951,0.08069097050129816
2.6028824833702884,0.21566642093432664
2.6362527716186253,0.23664823442110738
2.6696230598669626,0.140785519385377
2.7029933481152995,-0.018869861903032217
2.7363636363636363,-0.16060828900660093
2.7697339246119737,-0.2124975815937492
2.8031042128603105,-0.14381111288566903
2.8364745011086474,0.023479619275984683
2.8698447893569847,0.22573376641417783
2.9032150776053216,0.3840620201103795
2.9365853658536585,0.4341679466366672
2.969955654101996,0.34853682656407425
3.0033259423503327,0.144532642704462
3.0366962305986696,-0.12251950167438176
3.070066518847007,-0.37772381364500796
3.1034368070953438,-0.5501549736643992
3.1368070953436806,-0.5941577620895216
3.170177383592018,-0.5017784352711758
3.203547671840355,-0.30248614511247685
3.2369179600886917,-0.050754368258278636
3.270288248337029,0.19331309090047724
3.303658536585366,0.3823960287618961
3.337028824833703,0.4922650687334103
3.37039911308204,0.5210718069773725
3.403769401330377,0.48037976432887797
3.437139689578714,0.38466570308809456
3.470509977827051,0.24590319712574615
3.503880266075388,0.075632238780589
3.537250554323725,-0.10873172319949392
3.5706208425720622,-0.27993782237140125
3.603991130820399,-0.4045190130338267
3.637361419068736,-0.45386550199999415
3.6707317073170733,-0.4168282762595357
3.70410199556541,-0.30583948585426574
3.737472283813747,-0.15199965837570442
3.7708425720620844,0.008436834866187376
3.8042128603104213,0.14802003442783299
3.8375831485587586,0.2540723036269306
3.8709534368070955,0.32386346128759597
3.9043237250554323,0.35390489186307256
3.9376940133037697,0.33260576533660313
3.9710643015521065,0.24330133090592995
4.004434589800444,0.07725638591262096
4.037804878048781,-0.15135668473520514
4.071175166297118,-0.39917495614907916
4.1045454545454545,-0.6025542404682432
4.137915742793791,-0.6995822332718009
4.171286031042128,-0.6552216631413097
4.204656319290466,-0.4770702665972632
4.238026607538803,-0.2135298224727352
4.27139689578714,0.06506731897565307
4.304767184035477,0.29343777137098975
4.3381374722838135,0.43395245819453115
4.371507760532151,0.4853313059032013
4.404878048780488,0.4753375925416438
4.438248337028825,0.44304714674839957
4.471618625277162,0.4201581746365379
4.504988913525499,0.4194615669419569
4.538359201773836,0.4336194142585501
4.571729490022173,0.4421234208017589
4.60509977827051,0.42152413804224914
4.638470066518847,0.35443452976688034
4.671840354767184,0.23505154573271098
4.705210643015521,0.07097920895076695
4.738580931263858,-0.11813240257472424
4.771951219512196,-0.3048051965249207
4.8053215077605325,-0.4604203507378799
4.838691796008869,-0.5630207245154604
4.872062084257206,-0.6035614610704705
4.905432372505543,-0.5876132105254593
4.93880266075388,-0.5310946816943862
4.972172949002218,-0.45165203414411154
5.005543237250555,-0.3600984000956159
5.0389135254988915,-0.2569413316824652
5.072283813747228,-0.13663281369080024
5.105654101995565,0.002236655071945383
5.139024390243902,0.14662070797551893
5.17239467849224,0.2655873685380491
5.205764966740577,0.31802409798876763
5.239135254988914,0.2700663151174223
5.2725055432372505,0.11508935048131617
5.305875831485587,-0.1136418821720075
5.339246119733925,-0.3456175761488847
5.372616407982262,-0.4929353520053189
5.405986696230599,-0.48171800962738154
5.439356984478936,-0.28361801034478945
5.472727272727273,0.06567602955008962
5.5060975609756095,0.47046036653025475
5.539467849223947,0.8032504929380179
5.572838137472284,0.9492563085665969
5.606208425720621,0.8511962780414504
5.639578713968958,0.5359797971975007
5.672949002217295,0.10982718629321479
5.706319290465632,-0.27962430587635834
5.7396895787139695,-0.5010209784590365
5.773059866962306,-0.4929468238445045
5.806430155210643,-0.28911369283568605
5.83980044345898,-0.00201166627681758
5.873170731707317,0.22911198995413978
5.906541019955654,0.30250688085832583
5.939911308203992,0.19998804171123186
5.9732815964523285,-0.007615122175443475
6.006651884700665,-0.19840203670156142
6.040022172949002,-0.2618805562373904
6.073392461197339,-0.15474849937427837
6.106762749445676,0.07773759255777964
6.140133037694014,0.32483068840832785
6.173503325942351,0.465275350426736
6.2068736141906875,0.4260891268429224
6.240243902439024,0.2162327103293281
6.273614190687361,-0.07997829194733291
6.306984478935698,-0.3443372144461261
6.340354767184036,-0.479181115033604
6.373725055432373,-0.44832293710970844
6.40709534368071,-0.2866726929121527
6.4404656319290465,-0.07719608311516274
6.473835920177383,0.09068876255677912
6.507206208425721,0.16012633439282345
6.540576496674058,0.12588678118141094
6.573946784922395,0.02756314088021763
6.607317073170732,-0.07634732081817121
6.640687361419069,-0.13890524136548335
6.674057649667406,-0.14502294326716916
6.707427937915743,-0.11339098747542635
6.74079822616408,-0.08131072380912231
6.774168514412417,-0.0816919232697738
6.807538802660754,-0.12451800712429308
6.840909090909091,-0.19200255340517516
6.874279379157428,-0.24912307213213883
6.9076496674057655,-0.2631152976842065
6.941019955654102,-0.22108981200275393
6.974390243902439,-0.1364706812538164
7.007760532150776,-0.04141242227242769
7.041130820399113,0.030030633892392584
7.07450110864745,0.058654269119131755
7.107871396895788,0.048197966852743725
7.1412416851441245,0.021412049778475276
7.174611973392461,0.0071954985892560865
7.207982261640798,0.026087899310333562
7.241352549889135,0.081367590980357
7.274722838137472,0.15929288019881113
7.30809312638581,0.23704963562286374
7.341463414634147,0.29350152044893235
7.3748337028824835,0.3174253797223451
7.40820399113082,0.3101998715106138
7.441574279379157,0.2831353322648953
7.474944567627494,0.25186541814507485
7.508314855875832,0.2305658265103425
7.541685144124169,0.2276973604302498
7.575055432372506,0.24371561137912082
7.6084257206208425,0.2706704113761726
7.641796008869179,0.29380392226583807
7.675166297117517,0.29537950516816724
7.708536585365854,0.26036275817192867
7.741906873614191,0.1823598367362413
7.775277161862528,0.06729772616854691
7.808647450110865,-0.06734236346342654
7.842017738359202,-0.1981529999563995
7.875388026607539,-0.3042704099320909
7.908758314855876,-0.3749015071640995
7.942128603104213,-0.4121428997675138
7.97549889135255,-0.4274188742887941
8.008869179600888,-0.43321848755780007
8.042239467849225,-0.4347032517241269
8.075609756097561,-0.4263344818697178
8.108980044345898,-0.39613963337124447
8.142350332594235,-0.3356890727660414
8.175720620842572,-0.24989808174124123
8.209090909090909,-0.15999708758349962
8.242461197339246,-0.0962945630266132
8.275831485587583,-0.0831329728173946
8.30920177383592,-0.12350606690558973
8.342572062084257,-0.19212720871819702
8.375942350332595,-0.2422199855839705
8.409312638580932,-0.22451155383692195
8.442682926829269,-0.11029794135733394
8.476053215077606,0.09245844762053852
8.509423503325943,0.33849196912940993
8.54279379157428,0.5615093467909765
8.576164079822616,0.7006116649084179
8.609534368070953,0.7248413518623432
8.64290465631929,0.6444127739094863
8.676274944567627,0.5035613979716864
8.709645232815964,0.35896211836652364
8.743015521064303,0.2546080570242905
8.77638580931264,0.20522127286707179
8.809756097560976,0.1951564464759476
8.843126385809313,0.19133614474431918
8.87649667405765,0.16179746392790542
8.909866962305987,0.08971149684931848
8.943237250554324,-0.023166000020998605
8.97660753880266,-0.1626359506898711
9.009977827050998,-0.311384918458447
9.043348115299334,-0.45453579447616804
9.076718403547671,-0.5787234529735169
9.110088691796008,-0.6678312918190862
9.143458980044347,-0.7016489346198469
9.176829268292684,-0.6617633197595197
9.21019955654102,-0.5431747879514107
9.243569844789358,-0.36447987887188016
9.276940133037694,-0.16819969361493772
9.310310421286031,-0.007454378164582355
9.343680709534368,0.07669938870662316
9.377050997782705,0.07623546185957433
9.410421286031042,0.02345838519285469
9.443791574279379,-0.021345679254036482
9.477161862527716,0.0021877919742537295
9.510532150776053,0.12396901903285452
9.543902439024391,0.32582260144937586
9.577272727272728,0.5467824174845881
9.610643015521065,0.7101209634554855
9.644013303769402,0.7596289108103209
9.677383592017739,0.6872618608258999
9.710753880266076,0.5378529006708174
9.744124168514412,0.3876339664826173
9.77749445676275,0.3064166929992183
9.810864745011086,0.3218797022715346
9.844235033259423,0.4039994039657018
9.87760532150776,0.4781017201731231
9.910975609756099,0.46078446437982956
9.944345898004435,0.30120069984837666
9.977716186252772,0.007160425659408222
10.01108647450111,-0.35688281295751956
10.044456762749446,-0.6984665001363906
10.077827050997783,-0.9373690222939448
10.11119733924612,-1.0371951591594244
10.144567627494457,-1.013624533050393
10.177937915742794,-0.917623695427906
10.21130820399113,-0.8048377359564652
10.244678492239467,-0.7083164943865562
10.278048780487804,-0.6280835153085939
10.311419068736143,-0.5406101643193912
10.34478935698448,-0.42024196446102974
10.378159645232817,-0.2590359201850724
10.411529933481154,-0.07381509144580946
10.44490022172949,0.10251220241549748
10.478270509977827,0.2392281058877429
10.511640798226164,0.324589542666267
10.545011086474501,0.3715293567150966
10.578381374722838,0.40930640651347877
10.611751662971175,0.4660191384994482
10.645121951219512,0.5517823632522271
10.67849223946785,0.65178758252444
10.711862527716187,0.7329360794844391
10.745232815964524,0.7603856629289665
10.778603104212861,0.7151807763246428
10.811973392461198,0.6037975144759158
10.845343680709535,0.4548922458503473
10.878713968957872,0.305272179851316
10.912084257206208,0.18258445194844225
10.945454545454545,0.09373230853635078
10.978824833702882,0.02490142531300162
11.012195121951219,-0.04708141708843657
11.045565410199556,-0.13841196666668587
11.078935698447895,-0.24615621147440736
11.112305986696231,-0.34733998164754676
11.145676274944568,-0.4102437727686115
11.179046563192905,-0.41199613305228244
11.212416851441242,-0.3527746044887997
11.245787139689579,-0.2585017300642521
11.279157427937916,-0.17009643558514181
11.312527716186253,-0.12463014368874428
11.34589800443459,-0.1380099330105654
11.379268292682926,-0.1977816510214635
11.412638580931263,-0.26917083275419973
11.4460088691796,-0.31083435952088045
11.479379157427939,-0.2925514728037114
11.512749445676276,-0.20707784824273234
11.546119733924613,-0.07199555273005673
11.57949002217295,0.07774052462614912
11.612860310421286,0.2022939415239747
11.646230598669623,0.26933034468946393
11.67960088691796,0.26262539247840455
11.712971175166297,0.18554949392089287
11.746341463414634,0.0597342227943718
11.77971175166297,-0.08028664569859496
11.813082039911308,-0.19569303974029983
11.846452328159646,-0.25402309881345403
11.879822616407983,-0.2393920965441226
11.91319290465632,-0.15869309285457925
11.946563192904657,-0.040494240198388626
11.979933481152994,0.07424676810924051
12.01330376940133,0.14686701285658854
12.046674057649668,0.1553548240873536
12.080044345898004,0.1022766792608771
12.113414634146341,0.012833512880140917
12.146784922394678,-0.07595684834375482
12.180155210643015,-0.13000643914849147
12.213525498891352,-0.1304158212553984
12.24689578713969,-0.07844370404672907
12.280266075388028,0.007939499942790296
12.313636363636364,0.10329897661152869
12.347006651884701,0.18512635632559413
12.380376940133038,0.2410286041420652
12.413747228381375,0.27046329242398165
12.447117516629712,0.28140570017711525
12.480487804878049,0.28433294301191697
12.513858093126386,0.286608506976226
12.547228381374723,0.28968684804927597
12.58059866962306,0.28994652693413
12.613968957871396,0.2821160784472342
12.647339246119735,0.26299779197436435
12.680709534368072,0.23315708162584795
12.714079822616409,0.19553463733119167
12.747450110864746,0.15193099449814912
12.780820399113082,0.09986336533393632
12.81419068736142,0.03237196822688067
12.847560975609756,-0.05825977213159366
12.880931263858093,-0.17437464054102686
12.91430155210643,-0.307781976058692
12.947671840354767,-0.4390295671093471
12.981042128603104,-0.5425969901509236
13.014412416851442,-0.5963819589219486
13.04778270509978,-0.5912199151425565
13.081152993348116,-0.535557036434012
13.114523281596453,-0.452356820929651
13.14789356984479,-0.3690802583014014
13.181263858093127,-0.30530162780170417
13.214634146341464,-0.2641760078292872
13.2480044345898,-0.2324069490836482
13.281374722838137,-0.1890708208479511
13.314745011086474,-0.11877171076717913
13.348115299334811,-0.021886851705291997
13.381485587583148,0.08409214986232043
13.414855875831487,0.1733148135734914
13.448226164079824,0.22582914917110963
13.48159645232816,0.23932328551583867
13.514966740576497,0.23142336569656022
13.548337028824834,0.2307972236510739
13.581707317073171,0.26170148790089476
13.615077605321508,0.33049158402747003
13.648447893569845,0.42163111910115003
13.681818181818182,0.5053633077515579
13.715188470066519,0.5525627001423862
13.748558758314855,0.5483137831939602
13.781929046563192,0.4968215838881132
13.815299334811531,0.4156376267792948
13.848669623059868,0.32354495335589767
13.882039911308205,0.2299300362063604
13.915410199556542,0.13208619095072857
13.948780487804878,0.02165722454183711
13.982150776053215,-0.10437900199227926
14.015521064301552,-0.23566106274214557
14.048891352549889,-0.3490590320724173
14.082261640798226,-0.41839639852119503
14.115631929046563,-0.42804829825715435
14.1490022172949,-0.3825169399910644
14.182372505543238,-0.3060519147997448
14.215742793791575,-0.23190480399147514
14.249113082039912,-0.18671866762417075
14.282483370288249,-0.1784299870095011
14.315853658536586,-0.1942035390350129
14.349223946784923,-0.20936593793305655
14.38259423503326,-0.20224611356273098
14.415964523281596,-0.1667332925559886
14.449334811529933,-0.11587946535855524
14.48270509977827,-0.07491646732539647
14.516075388026607,-0.0676122204588305
14.549445676274944,-0.10297187831150396
14.582815964523283,-0.16865670017171688
14.61618625277162,-0.23401422450579024
14.649556541019956,-0.2613110312350816
14.682926829268293,-0.22051015189676568
14.71629711751663,-0.10173786233863263
14.749667405764967,0.07943871219922943
14.783037694013304,0.28611185303393155
14.81640798226164,0.4721532832765577
14.849778270509978,0.5977728595335259
14.883148558758315,0.6423381289210144
14.916518847006651,0.6092327166647342
14.949889135254988,0.5209533611940451
14.983259423503327,0.4071335343239342
15.016629711751664,0.29150353203413726
15.05,0.18409145334766872
15.083370288248338,0.08195584001467911
15.116740576496674,-0.022960924629079414
15.150110864745011,-0.13402754216121737
15.183481152993348,-0.2440622767894859
15.216851441241685,-0.3366876401747042
15.250221729490022,-0.3938196440993308
15.283592017738359,-0.40469757748171253
15.316962305986696,-0.37119259125043735
15.350332594235034,-0.3065706578999976
15.383702882483371,-0.22883202409977166
15.417073170731708,-0.15276681158671143
15.450443458980045,-0.08519393138453223
15.483813747228382,-0.02548537365518078
15.517184035476719,0.029887918958978372
15.550554323725056,0.08222415696804838
15.583924611973393,0.1280821215304126
15.61729490022173,0.16047549217780088
15.650665188470066,0.17245423287614078
15.684035476718403,0.16060624331697496
15.71740576496674,0.12654346745999157
15.750776053215079,0.07598701176347662
15.784146341463416,0.016527582375252224
15.817516629711752,-0.04432426596707896
15.85088691796009,-0.09974548640796262
15.884257206208426,-0.14299544185672758
15.917627494456763,-0.16671582554785982
15.9509977827051,-0.16340223235135318
15.984368070953437,-0.12756326670012533
16.017738359201775,-0.058943567216729977
16.05110864745011,0.03467579581020293
16.08447893569845,0.13677397407600705
16.117849223946784,0.2246162769888317
16.151219512195123,0.275004486682111
16.184589800443458,0.2717964994255944
16.217960088691797,0.2125071466067516
16.251330376940132,0.11100044097181964
16.28470066518847,-0.005592835442150392
16.31807095343681,-0.10526603963340486
16.351441241685144,-0.1618712508505575
16.384811529933483,-0.163940659232377
16.418181818181818,-0.11808411172096923
16.451552106430157,-0.04588934925377683
16.48492239467849,0.023990004457281534
16.51829268292683,0.06526356795795407
16.551662971175165,0.061780109323857406
16.585033259423504,0.011783229973373829
16.61840354767184,-0.07182105636863767
16.651773835920178,-0.1648578960951002
16.685144124168513,-0.23829979815684083
16.71851441241685,-0.2666350206900933
16.75188470066519,-0.2362399804138915
16.785254988913525,-0.15092554356956514
16.818625277161864,-0.0319031913979783
16.8519955654102,0.08889125904757368
16.885365853658538,0.18025743705841313
16.918736141906873,0.22340654077589417
16.95210643015521,0.2184946559589997
16.985476718403547,0.1826478508229852
17.018847006651885,0.14022635063369063
17.05221729490022,0.110242661475415
17.08558758314856,0.09762772874039927
17.118957871396898,0.09307983962888434
17.152328159645233,0.08134918625613538
17.18569844789357,0.052791354132054366
17.219068736141907,0.010996935537997556
17.252439024390245,-0.028330730428094874
