Frequency (Hz),Amplitude
0.0,0.9724654651692926
0.019801980198019802,0.9756178692552578
0.039603960396039604,0.9850021786973706
0.0594059405940594,1.000406545471703
0.07920792079207921,1.0214992611569775
0.09900990099009901,1.0478561395696055
0.1188118811881188,1.0789912144848803
0.13861386138613863,1.1143861930776582
0.15841584158415842,1.1535155029523907
0.1782178217821782,1.1958654315756077
0.19801980198019803,1.2409472396066643
0.21782178217821782,1.2883050024234708
0.2376237623762376,1.337519317580452
0.25742574257425743,1.3882080520594402
0.27722772277227725,1.4400251491700384
0.297029702970297,1.4926582906354313
0.31683168316831684,1.5458259865696777
0.33663366336633666,1.599274478124192
0.3564356435643564,1.6527746938472148
0.37623762376237624,1.70611939821608
0.39603960396039606,1.759120601574364
0.4158415841584158,1.8116072563641694
0.43564356435643564,1.8634232377253497
0.45544554455445546,1.914425591505285
0.4752475247524752,1.9644830253119443
0.495049504950495,2.013474615552426
0.5148514851485149,2.061288703490928
0.5346534653465347,2.1078219549774966
0.5544554455445545,2.152978560853996
0.5742574257425742,2.1966695576584185
0.594059405940594,2.2388122508477064
0.613861386138614,2.279329725193549
0.6336633663366337,2.318150429206047
0.6534653465346534,2.3552078223833375
0.6732673267326733,2.390440075774803
0.6930693069306931,2.4237898177991926
0.7128712871287128,2.455203918500444
0.7326732673267327,2.4846333064798274
0.7524752475247525,2.5120328136374646
0.7722772277227723,2.537361043614021
0.7920792079207921,2.560580260464262
0.8118811881188118,2.5816562946373267
0.8316831683168316,2.600558463799401
0.8514851485148516,2.617259506427167
0.8712871287128713,2.6317355264355227
0.891089108910891,2.6439659473917185
0.9108910891089109,2.653933475117684
0.9306930693069307,2.6616240677001266
0.9504950495049505,2.66702691212044
0.9702970297029703,2.670134406888791
0.99009900990099,2.6709421502231385
1.00990099009901,2.669448933458439
1.0297029702970297,2.665656739509104
1.0495049504950495,2.659570746339475
1.0693069306930694,2.651199335529214
1.0891089108910892,2.6405541061539117
1.108910891089109,2.6276498943404634
1.1287128712871286,2.6125047990051664
1.1485148514851484,2.5951402144435574
1.1683168316831685,2.575580870619671
1.188118811881188,2.553854882202265
1.2079207920792079,2.5299938076241837
1.227722772277228,2.5040327197019643
1.2475247524752475,2.4760102896570926
1.2673267326732673,2.4459688867329543
1.2871287128712872,2.413954696016933
1.3069306930693068,2.3800178575638262
1.3267326732673268,2.3442126304922875
1.3465346534653466,2.3065975864050814
1.3663366336633662,2.267235837287272
1.3861386138613863,2.2261953039853033
1.405940594059406,2.183549032489547
1.4257425742574257,2.1393755665587517
1.4455445544554455,2.0937593867637956
1.4653465346534653,2.0467914278138006
1.4851485148514851,1.998569688074196
1.504950495049505,1.949199947493731
1.5247524752475248,1.8987966126902611
1.5445544554455446,1.847483710616233
1.5643564356435644,1.7953960548525398
1.5841584158415842,1.7426806108366166
1.6039603960396038,1.6894980876548071
1.6237623762376237,1.6360247835031865
1.6435643564356437,1.5824547080927396
1.6633663366336633,1.5290019959235177
1.683168316831683,1.4759036061826805
1.7029702970297032,1.4234222733450754
1.7227722772277227,1.3718496210255284
1.7425742574257426,1.321509272304931
1.7623762376237624,1.2727596738997204
1.782178217821782,1.2259961920458269
1.801980198019802,1.181651834419022
1.8217821782178218,1.1401957201601332
1.8415841584158414,1.1021282034344246
1.8613861386138615,1.0679714425525384
1.881188118811881,1.0382543331480136
1.900990099009901,1.013491254317573
1.920792079207921,0.9941551318236884
1.9405940594059405,0.9806468570922069
1.9603960396039604,0.9732647786619821
1.98019801980198,0.9721791687261023
2.0,0.9774165531356042
2.01980198019802,0.9888572239072736
2.0396039603960396,1.0062464805609508
2.0594059405940595,1.029217166329254
2.0792079207920793,1.0573189906003642
2.099009900990099,1.090049573663435
2.118811881188119,1.1268829838323797
2.1386138613861387,1.1672931241848756
2.1584158415841586,1.2107709663645416
2.1782178217821784,1.2568358711325316
2.1980198019801978,1.3050419428419653
2.217821782178218,1.3549806157322422
2.237623762376238,1.4062806236597098
2.257425742574257,1.458606312408425
2.2772277227722775,1.5116550202158703
2.297029702970297,1.565154035709482
2.3168316831683167,1.6188574669829154
2.336633663366337,1.672543224952549
2.3564356435643563,1.726010232928093
2.376237623762376,1.7790759139727268
2.3960396039603964,1.831573969752291
2.4158415841584158,1.883352442241974
2.4356435643564356,1.9342720376231013
2.455445544554456,1.984204686213971
2.4752475247524752,2.0330323107747987
2.495049504950495,2.080645776315623
2.514851485148515,2.1269439965341985
2.5346534653465347,2.1718331745477713
2.5544554455445545,2.2152261582592376
2.5742574257425743,2.2570418932886933
2.594059405940594,2.297204958790337
2.6138613861386135,2.3356451736117103
2.633663366336634,2.372297262126099
2.6534653465346536,2.407100570690553
2.673267326732673,2.439998827072053
2.6930693069306932,2.470939936368592
2.712871287128713,2.4998758079572823
2.7326732673267324,2.526762208852635
2.7524752475247527,2.551558639578046
2.7722772277227725,2.5742282292627343
2.792079207920792,2.594737647192689
2.811881188118812,2.613057028482178
2.8316831683168315,2.629159911906195
2.8514851485148514,2.6430231882536024
2.8712871287128716,2.654627057836341
2.891089108910891,2.6639549960286675
2.910891089108911,2.6709937259199
2.9306930693069306,2.675733197349246
2.9504950495049505,2.678166571758281
2.9702970297029703,2.6782902124486667
2.99009900990099,2.676103679974852
3.00990099009901,2.671609732536577
3.0297029702970297,2.664814331368156
3.0495049504950495,2.6557266512530964
3.0693069306930694,2.6443590964281016
3.089108910891089,2.630727322282389
3.108910891089109,2.6148502634103594
3.128712871287129,2.596750168742642
3.148514851485148,2.576452644665715
3.1683168316831685,2.5539867072498272
3.1881188118811883,2.5293848449440883
3.2079207920792077,2.5026830933732516
3.227722772277228,2.473921124191352
3.2475247524752473,2.4431423503218466
3.267326732673267,2.410394050354225
3.2871287128712874,2.375727515385638
3.3069306930693068,2.3391982222092254
3.3267326732673266,2.3008660374765384
3.346534653465347,2.260795458320114
3.366336633663366,2.219055895938912
3.386138613861386,2.1757220098493586
3.4059405940594063,2.13087410191674
3.4257425742574257,2.0845985809340504
3.4455445544554455,2.036988510431715
3.4653465346534653,1.9881442545975412
3.485148514851485,1.938174239656205
3.504950495049505,1.8871958507592204
3.5247524752475248,1.8353364872645161
3.5445544554455446,1.7827348020267284
3.564356435643564,1.729542152592672
3.5841584158415842,1.675924293348828
3.603960396039604,1.6220633366361947
3.6237623762376234,1.5681600059551293
3.6435643564356437,1.5144361930684846
3.6633663366336635,1.4611378092967053
3.683168316831683,1.408537884236219
3.702970297029703,1.3569398053699993
3.722772277227723,1.3066805007967275
3.7425742574257423,1.2581332353430723
3.762376237623762,1.2117095110616034
3.7821782178217824,1.1678593390285548
3.801980198019802,1.127068902868476
3.8217821782178216,1.089854423012114
3.841584158415842,1.056750961347642
3.8613861386138613,1.0282951360399624
3.881188118811881,1.0050014183736797
3.9009900990099013,0.9873329522012816
3.9207920792079207,0.9756695468792961
3.9405940594059405,0.9702771876474258
3.96039603960396,0.9712843459045817
3.98019801980198,0.9786698631414895
4.0,0.9922650552539416
4.01980198019802,1.0117695629935646
4.03960396039604,1.0367775367074037
4.0594059405940595,1.0668090613852892
4.079207920792079,1.1013416918813526
4.099009900990099,1.1398382086993872
4.118811881188119,1.1817684689231462
4.138613861386139,1.2266248382291778
4.158415841584159,1.2739317923891005
4.178217821782178,1.323250824872679
4.198019801980198,1.3741819216165143
4.217821782178218,1.4263627393587612
4.237623762376238,1.479466394161384
4.257425742574258,1.5331985232055014
4.2772277227722775,1.587294071142809
4.297029702970297,1.6415140874013134
4.316831683168317,1.6956427018144928
4.336633663366336,1.749484364950041
4.356435643564357,1.8028613872629347
4.376237623762377,1.8556117793395124
4.3960396039603955,1.9075873774303118
4.415841584158416,1.9586522293420918
4.435643564356436,2.008681212193432
4.455445544554455,2.0575588532654128
4.475247524752476,2.1051783267283883
4.4950495049504955,2.1514406014725793
4.514851485148514,2.1962537180537636
4.534653465346535,2.2395321755609765
4.554455445544555,2.2811964118447237
4.574257425742574,2.321172362928577
4.594059405940594,2.35939108953402
4.613861386138614,2.395788460480283
4.633663366336633,2.430304884296057
4.653465346534653,2.4628850817234795
4.673267326732674,2.4934778929357675
4.693069306930693,2.5220361142551395
4.712871287128713,2.548516359973633
4.732673267326733,2.5728789455683896
4.752475247524752,2.5950877891855506
4.772277227722772,2.615110328760093
4.792079207920793,2.6329174525578427
4.811881188118812,2.648483441282868
4.8316831683168315,2.6617859201993186
4.851485148514852,2.672805819980653
4.871287128712871,2.6815273452283583
4.891089108910891,2.6879379498039175
4.910891089108912,2.6920283182967077
4.930693069306931,2.693792353112566
4.9504950495049505,2.6932271668161096
4.97029702970297,2.6903330794997333
4.99009900990099,2.685113621085812
5.00990099009901,2.6775755386003572
5.02970297029703,2.667728808589071
5.0495049504950495,2.655586654983947
5.069306930693069,2.6411655728736667
5.089108910891089,2.624485358787909
5.108910891089109,2.605569148278577
5.128712871287129,2.584443461774349
5.148514851485149,2.5611382599045642
5.1683168316831685,2.5356870097403266
5.188118811881188,2.508126763692372
5.207920792079208,2.4784982531455153
5.227722772277227,2.446845999308246
5.247524752475248,2.4132184442264104
5.267326732673268,2.3776681054653612
5.2871287128712865,2.3402517586234715
5.306930693069307,2.3010306526210873
5.326732673267327,2.260070763636302
5.346534653465346,2.217443094658697
5.366336633663367,2.173224028934157
5.3861386138613865,2.1274957471092546
5.405940594059405,2.080346719684492
5.425742574257426,2.0318722884789033
5.445544554455446,1.9821753532119648
5.465346534653465,1.931367182015933
5.485148514851486,1.8795683676563575
5.504950495049505,1.8269099543394107
5.524752475247524,1.7735347629813016
5.544554455445545,1.719598945267161
5.564356435643565,1.665273797985527
5.584158415841584,1.6107478677607199
5.603960396039604,1.5562293704769017
5.623762376237624,1.501948936420704
5.643564356435643,1.4481626670725603
5.663366336633663,1.395155446343596
5.683168316831684,1.3432443796263678
5.702970297029703,1.292782128298496
5.7227722772277225,1.244159755112045
5.742574257425743,1.1978084909067173
5.762376237623762,1.1541995809431773
5.782178217821782,1.1138411008669085
5.801980198019803,1.0772704219867824
5.821782178217822,1.0450409853342937
5.841584158415841,1.0177023986085907
5.861386138613861,0.9957737835550001
5.881188118811881,0.9797118345229248
5.900990099009901,0.9698769745232773
5.920792079207921,0.9665027010041345
5.9405940594059405,0.9696738438723338
5.96039603960396,0.9793183565802044
5.98019801980198,0.9952144933583796
6.0,1.0170117367455833
6.01980198019802,1.044260990642338
6.03960396039604,1.0764483353797445
6.0594059405940595,1.1130271751130123
6.079207920792079,1.1534452695277055
6.099009900990099,1.1971650731010977
6.118811881188119,1.2436773719258385
6.138613861386139,1.2925091603107137
6.158415841584159,1.3432270845772496
6.178217821782178,1.3954377798237094
6.198019801980198,1.4487862234894342
6.217821782178218,1.5029529630514846
6.237623762376237,1.557650821429029
6.257425742574258,1.6126214758164863
6.2772277227722775,1.6676321505297413
6.297029702970296,1.7224725562306438
6.316831683168317,1.7769521365507426
6.336633663366337,1.830897638619809
6.356435643564356,1.884150997954973
6.376237623762377,1.9365675142667378
6.396039603960396,1.988014288502537
6.415841584158415,2.03836888983242
6.435643564356436,2.0875182222890123
6.455445544554456,2.1353575631410844
6.475247524752475,2.181789748032685
6.495049504950495,2.226724481002086
6.514851485148515,2.2700777504552097
6.534653465346534,2.311771334879798
6.554455445544554,2.3517323844982516
6.574257425742575,2.389893067160518
6.594059405940594,2.4261902685893273
6.6138613861386135,2.460565338635678
6.633663366336634,2.4929638765130147
6.653465346534653,2.523335549086672
6.673267326732673,2.5516339372290657
6.693069306930694,2.5778164060384245
6.712871287128713,2.6018439953821435
6.732673267326732,2.6236813277858153
6.752475247524753,2.643296531162451
6.772277227722772,2.6606611742784176
6.792079207920792,2.675750213194927
6.811881188118813,2.688541947217776
6.8316831683168315,2.6990179831411742
6.851485148514851,2.707163206792457
6.871287128712871,2.712965761078814
6.891089108910891,2.716417029910642
6.910891089108911,2.7175116275335003
6.930693069306931,2.716247392946209
6.9504950495049505,2.7126253892198164
6.97029702970297,2.7066499076651227
6.99009900990099,2.698328476927991
7.00990099009901,2.687671877225476
7.02970297029703,2.6746941600755134
7.0495049504950495,2.6594126740213517
7.069306930693069,2.641848097014303
7.089108910891089,2.622024476297816
7.108910891089109,2.5999692768384364
7.128712871287128,2.575713439580103
7.148514851485149,2.5492914510646054
7.1683168316831685,2.5207414262705776
7.188118811881187,2.4901052068862897
7.207920792079208,2.4574284776582784
7.227722772277228,2.422760903963021
7.247524752475247,2.386156294347817
7.267326732673268,2.3476727924993126
7.287128712871287,2.307373103946483
7.306930693069306,2.2653247638151743
7.326732673267327,2.2216004531546063
7.346534653465347,2.176278372785637
7.366336633663366,2.129442685314117
7.3861386138613865,2.0811840379466053
7.405940594059406,2.031600181075429
7.425742574257425,1.9807967002874665
7.445544554455446,1.9288878824960163
7.465346534653466,1.8759977402496566
7.485148514851485,1.8222612218082819
7.504950495049505,1.767825638026525
7.524752475247524,1.7128523399561286
7.544554455445544,1.657518682515573
7.564356435643565,1.602020308163822
7.584158415841584,1.5465737779957223
7.603960396039604,1.4914195625649058
7.623762376237624,1.4368253758536038
7.643564356435643,1.3830897857863538
7.663366336633663,1.3305459537085815
7.683168316831684,1.2795652314686008
7.702970297029703,1.2305601663185906
7.7227722772277225,1.1839862241993995
7.742574257425743,1.1403412501516892
7.762376237623762,1.100161382322713
7.782178217821782,1.0640119194392972
7.801980198019803,1.0324716772910594
7.821782178217822,1.006109880918544
7.841584158415841,0.9854558267572496
7.861386138613862,0.9709634282723725
7.881188118811881,0.9629749627789744
7.900990099009901,0.9616900502168919
7.92079207920792,0.9671461154164079
7.9405940594059405,0.979214728556035
7.96039603960396,0.9976146756802758
7.980198019801979,1.0219387248331167
8.0,1.0516883717098502
8.01980198019802,1.0863102138834486
8.03960396039604,1.1252287962764058
8.05940594059406,1.1678728841223645
8.07920792079208,1.2136942048504098
8.099009900990099,1.2621791943653589
8.118811881188119,1.3128550614724825
8.138613861386139,1.3652916929504901
8.158415841584159,1.4191007887069083
8.178217821782178,1.473933336190802
8.198019801980198,1.5294762304612775
8.217821782178218,1.5854485829415317
8.237623762376238,1.6415980583511565
8.257425742574258,1.6976974340577184
8.277227722772277,1.7535414786899188
8.297029702970297,1.8089441851325312
8.316831683168317,1.8637363562274245
8.336633663366337,1.9177635212744297
8.356435643564357,1.9708841517295903
8.376237623762377,2.022968141206515
8.396039603960396,2.0738955152793235
8.415841584158416,2.123555338934124
8.435643564356436,2.1718447927587063
8.455445544554456,2.2186683924689894
8.475247524752476,2.2639373297971392
8.495049504950495,2.307568915928499
8.514851485148515,2.349486111497599
8.534653465346535,2.3896171296176156
8.554455445544555,2.427895100538143
8.574257425742575,2.4642577883328562
8.594059405940595,2.498647351547277
8.613861386138613,2.5310101410253534
8.633663366336634,2.5612965292165994
8.653465346534654,2.589460766174772
8.673267326732672,2.6154608582227326
8.693069306930694,2.6392584658996596
8.712871287128714,2.6608188183471913
8.732673267326732,2.680110641747471
8.752475247524753,2.697106099812639
8.772277227722773,2.7117807446550053
8.792079207920791,2.7241134766493658
8.811881188118813,2.734086512143048
8.831683168316832,2.741685358081969
8.85148514851485,2.7468987928090423
8.871287128712872,2.7497188524592113
8.891089108910892,2.7501408225290906
8.91089108910891,2.7481632343411966
8.930693069306932,2.74378786625861
8.950495049504951,2.7370197496375464
8.97029702970297,2.7278671796372187
8.990099009900991,2.716341731141656
9.00990099009901,2.7024582801900268
9.029702970297029,2.686235031464979
9.04950495049505,2.6676935525559724
9.06930693069307,2.6468588159018247
9.089108910891088,2.623759249528974
9.10891089108911,2.598426797945268
9.12871287128713,2.570896994831599
9.148514851485148,2.5412090495033355
9.16831683168317,2.509405949501728
9.188118811881187,2.475534582134495
9.207920792079207,2.4396458783298662
9.227722772277229,2.401794982818042
9.247524752475247,2.36204145543008
9.267326732673267,2.3204495092323327
9.287128712871288,2.2770882923260927
9.306930693069306,2.2320322214719033
9.326732673267326,2.185361377287416
9.346534653465348,2.137161972661141
9.366336633663366,2.087526908269643
9.386138613861386,2.0365564317272313
9.405940594059407,1.984358919971013
9.425742574257425,1.9310518080004286
9.445544554455445,1.8767626910117456
9.465346534653467,1.8216306311670876
9.485148514851485,1.7658077044329217
9.504950495049505,1.7094608265736766
9.524752475247526,1.6527738995328898
9.544554455445544,1.5959503184564048
9.564356435643564,1.5392158728780836
9.584158415841586,1.4828220589765995
9.603960396039604,1.4270497871065926
9.623762376237623,1.372213411065583
9.643564356435645,1.3186649107112398
9.663366336633663,1.2667979128828637
9.683168316831683,1.2170510223548119
9.702970297029704,1.169909646756292
9.722772277227723,1.1259051494655032
9.742574257425742,1.085609807760804
9.762376237623764,1.0496258164738737
9.782178217821782,1.0185666764339498
9.801980198019802,0.9930300230376898
9.821782178217823,0.9735625119721729
9.841584158415841,0.9606197373175612
9.861386138613861,0.9545267429924043
9.881188118811881,0.9554463962805446
9.900990099009901,0.9633625327964785
9.92079207920792,0.9780819053244737
9.94059405940594,0.9992544416399919
9.96039603960396,1.0264070007220971
9.98019801980198,1.0589834417171755
10.0,1.0963839660120942
10.01980198019802,1.1379986862563962
10.03960396039604,1.1832329853217938
10.05940594059406,1.231524442203339
10.07920792079208,1.2823524752260886
10.099009900990099,1.3352424166746235
10.118811881188119,1.3897657412264923
10.138613861386139,1.4455378957602327
10.158415841584159,1.5022148171025984
10.178217821782178,1.5594888861382423
10.198019801980198,1.6170847954769505
10.217821782178218,1.6747556102330685
10.237623762376238,1.7322791672570323
10.257425742574258,1.789454872348179
10.277227722772277,1.8461009033747846
10.297029702970297,1.9020517984760719
10.316831683168317,1.9571563943301424
10.336633663366337,2.011276074138797
10.356435643564357,2.064283284751292
10.376237623762377,2.116060284844966
10.396039603960396,2.1664980898452
10.415841584158416,2.2154955834451857
10.435643564356436,2.262958769701188
10.455445544554454,2.3088001434876517
10.475247524752476,2.352938160493385
10.495049504950495,2.395296790899004
10.514851485148514,2.435805143413203
10.534653465346535,2.474397148498819
10.554455445544555,2.5110112914341745
10.574257425742573,2.5455903873775125
10.594059405940595,2.5780813918759637
10.613861386138614,2.6084352413247154
10.633663366336632,2.6366067187713584
10.653465346534654,2.6625543412037422
10.673267326732674,2.6862402650826884
10.693069306930692,2.7076302074037764
10.712871287128714,2.726693380013126
