Frequency (Hz),Amplitude
0.0,2.6573148711473413
0.01978021978021978,2.6560724525677335
0.03956043956043956,2.652346612978197
0.05934065934065934,2.646141601382088
0.07912087912087912,2.637464501341493
0.0989010989010989,2.626325233945823
0.11868131868131868,2.612736562240078
0.13846153846153844,2.5967140973951612
0.15824175824175823,2.5782763069984216
0.17802197802197803,2.5574445259511447
0.1978021978021978,2.5342429705837626
0.21758241758241756,2.5086987567451704
0.23736263736263735,2.4808419227947343
0.2571428571428572,2.450705458631446
0.2769230769230769,2.418325342143648
0.2967032967032967,2.3837405847657105
0.31648351648351647,2.3469932882002222
0.3362637362637363,2.30812871482316
0.35604395604395606,2.267195374860334
0.3758241758241758,2.2242451341364258
0.3956043956043956,2.179333347094512
0.4153846153846154,2.1325190209167477
0.4351648351648351,2.0838650180169633
0.45494505494505494,2.0334383060154204
0.4747252747252747,1.9813102666695657
0.4945054945054945,1.9275570782867633
0.5142857142857143,1.872260190106947
0.5340659340659341,1.8155069123123087
0.5538461538461538,1.7573911520960237
0.5736263736263736,1.698014335138908
0.5934065934065934,1.6374865636199454
0.6131868131868132,1.5759280774764735
0.6329670329670329,1.5134711062826824
0.6527472527472528,1.450262226425786
0.6725274725274726,1.3864653741737611
0.6923076923076923,1.322265711915332
0.7120879120879121,1.2578746042480313
0.7318681318681318,1.193536033229297
0.7516483516483516,1.129534864419635
0.7714285714285715,1.0662074538830653
0.7912087912087912,1.0039551260361539
0.810989010989011,0.9432609743602782
0.8307692307692308,0.8847100806325384
0.8505494505494506,0.8290123148890771
0.8703296703296702,0.7770248823391697
0.8901098901098901,0.729768112275582
0.9098901098901099,0.6884223395520712
0.9296703296703297,0.6542874044217318
0.9494505494505494,0.6286843377733932
0.9692307692307692,0.6127907792731812
0.989010989010989,0.6074349300736644
1.0087912087912088,0.6129155791432459
1.0285714285714287,0.6289299614894426
1.0483516483516484,0.65464703969386
1.0681318681318681,0.6888880206787735
1.087912087912088,0.7303322419790387
1.1076923076923075,0.7776812083346825
1.1274725274725275,0.8297563427945331
1.1472527472527472,0.8855390900948379
1.1670329670329669,0.9441738241232133
1.1868131868131868,1.0049519810050862
1.2065934065934065,1.0672895087701237
1.2263736263736265,1.1307040973639142
1.2461538461538462,1.1947949994931266
1.2659340659340659,1.2592262689701523
1.2857142857142858,1.3237133166113322
1.3054945054945055,1.3880123307312928
1.3252747252747252,1.4519120328196553
1.3450549450549452,1.515227279179567
1.3648351648351649,1.5777940978854232
1.3846153846153846,1.6394658326115246
1.4043956043956045,1.700110137360139
1.4241758241758242,1.7596066253592837
1.443956043956044,1.8178450219572995
1.4637362637362636,1.8747237071531244
1.4835164835164834,1.930148560633045
1.5032967032967033,1.984032042777322
1.523076923076923,2.036292460645772
1.542857142857143,2.0868533796945896
1.5626373626373626,2.1356431508689613
1.5824175824175823,2.1825945294723796
1.6021978021978023,2.227644367368672
1.621978021978022,2.2707333640246525
1.6417582417582417,2.311805864945124
1.6615384615384616,2.3508096984102482
1.6813186813186813,2.3876960432595404
1.7010989010989013,2.422419321904136
1.720879120879121,2.454937113878429
1.7406593406593405,2.485210086137301
1.7604395604395604,2.5132019370161625
1.7802197802197801,2.5388793513408072
1.7999999999999998,2.5622119646322066
1.8197802197802198,2.583172334722559
1.8395604395604395,2.6017359194012317
1.8593406593406594,2.617881058958222
1.879120879120879,2.6315889626977813
1.8989010989010988,2.642843698667112
1.9186813186813187,2.651632185990327
1.9384615384615385,2.6579441893219538
1.9582417582417584,2.6617723150425534
1.978021978021978,2.6631120089150655
1.9978021978021978,2.661961555006852
2.0175824175824175,2.658322075763783
2.0373626373626372,2.652197533199258
2.0571428571428574,2.643594731237506
2.076923076923077,2.6325233193276443
2.096703296703297,2.6189957975259386
2.1164835164835165,2.603027523330807
2.1362637362637362,2.5846367206516803
2.1560439560439564,2.5638444914012717
2.175824175824176,2.540674830326475
2.195604395604396,2.515154643838734
2.215384615384615,2.487313773778578
2.2351648351648348,2.4571850272559628
2.254945054945055,2.4248042139584913
2.2747252747252746,2.3902101926250343
2.2945054945054943,2.3534449287563053
2.314285714285714,2.3145535660963086
2.3340659340659338,2.2735845149933653
2.353846153846154,2.2305895614668727
2.3736263736263736,2.1856240017090385
2.3934065934065933,2.138746807891333
2.413186813186813,2.0900208325951093
2.4329670329670328,2.0395130610385133
2.452747252747253,1.9872949226514023
2.4725274725274726,1.9334426766232036
2.4923076923076923,1.8780378900386674
2.512087912087912,1.8211680324205974
2.5318681318681318,1.7629272173209993
2.5516483516483515,1.7034171305801453
2.5714285714285716,1.6427481967304665
2.5912087912087913,1.581041050717877
2.610989010989011,1.5184284029035668
2.6307692307692307,1.4550574127980815
2.6505494505494505,1.3910927231213266
2.6703296703296706,1.3267203527481441
2.6901098901098903,1.2621527068227416
2.70989010989011,1.1976350353065892
2.7296703296703297,1.1334537538058906
2.7494505494505495,1.069947119040982
2.769230769230769,1.0075187902916702
2.7890109890109893,0.9466547279156683
2.808791208791209,0.8879435181583504
2.8285714285714287,0.8320992689219157
2.8483516483516484,0.7799842056033
2.8681318681318677,0.7326243960954654
2.887912087912088,0.691206359670781
2.9076923076923076,0.657035988055086
2.9274725274725273,0.6314393302640038
2.947252747252747,0.6155969801875769
2.9670329670329667,0.610337307337384
2.986813186813187,0.6159565272601093
3.0065934065934066,0.6321474239812515
3.0263736263736263,0.6580738335486064
3.046153846153846,0.6925520972790281
3.0659340659340657,0.7342573701609802
3.085714285714286,0.78188769113842
3.1054945054945056,0.8342616072867017
3.1252747252747253,0.8903581350798127
3.145054945054945,0.9493195593531221
3.1648351648351647,1.0104354920681575
3.184615384615385,1.0731202705118703
3.2043956043956046,1.1368901492857986
3.2241758241758243,1.2013430911607472
3.243956043956044,1.2661419807889491
3.2637362637362637,1.3310011600397116
3.2835164835164834,1.3956758312982118
3.3032967032967036,1.4599537988292233
3.3230769230769233,1.5236490585799523
3.342857142857143,1.5865968254147944
3.3626373626373627,1.6486496690034602
3.3824175824175824,1.7096745020986452
3.4021978021978025,1.7695502242195462
3.4219780219780223,1.8281658703527015
3.441758241758242,1.8854191501282755
3.4615384615384617,1.9412152901926731
3.481318681318681,1.9954661131178242
3.501098901098901,2.0480893017550894
3.520879120879121,2.099007809703829
3.5406593406593405,2.1481493874717104
3.5604395604395602,2.1954462006729654
3.58021978021978,2.240834521775756
3.5999999999999996,2.2842544808696204
3.61978021978022,2.3256498639749554
3.6395604395604395,2.3649679497794636
3.659340659340659,2.4021593775256145
3.679120879120879,2.437178040213564
3.6989010989010986,2.469980998416929
3.718681318681319,2.5005284109055537
3.7384615384615385,2.5287834789830015
3.758241758241758,2.5547124020174676
3.7780219780219784,2.578284342104301
3.7978021978021976,2.5994713961708613
3.8175824175824173,2.6182485741375463
3.8373626373626375,2.634593781998382
3.8571428571428568,2.6484878088907706
3.876923076923077,2.659914317396524
3.896703296703296,2.668859836462109
3.916483516483517,2.675313756451013
3.936263736263736,2.679268325949335
3.956043956043956,2.6807186500427367
3.9758241758241755,2.679662689869454
3.9956043956043956,2.676101263335845
4.015384615384615,2.670038046958272
4.035164835164835,2.661479578871824
4.054945054945055,2.650435263124377
4.0747252747252745,2.636917375455867
4.094505494505494,2.620941070850777
4.114285714285715,2.6025243932492095
4.134065934065934,2.5816882879114216
4.153846153846154,2.5584566170575256
4.173626373626373,2.532856179551535
4.193406593406594,2.5049167355741138
4.213186813186813,2.4746710374380156
4.232967032967033,2.442154867952992
4.252747252747253,2.407407088055841
4.2725274725274724,2.370469695799375
4.292307692307692,2.331387899261443
4.312087912087913,2.290210206516105
4.331868131868132,2.2469885365346296
4.351648351648352,2.201778355796638
4.371428571428571,2.154638846544798
4.391208791208792,2.1056331140820594
4.410989010989011,2.054828442383059
4.43076923076923,2.0022966096970136
4.450549450549451,1.9481142789258739
4.4703296703296695,1.8923634815942065
4.49010989010989,1.8351322194879625
4.50989010989011,1.776515214933678
4.52967032967033,1.7166148497632006
4.549450549450549,1.6555423449904976
4.569230769230769,1.5934192490850667
4.589010989010989,1.5303793237281502
4.608791208791209,1.4665709437005654
4.628571428571428,1.4021601640400485
4.648351648351649,1.3373346550065246
4.6681318681318675,1.2723087656310312
4.687912087912088,1.2073300501668511
4.707692307692308,1.1426876748401869
4.7274725274725276,1.078723200985961
4.747252747252747,1.0158442789145572
4.767032967032967,0.9545417039257623
4.786813186813187,0.895409917359541
4.806593406593407,0.8391700772784585
4.826373626373626,0.7866927830179341
4.846153846153847,0.7390137997805232
4.8659340659340655,0.6973304109397371
4.885714285714286,0.662959679335484
4.905494505494506,0.6372380882648991
4.9252747252747255,0.6213544320713523
4.945054945054945,0.6161416326195064
4.964835164835165,0.621896064844539
4.984615384615385,0.6383065373711686
5.004395604395604,0.6645298473755163
5.024175824175824,0.6993735927222778
5.043956043956045,0.7415036691972698
5.0637362637362635,0.7896091635620655
5.083516483516483,0.8425004406394748
5.103296703296703,0.8991492965174535
5.123076923076923,0.9586917765306849
5.142857142857143,1.0204121588399755
5.162637362637362,1.083720236832796
5.182417582417583,1.148128386676398
5.2021978021978015,1.2132312416774298
5.221978021978022,1.2786888044144291
5.241758241758242,1.3442128970463418
5.2615384615384615,1.4095564951601427
5.281318681318681,1.474505413231888
5.301098901098901,1.5388718498139096
5.320879120879121,1.6024893793236314
5.340659340659341,1.6652090598280016
5.36043956043956,1.7268963990484199
5.380219780219781,1.787428980385049
5.3999999999999995,1.8466945976042757
5.41978021978022,1.9045897828857685
5.43956043956044,1.9610186403515553
5.4593406593406595,2.015891917949233
5.479120879120879,2.0691262662294814
5.498901098901099,2.120643644399276
5.518681318681319,2.1703708430004545
5.538461538461538,2.2182390993798147
5.558241758241758,2.2641837873189226
5.578021978021979,2.3081441661811692
5.5978021978021975,2.3500631780064842
5.617582417582418,2.38988728336536
5.637362637362637,2.427566328637168
5.6571428571428575,2.4630534388290286
5.676923076923077,2.4963049311933965
5.696703296703297,2.5272802458065993
5.716483516483517,2.5559418899895077
5.736263736263735,2.5822553940276736
5.756043956043956,2.6061892761108743
5.775824175824176,2.627715014788155
5.795604395604395,2.646807027539806
5.815384615384615,2.6634426543196597
5.835164835164835,2.6776021451287133
5.854945054945055,2.6892686508555075
5.874725274725275,2.69842821676556
5.894505494505494,2.705069778148358
5.914285714285715,2.7091851577397255
5.934065934065933,2.7107690646350955
5.953846153846154,2.709819094497108
5.973626373626374,2.706335730943122
5.993406593406593,2.7003223480767944
6.013186813186813,2.691785214205321
6.032967032967033,2.680733496862772
6.052747252747253,2.6671792693426952
6.072527472527473,2.6511375190321522
6.092307692307692,2.6326261579380037
6.112087912087913,2.611666035907643
6.131868131868131,2.588280957174527
6.151648351648352,2.5624977010087133
6.171428571428572,2.534346047430334
6.191208791208791,2.5038588091560943
6.210989010989011,2.471071871206276
6.230769230769231,2.436024239911976
6.2505494505494505,2.3987581034467538
6.270329670329671,2.359318906480708
6.29010989010989,2.317755442144219
6.309890109890111,2.27411996522509
6.329670329670329,2.228468331448283
6.349450549450549,2.180860168857445
6.36923076923077,2.1313590888040994
6.3890109890109885,2.0800329459498874
6.408791208791209,2.0269541591273774
6.428571428571428,1.9722001080560259
6.4483516483516485,1.9158536249994909
6.468131868131868,1.8580036057861093
6.487912087912088,1.7987457716054451
6.507692307692308,1.7381836221942837
6.527472527472527,1.6764296331731494
6.547252747252747,1.61360676637023
6.567032967032967,1.5498503832568
6.5868131868131865,1.4853106797522986
6.606593406593407,1.4201557976272992
6.626373626373626,1.3545758157412944
6.6461538461538465,1.2887878853392565
6.665934065934065,1.2230428480421864
6.685714285714286,1.157633759141496
6.705494505494506,1.09290681816384
6.725274725274725,1.0292752467965751
6.745054945054945,0.9672365692034993
6.764835164835165,0.9073933748625915
6.7846153846153845,0.8504766713297207
6.804395604395605,0.7973688659774654
6.824175824175824,0.7491196307638713
6.8439560439560445,0.7069421213172887
6.863736263736263,0.6721706174704255
6.883516483516484,0.6461588547631463
6.903296703296704,0.6301108937066234
6.923076923076923,0.6248705566877142
6.942857142857143,0.6307387707264663
6.962637362637362,0.6474017779621252
6.9824175824175825,0.6740074678979142
7.002197802197802,0.7093501242016167
7.021978021978022,0.7520802031777721
7.041758241758242,0.80087114950187
7.061538461538461,0.854518734657498
7.081318681318681,0.9119818210590841
7.101098901098901,0.972385337516267
7.1208791208791204,1.0350041627116353
7.140659340659341,1.0992401930810518
7.16043956043956,1.1645991666748656
7.1802197802197805,1.2306701074270836
7.199999999999999,1.2971082379526002
7.21978021978022,1.3636212649747061
7.23956043956044,1.4299585803093262
7.259340659340659,1.4959028408251889
7.279120879120879,1.5612634305061701
7.298901098901099,1.6258713869724302
7.318681318681318,1.6895754580572355
7.338461538461539,1.752239027600229
7.358241758241758,1.8137377098370375
7.3780219780219785,1.8739574591430348
7.397802197802197,1.9327930783663525
7.417582417582418,1.9901470367433476
7.437362637362638,2.0459285293947347
7.457142857142857,2.100052726266607
7.476923076923077,2.1524401703717735
7.496703296703297,2.2030162942713796
7.516483516483516,2.251711030641692
7.536263736263736,2.298458498041901
7.556043956043957,2.3431967470401394
7.575824175824176,2.385867554970055
7.595604395604395,2.426416260002131
7.615384615384615,2.4647916270936046
7.635164835164835,2.5009457398506583
7.654945054945055,2.5348339134950924
7.674725274725275,2.5664146250431603
7.694505494505494,2.595649457534136
7.7142857142857135,2.6225030557289566
7.734065934065935,2.646943091169924
7.753846153846154,2.66894023487225
7.7736263736263735,2.6884681362290865
7.793406593406592,2.7055034069661903
7.813186813186814,2.720025609193892
7.832967032967034,2.7320172467798955
7.852747252747252,2.7414637594164413
7.872527472527472,2.748353518882356
7.892307692307693,2.752677827112506
7.912087912087912,2.7544309157852567
7.931868131868132,2.753609947228691
7.951648351648351,2.7502150165289283
7.971428571428572,2.7442491548044927
7.991208791208791,2.735718333688514
8.010989010989011,2.724631471141431
8.03076923076923,2.7110004388002813
8.05054945054945,2.6948400711616562
8.07032967032967,2.6761681769953762
8.09010989010989,2.6550055534993215
8.10989010989011,2.631376003836236
8.129670329670331,2.6053063588456378
8.149450549450549,2.5768265039047282
8.169230769230769,2.5459694121282923
8.189010989010988,2.51277118535875
8.20879120879121,2.4772711047160123
8.22857142857143,2.439511692867001
8.248351648351647,2.3995387906572945
8.268131868131867,2.3574016513463616
8.287912087912087,2.313153056437028
8.307692307692308,2.2668494580312264
8.327472527472528,2.218551153833966
8.347252747252746,2.1683225024393242
8.367032967032966,2.1162321884647226
8.386813186813187,2.062353549580582
8.406593406593407,2.006764980687571
8.426373626373627,1.949550434652573
8.446153846153845,1.8908000444402193
8.465934065934066,1.8306108985863974
8.485714285714286,1.7690880113165728
8.505494505494505,1.706345540964215
8.525274725274725,1.6425083266935498
8.545054945054945,1.5777138351787066
8.564835164835165,1.5121146375052124
8.584615384615384,1.4458815741636248
8.604395604395604,1.3792078148469749
8.624175824175826,1.3123140818264756
8.643956043956043,1.245455381446589
8.663736263736263,1.1789296738729402
8.683516483516483,1.1130889923274052
8.703296703296704,1.0483535626031355
8.723076923076924,0.9852293886681661
8.742857142857142,0.9243293917018327
8.762637362637362,0.8663972054627848
8.782417582417583,0.8123306346467345
8.802197802197803,0.7631979418133819
8.821978021978023,0.720234249306462
8.84175824175824,0.6847988063841871
8.86153846153846,0.6582719671358686
8.881318681318682,0.6418833822780956
8.901098901098901,0.6364975749530982
8.920879120879121,0.6424272509558769
8.940659340659339,0.6593589777105078
8.96043956043956,0.6864297519343734
8.98021978021978,0.7224145732444489
9.0,0.7659402010958097
9.01978021978022,0.8156555496755559
9.03956043956044,0.8703334090639914
9.05934065934066,0.9289123754987182
9.079120879120879,0.9905001289055874
9.098901098901099,1.0543571388804378
9.11868131868132,1.119873352039163
9.138461538461538,1.1865445910970438
9.158241758241758,1.253951605624238
9.178021978021977,1.3217426501569178
9.197802197802199,1.3896194975112515
9.217582417582419,1.457326423928813
9.237362637362637,1.5246416200871449
9.257142857142856,1.5913705217567267
9.276923076923078,1.6573406343376593
9.296703296703297,1.722397510250099
9.316483516483517,1.7864016131184364
9.336263736263735,1.8492258640886332
9.356043956043957,1.9107537139394262
9.375824175824176,1.9708776218575572
9.395604395604396,2.029497850066186
9.415384615384616,2.086521504926339
9.435164835164835,2.141861771318858
9.454945054945055,2.195437299349513
9.474725274725275,2.2471717116885395
9.494505494505495,2.296993206901387
9.514285714285714,2.344834239504937
9.534065934065934,2.39063126160706
9.553846153846154,2.4343245141651253
9.573626373626373,2.475857858360299
9.593406593406593,2.515178639501219
9.613186813186815,2.5522375773709434
9.632967032967032,2.5869886781122076
9.652747252747252,2.619389163680368
9.672527472527472,2.6493994156375313
9.692307692307693,2.6769829306562487
9.712087912087913,2.7021062855806655
9.731868131868131,2.7247391102809164
9.75164835164835,2.7448540668531822
9.771428571428572,2.7624268339777225
9.791208791208792,2.7774360954624475
9.810989010989012,2.789863532179679
9.83076923076923,2.799693816755635
9.850549450549451,2.806914610502928
9.87032967032967,2.811516562199288
9.89010989010989,2.8134933084168527
9.90989010989011,2.8128414751972253
9.92967032967033,2.8095606809526807
9.94945054945055,2.8036535405551968
9.96923076923077,2.7951256706548917
9.989010989010989,2.783985696351629
10.008791208791209,2.7702452594284908
10.028571428571428,2.753919028448735
10.048351648351648,2.735024711119586
10.068131868131868,2.7135830694415803
10.08791208791209,2.689617938295234
10.107692307692307,2.6631562482718345
10.127472527472527,2.6342280537392084
10.147252747252747,2.602866567353483
10.167032967032966,2.5691082024937946
10.186813186813188,2.532992625421277
10.206593406593406,2.494562819361113
10.226373626373626,2.4538651631975656
10.246153846153845,2.410949528082446
10.265934065934067,2.3658693960198276
10.285714285714286,2.3186820054487547
10.305494505494504,2.2694485300575424
10.325274725274724,2.218234298602578
10.345054945054946,2.1651090654726723
10.364835164835165,2.1101473442668928
10.384615384615385,2.053428819917772
10.404395604395603,1.9950388591287738
10.424175824175824,1.935069144421824
10.443956043956044,1.8736184643352123
10.463736263736264,1.810793701847172
10.483516483516484,1.7467110756933937
10.503296703296703,1.681497705918326
10.523076923076923,1.6152935970876467
10.542857142857143,1.5482541618010748
10.562637362637362,1.4805534455694231
10.582417582417584,1.4123882640872722
10.602197802197802,1.343983527542922
10.621978021978022,1.2755991044840234
10.641758241758241,1.207538666193119
10.661538461538463,1.1401610373413964
