Frequency (Hz),Amplitude
0.0,0.8320886102196554
0.019867549668874173,0.8952441469906491
0.039735099337748346,1.0622162826460209
0.059602649006622516,1.2929058732825656
0.07947019867549669,1.5585969324062985
0.09933774834437085,1.8434125500580927
0.11920529801324503,2.1388356336097454
0.13907284768211922,2.4400667104061244
0.15894039735099338,2.7442028542290413
0.17880794701986755,3.049355082111646
0.1986754966887417,3.3542062531822805
0.2185430463576159,3.6577786249712827
0.23841059602649006,3.959305500931023
0.2582781456953642,4.258157091176607
0.27814569536423844,4.553795944014418
0.2980132450331126,4.84574920414645
0.31788079470198677,5.133590816517787
0.33774834437086093,5.416929811143063
0.3576158940397351,5.695402419691968
0.3774834437086093,5.968666672170137
0.3973509933774834,6.236398637642707
0.4172185430463576,6.498289778237829
0.4370860927152318,6.75404507144865
0.45695364238410596,7.003381671656992
0.4768211920529801,7.24602795576922
0.49668874172185434,7.481722846045446
0.5165562913907285,7.710215335201716
0.5364238410596026,7.931264160484695
0.5562913907284769,8.144637588262302
0.5761589403973509,8.350113281019249
0.5960264900662252,8.547478225955176
0.6158940397350993,8.73652870961504
0.6357615894039735,8.917070326770625
0.6556291390728477,9.088918014548822
0.6754966887417219,9.25189610485734
0.695364238410596,9.405838389697198
0.7152317880794702,9.550588195111686
0.7350993377483444,9.685998460407523
0.7549668874172186,9.811931819964554
0.7748344370860927,9.928260685479076
0.7947019867549668,10.034867326899326
0.8145695364238411,10.131643950638944
0.8344370860927152,10.218492773914358
0.8543046357615894,10.295326094261997
0.8741721854304636,10.362066353461575
0.8940397350993378,10.41864619523175
0.9139072847682119,10.465008516181305
0.9337748344370861,10.501106509596916
0.9536423841059603,10.526903701733275
0.9735099337748344,10.542373980344387
0.9933774834437087,10.547501615260389
1.0132450331125828,10.542281270873744
1.033112582781457,10.52671801045373
1.0529801324503312,10.50082729226154
1.0728476821192052,10.46463495749051
1.0927152317880795,10.418177210108936
1.1125827814569538,10.361500588738316
1.1324503311258278,10.294661930758963
1.1523178807947019,10.217728328900073
1.1721854304635762,10.130777080644684
1.1920529801324504,10.033895630863118
1.2119205298013245,9.927181508187017
1.2317880794701985,9.810742255751466
1.2516556291390728,9.684695357072217
1.271523178807947,9.549168157994258
1.2913907284768211,9.40429778585647
1.3112582781456954,9.250231067275944
1.3311258278145695,9.087124446280344
1.3509933774834437,8.91514390492791
1.370860927152318,8.734464889080181
1.390728476821192,8.5452722426694
1.410596026490066,8.347760154682861
1.4304635761589404,8.142132124241819
1.4503311258278146,7.928600950682022
1.4701986754966887,7.707388757588884
1.4900662251655628,7.478727062503921
1.5099337748344372,7.242856907792491
1.5298013245033113,7.0000290733742805
1.5496688741721854,6.75050439930173
1.5695364238410596,6.4945542564850935
1.5894039735099337,6.2324612186687895
1.609271523178808,5.964520010339355
1.6291390728476822,5.691038837195977
1.6490066225165563,5.412341253965524
1.6688741721854303,5.128768798301714
1.6887417218543048,4.840684735490662
1.7086092715231789,4.548479444759819
1.728476821192053,4.252578284071534
1.7483443708609272,3.953453287843324
1.7682119205298013,3.651640954207832
1.7880794701986755,3.3477700047495635
1.8079470198675496,3.042606042019133
1.8278145695364238,2.7371259569805275
1.847682119205298,2.4326469990214807
1.8675496688741722,2.131061086635331
1.8874172185430464,1.835281813354512
1.9072847682119205,1.5501402473935764
1.9271523178807946,1.2842418525118844
1.9470198675496688,1.0536985530768035
1.9668874172185429,0.8877457553464221
1.9867549668874174,0.8270456181850054
2.0066225165562916,0.8935588255499152
2.0264900662251657,1.0634800256810857
2.0463576158940397,1.2962790132976802
2.066225165562914,1.5634410111455794
2.086092715231788,1.849329561008895
2.1059602649006623,2.1455825060245655
2.1258278145695364,2.4474904653218723
2.1456953642384105,2.7522030892882317
2.165562913907285,3.0578630583717086
2.185430463576159,3.3631730069840273
2.205298013245033,3.667167970054928
2.2251655629139075,3.9690897519264623
2.2450331125827816,4.268314355063433
2.2649006622516556,4.564308347610791
2.2847682119205297,4.856601699461813
2.3046357615894038,5.144770354048353
2.324503311258278,5.428424754126837
2.3443708609271523,5.707202120241104
2.364238410596027,5.980761158703387
2.384105960264901,6.248778380479309
2.403973509933775,6.510945511157113
2.423841059602649,6.766967654048682
2.443708609271523,7.016561981957293
2.463576158940397,7.259456805588386
2.4834437086092715,7.495390913786849
2.5033112582781456,7.724113112135661
2.52317880794702,7.945381907639334
2.543046357615894,8.15896530176519
2.562913907284768,8.364640664258346
2.5827814569536423,8.562194667313491
2.6026490066225163,8.75142326481762
2.622516556291391,8.932131705095152
2.642384105960265,9.104134568311135
2.662251655629139,9.267255821704936
2.6821192052980134,9.421328887336651
2.7019867549668874,9.566196718168147
2.7218543046357615,9.701711879169785
2.741721854304636,9.827736630812934
2.76158940397351,9.94414301282703
2.781456953642384,10.050812926506808
2.801324503311258,10.147638214176075
2.821192052980132,10.234520734670673
2.8410596026490067,10.311372433909415
2.8609271523178808,10.378115409789087
2.8807947019867552,10.434681970777502
2.9006622516556293,10.4810146876934
2.9205298013245033,10.517066438258455
2.9403973509933774,10.542800444089455
2.9602649006622515,10.558190299871317
2.9801324503311255,10.563219994515256
3.0,10.557883924165296
3.0198675496688745,10.542186896970415
3.0397350993377485,10.516144129591812
3.0596026490066226,10.479781235465984
3.0794701986754967,10.433134204896245
3.0993377483443707,10.37624937709923
3.119205298013245,10.309183404390941
3.1390728476821192,10.23200320876025
3.1589403973509933,10.144785931148858
3.1788079470198674,10.047618873838548
3.198675496688742,9.94059943644124
3.218543046357616,9.823835046100422
3.23841059602649,9.697443082647144
3.2582781456953644,9.56155079961877
3.2781456953642385,9.416295242250527
3.2980132450331126,9.261823163801216
3.3178807947019866,9.098290941889177
3.3377483443708607,8.925864496914409
3.3576158940397347,8.744719215151457
3.3774834437086096,8.555039879755496
3.3973509933774837,8.357020613778053
3.4172185430463577,8.150864840410721
3.437086092715232,7.936785267160859
3.456953642384106,7.715003902651381
3.47682119205298,7.485752117423119
3.4966887417218544,7.249270763789051
3.5165562913907285,7.005810374861033
3.5364238410596025,6.755631469963414
3.556291390728477,6.499005003698639
3.576158940397351,6.236213010370704
3.596026490066225,5.967549516534068
3.615894039735099,5.693321825656526
3.6357615894039736,5.413852325987627
3.6556291390728477,5.129481045164833
3.6754966887417218,4.840569288855822
3.695364238410596,4.5475048835573535
3.7152317880794703,4.250709844981775
3.7350993377483444,3.9506518040976535
3.754966887417219,3.647861415364888
3.774834437086093,3.3429595857051773
3.794701986754967,3.0367013938896847
3.814569536423841,2.73004950384843
3.834437086092715,2.424302025336647
3.854304635761589,2.1213258434990334
3.8741721854304636,1.8240048586780397
3.8940397350993377,1.53714689041633
3.9139072847682117,1.2693892721951325
3.9337748344370858,1.0371044286664086
3.9536423841059607,0.8704510913133775
3.9735099337748347,0.8117530972167922
3.993377483443709,0.8830572497846929
4.013245033112583,1.058201294467246
4.033112582781457,1.2952379836908199
4.052980132450331,1.5656254692242064
4.072847682119205,1.854023186770896
4.0927152317880795,2.152311575382238
4.112582781456953,2.4559386836569446
4.132450331125828,2.762152588380859
4.152317880794702,3.069158250205315
4.172185430463576,3.3756987149511293
4.19205298013245,3.6808359520756695
4.211920529801325,3.983830164933078
4.231788079470199,4.28407019120752
4.251655629139073,4.581031706382216
4.271523178807947,4.874251225869947
4.291390728476821,5.1633094373656245
4.311258278145695,5.447820235157999
4.33112582781457,5.727423346457186
4.3509933774834435,6.001779282376961
4.370860927152318,6.270565829863954
4.390728476821192,6.533475587092213
4.410596026490066,6.790214218970918
4.43046357615894,7.040499218031254
4.450331125827815,7.284059025273002
4.470198675496689,7.52063241071123
4.490066225165563,7.7499680433523395
4.509933774834438,7.971824200592555
4.529801324503311,8.18596858094778
4.549668874172186,8.392178193722975
4.569536423841059,8.590239306083786
4.589403973509934,8.779947432900048
4.6092715231788075,8.961107358286219
4.629139072847682,9.133533180368827
4.649006622516556,9.29704837274097
4.66887417218543,9.451485857507114
4.688741721854305,9.59668808591273
4.708609271523179,9.732507123384499
4.728476821192054,9.85880473644713
4.748344370860927,9.975452479479594
4.768211920529802,10.082331779662818
4.788079470198675,10.179334018778409
4.80794701986755,10.266360610763334
4.827814569536423,10.343323074122916
4.847682119205298,10.410143098465436
4.867549668874172,10.466752604553504
4.887417218543046,10.513093797377588
4.9072847682119205,10.54911921184982
4.927152317880794,10.574791750796196
4.947019867549669,10.59008471499384
4.966887417218543,10.594981825062751
4.986754966887418,10.589477235076936
5.006622516556291,10.573575537811989
5.026490066225166,10.54729176159695
5.04635761589404,10.510651358786383
5.066225165562914,10.463690185919333
5.086092715231788,10.406454475682736
5.105960264900662,10.339000800852432
5.125827814569536,10.261396030445619
5.14569536423841,10.17371727838578
5.1655629139072845,10.076051845058977
5.185430463576159,9.968497152230821
5.205298013245033,9.851160671899255
5.225165562913908,9.724159849787513
5.245033112582782,9.58762202433612
5.264900662251656,9.4416843422445
5.28476821192053,9.286493671850362
5.304635761589404,9.122206515932154
5.324503311258278,8.948988925897625
5.344370860927152,8.767016419802962
5.364238410596027,8.576473907267966
5.3841059602649,8.377555625160895
5.403973509933775,8.170465088987562
5.4238410596026485,7.955415066325164
5.443708609271523,7.732627580524271
5.463576158940397,7.502333955447335
5.483443708609272,7.264774915493266
5.503311258278146,7.020200759969925
5.52317880794702,6.768871637614867
5.543046357615895,6.511057956621226
5.562913907284768,6.247040979272516
5.582781456953643,5.977113670365972
5.602649006622516,5.701581898406164
5.622516556291391,5.4207661335879935
5.642384105960264,5.135003855980746
5.662251655629139,4.844652996539483
5.682119205298013,4.550096909511586
5.701986754966887,4.251751665617233
5.7218543046357615,3.9500769499063835
5.741721854304636,3.645592716028964
5.7615894039735105,3.33890532584582
5.781456953642384,3.0307498833444386
5.801324503311259,2.7220613503015203
5.821192052980132,2.4140991868853137
5.841059602649007,2.1086766857155737
5.860927152317881,1.8086064813917049
5.880794701986755,1.5186162070373332
5.900662251655629,1.2473172758262
5.920529801324503,1.0113835853836266
5.940397350993377,0.8424072652216525
5.960264900662251,0.7857220023796049
5.980132450331126,0.863973865379786
6.0,1.0471285972613176
6.0198675496688745,1.2907835179804628
6.039735099337749,1.5662680386866834
6.059602649006623,1.858669754589219
6.079470198675497,2.1602320914896094
6.099337748344371,2.4666413625892663
6.119205298013245,2.775295742663785
6.139072847682119,3.08449575315374
6.158940397350993,3.393046774576003
6.178807947019867,3.70005251832963
6.198675496688741,4.004801824340819
6.218543046357616,4.306703589018982
6.23841059602649,4.605247779113457
6.258278145695365,4.8999812263565445
6.2781456953642385,5.190492133378213
6.298013245033113,5.476399895330291
6.317880794701987,5.7573482664179645
6.337748344370861,6.033000689265504
6.357615894039735,6.303037056947305
6.377483443708609,6.56715144457179
6.397350993377484,6.825050509594986
6.417218543046357,7.0764523611853924
6.437086092715232,7.32108576346308
6.456953642384105,7.558689579438478
6.47682119205298,7.78901239035509
6.496688741721854,8.011812243973546
6.516556291390729,8.226856498263805
6.5364238410596025,8.43392173598197
6.556291390728477,8.632793731974955
6.5761589403973515,8.823267459613481
6.596026490066225,9.005147126055297
6.6158940397351,9.178246228459917
6.635761589403973,9.342387625068575
6.655629139072848,9.49740361640307
6.675496688741721,9.643136032851265
6.695364238410596,9.779436325679042
6.715231788079469,9.906165659103374
6.735099337748344,10.023195001523336
6.754966887417219,10.130405214367327
6.774834437086093,10.22768713730135
6.794701986754967,10.314941668771406
6.814569536423841,10.392079841036935
6.8344370860927155,10.459022889002446
6.854304635761589,10.515702312277346
6.874172185430464,10.56205992999714
6.894039735099337,10.598047928025853
6.913907284768212,10.623628898234061
6.933774834437086,10.638775869611854
6.95364238410596,10.64347233103423
6.973509933774834,10.637712245548576
6.993377483443709,10.621500056103436
7.013245033112583,10.594850682684317
7.033112582781457,10.557789510868336
7.052980132450331,10.510352371856337
7.072847682119205,10.452585514088707
7.0927152317880795,10.384545566603451
7.112582781456954,10.306299494350176
7.132450331125828,10.217924545737525
7.152317880794702,10.11950819276231
7.172185430463576,10.011148064152401
7.19205298013245,9.892951872053343
7.211920529801324,9.765037332906623
7.231788079470198,9.627532083310179
7.251655629139073,9.480573591827262
7.271523178807947,9.324309067927429
7.291390728476822,9.15889536951631
7.311258278145695,8.984498910856482
7.33112582781457,8.801295573122882
7.3509933774834435,8.609470620405853
7.370860927152318,8.409218624715264
7.390728476821192,8.20074340451238
7.410596026490066,7.984257982587048
7.430463576158941,7.759984570826007
7.450331125827814,7.5281545917588675
7.470198675496689,7.289008749970057
7.490066225165562,7.042797170898803
7.509933774834438,6.789779630763305
7.52980132450331,6.530225910171334
7.549668874172186,6.264416316695177
7.569536423841059,5.992642440290807
7.589403973509934,5.7152082331104435
7.6092715231788075,5.432431547164491
7.629139072847682,5.144646328023085
7.649006622516557,4.85220576492722
7.66887417218543,4.5554868628454415
7.6887417218543055,4.254897176091208
7.708609271523178,3.950884911360845
7.728476821192054,3.6439544343612513
7.748344370860927,3.3346907261020124
7.768211920529802,3.0237992155562234
7.788079470198675,2.712173157924652
7.80794701986755,2.4010127652930007
7.827814569536423,2.0920469461454823
7.847682119205298,1.7879709042326386
7.8675496688741715,1.4933659438020987
7.887417218543046,1.2167443116584402
7.907284768211921,0.9751201315056575
7.927152317880795,0.8021820100846848
7.9470198675496695,0.7481151607619333
7.966887417218543,0.8365508228499139
7.986754966887418,1.031237950966158
8.006622516556291,1.284223380982269
8.026490066225167,1.5668196248001847
8.046357615894038,1.8647888162761639
8.066225165562914,2.170902326940569
8.086092715231787,2.4811826343364474
8.105960264900663,2.7932365095355918
8.125827814569536,3.105496179311458
8.14569536423841,3.4168525216548025
8.165562913907285,3.7264663345039737
8.185430463576159,4.033665552512945
8.205298013245034,4.3378864283333005
8.225165562913906,4.638638409574476
8.245033112582782,4.935482389637361
8.264900662251655,5.228016818309098
8.28476821192053,5.515868598392918
8.304635761589404,5.7986869891315695
8.324503311258278,6.076139451392696
8.344370860927151,6.34790877774793
8.364238410596027,6.613691091310946
8.3841059602649,6.873194443266751
8.403973509933774,7.126137829949234
8.42384105960265,7.372250508252208
8.443708609271523,7.611271525851825
8.463576158940398,7.842949407722596
8.483443708609272,8.067041957310526
8.503311258278146,8.2833161423138
8.52317880794702,8.491548043091761
8.543046357615895,8.691522847425746
8.562913907284768,8.883034879435824
8.582781456953642,9.065887653413977
8.602649006622515,9.239893945500665
8.62251655629139,9.404875877736222
8.642384105960264,9.560665010219358
8.66225165562914,9.707102438012646
8.682119205298013,9.844038890126857
8.701986754966887,9.971334828449729
8.721854304635762,10.088860544898058
8.741721854304636,10.196496255397815
8.76158940397351,10.294132189553197
8.781456953642383,10.381668675071126
8.801324503311259,10.459016216173572
8.821192052980132,10.526095565364722
8.841059602649008,10.58283778803149
8.86092715231788,10.629184319449022
8.880794701986755,10.665087013841275
8.90066225165563,10.690508185214359
8.920529801324504,10.705420639739689
8.940397350993377,10.709807699516467
8.960264900662251,10.703663217591004
8.980132450331126,10.686991584155317
9.0,10.65980772388986
9.019867549668875,10.622137084457508
9.039735099337747,10.574015616197785
9.059602649006623,10.515489743114431
9.079470198675496,10.446616325295645
9.099337748344372,10.367462612956842
9.119205298013245,10.27810619235243
9.139072847682119,10.178634923866639
9.158940397350994,10.06914687266808
9.178807947019868,9.949750232399605
9.198675496688743,9.820563242479624
9.218543046357615,9.681714099717302
9.23841059602649,9.533340865098785
9.258278145695364,9.375591366794099
9.27814569536424,9.208623100674211
9.298013245033111,9.032603129932902
9.317880794701987,8.84770798579601
9.33774834437086,8.65412357180293
9.357615894039736,8.452045074797065
9.37748344370861,8.241676886620404
9.397350993377483,8.023232541645713
9.417218543046358,7.796934676806378
9.437086092715232,7.563015022852328
9.456953642384107,7.32171443839472
9.47682119205298,7.073283002230997
9.496688741721854,6.817980184958177
9.516556291390728,6.556075128730578
9.536423841059603,6.287847075348348
9.556291390728477,6.013585999475464
9.57615894039735,5.73359352855811
9.596026490066224,5.448184268643128
9.6158940397351,5.157687713611224
9.635761589403973,4.862451007736765
9.655629139072847,4.562842981490418
9.675496688741722,4.259260130691974
9.695364238410596,3.952135639133601
9.715231788079471,3.6419533091100718
9.735099337748345,3.329269675027647
9.754966887417218,3.014750292257814
9.774834437086092,2.6992316838566888
9.794701986754967,2.3838321412134804
9.814569536423841,2.0701611241382305
9.834437086092716,1.7607412397418787
9.854304635761588,1.4599222446880122
9.874172185430464,1.1760070409588945
9.894039735099337,0.9263556382346203
9.913907284768213,0.7476522893867278
9.933774834437086,0.6977346383675365
9.95364238410596,0.8012996285353008
9.973509933774835,1.0120402723056123
9.993377483443709,1.2774465065151037
10.013245033112582,1.5693070852601931
10.033112582781456,1.8744652240164958
10.052980132450331,2.186438569452172
10.072847682119205,2.5017013994939576
10.09271523178808,2.8181336051954156
10.112582781456952,3.1343372557515052
10.132450331125828,3.4493124341938155
10.152317880794701,3.762292389383657
10.172185430463577,4.072654448523983
10.192052980132452,4.379869309466974
10.211920529801324,4.683470883242212
10.2317880794702,4.983037681935625
10.251655629139073,5.278180969302946
10.271523178807948,5.568537019356269
10.29139072847682,5.853761950958892
10.311258278145695,6.1335282235313535
10.331125827814569,6.407522230577044
10.350993377483444,6.675442634641135
10.370860927152318,6.936999212636765
10.390728476821192,7.191912058376467
10.410596026490065,7.439911038724683
10.43046357615894,7.680735432020395
10.450331125827816,7.914133698786293
10.470198675496688,8.139863349160473
10.490066225165563,8.35769088137869
10.509933774834437,8.567391772524584
10.529801324503312,8.768750507631237
10.549668874172186,8.961560636699787
10.56953642384106,9.145624851723321
10.589403973509933,9.320755077653192
10.609271523178808,9.486772572614043
10.629139072847682,9.643508033699154
10.649006622516556,9.790801705452965
10.66887417218543,9.928503488738714
10.688741721854305,10.056473048145515
10.70860927152318,10.174579916443541
10.728476821192054,10.28270359487386
10.748344370860927,10.38073364828085
10.7682119205298,10.468569794270712
10.788079470198676,10.5461219857227
10.80794701986755,10.613310486096125
10.827814569536423,10.670065937072714
10.847682119205297,10.716329418153943
