Frequency (Hz),Amplitude
0.0,0.43957452737664404
0.019823788546255508,0.4393485237048876
0.039647577092511016,0.4386707457458833
0.059471365638766524,0.4375418924536735
0.07929515418502203,0.43596312803624876
0.09911894273127755,0.4339360808852161
0.11894273127753305,0.43146284208204155
0.13876651982378857,0.4285459634868173
0.15859030837004406,0.42518845541570227
0.17841409691629956,0.42139378391687643
0.1982378854625551,0.41716586765502134
0.2180616740088106,0.4125090744190199
0.2378854625550661,0.40742821726854733
0.25770925110132165,0.4019285503399953
0.27753303964757714,0.39601576433618757
0.29735682819383263,0.3896959817292381
0.31718061674008813,0.3829757517128236
0.3370044052863437,0.37586204494796643
0.3568281938325991,0.36836224815729257
0.37665198237885467,0.360484158635522
0.3964757709251102,0.35223597876162704
0.41629955947136565,0.343626310621041
0.4361233480176212,0.334664150875621
0.4559471365638767,0.32535888606030006
0.4757709251101322,0.3157202885397865
0.49559471365638774,0.3057585134331995
0.5154185022026433,0.29548409691882616
0.5352422907488987,0.28490795647762
0.5550660792951543,0.27404139384095594
0.5748898678414097,0.2628961017107965
0.5947136563876653,0.25148417576064835
0.6145374449339208,0.2398181340881578
0.6343612334801763,0.2279109472959196
0.6541850220264318,0.21577608394358871
0.6740088105726874,0.20342757860503868
0.6938325991189428,0.19088013383078403
0.7136563876651982,0.17814927413782636
0.7334801762114539,0.16525158196715722
0.7533039647577093,0.15220506675470993
0.7731277533039648,0.1390297578816741
0.7929515418502204,0.12574868978429155
0.8127753303964759,0.11238960744030586
0.8325991189427313,0.09898807149470557
0.8524229074889869,0.08559347058957592
0.8722466960352424,0.0722815756730548
0.8920704845814978,0.05918329473069128
0.9118942731277534,0.04655821715962748
0.931718061674009,0.03500532371591234
0.9515418502202644,0.026074864530178384
0.9713656387665199,0.023102782820619425
0.9911894273127755,0.028066844470499275
1.0110132158590308,0.037962332077482855
1.0308370044052866,0.0499147664254069
1.0506607929515421,0.06272739066101737
1.0704845814977975,0.07592885449501932
1.090308370044053,0.08930630140041293
1.1101321585903086,0.10274809743314209
1.1299559471365639,0.1161873664276082
1.1497797356828194,0.12957921372370168
1.1696035242290752,0.14289051304794226
1.1894273127753305,0.15609490738354675
1.209251101321586,0.169170180822065
1.2290748898678416,0.18209679398373235
1.248898678414097,0.1948570280031062
1.2687224669603525,0.20743446433306348
1.288546255506608,0.21981365849732248
1.3083700440528636,0.2319799303167556
1.3281938325991192,0.24391922648055886
1.3480176211453747,0.2556180293849967
1.36784140969163,0.26706329632363535
1.3876651982378856,0.2782424190309714
1.4074889867841411,0.28914319713568787
1.4273127753303965,0.29975382127403827
1.4471365638766522,0.3100628630002574
1.4669603524229078,0.3200592695291308
1.4867841409691631,0.329732361937102
1.5066079295154187,0.3390718358469413
1.5264317180616742,0.34806776389252336
1.5462555066079295,0.35671059944937866
1.5660792951541853,0.36499118124995156
1.5859030837004409,0.37290073859712297
1.6057268722466962,0.3804308969587429
1.6255506607929517,0.38757368377590046
1.6453744493392073,0.39432153435512274
1.6651982378854626,0.40066729774227816
1.6850220264317182,0.406604242497484
1.7048458149779737,0.41212606230592436
1.7246696035242293,0.4172268813723619
1.7444933920704848,0.4219012595564548
1.7643171806167404,0.4261441972139497
1.7841409691629957,0.4299511397146864
1.8039647577092512,0.43331798161331614
1.8237885462555068,0.4362410704527088
1.8436123348017623,0.4387172101831887
1.863436123348018,0.4407436641834399
1.8832599118942732,0.44231815787162565
1.9030837004405288,0.44343888089661576
1.9229074889867843,0.4441044889015403
1.9427312775330399,0.4443141048530975
1.9625550660792954,0.4440673199315903
1.982378854625551,0.44336419397766874
2.002202643171806,0.44220525549336187
2.0220264317180616,0.4405915011956566
2.041850220264317,0.4385243951222334
2.061674008810573,0.4360058672899561
2.0814977973568287,0.43303831190777375
2.1013215859030843,0.429624585146821
2.1211453744493394,0.4257680024716343
2.140969162995595,0.4214723355376761
2.1607929515418505,0.41674180866166116
2.180616740088106,0.41158109487291256
2.2004405286343616,0.4059953115553002
2.220264317180617,0.3999900156917912
2.2400881057268722,0.3935711987258285
2.2599118942731278,0.3867452810566635
2.2797356828193833,0.379519106189332
2.299559471365639,0.3718999345645599
2.319383259911895,0.3638954370994477
2.3392070484581504,0.3555136884769172
2.3590308370044055,0.3467631602315819
2.378854625550661,0.3376527136920987
2.3986784140969166,0.32819159285652816
2.418502202643172,0.31838941730007136
2.4383259911894277,0.3082561752451424
2.4581497797356833,0.2978022169667872
2.4779735682819384,0.28703824876702233
2.497797356828194,0.2759753278378148
2.5176211453744495,0.26462485845822725
2.537444933920705,0.2529985901565479
2.5572687224669606,0.2411086187471308
2.577092511013216,0.22896739157990234
2.5969162995594717,0.21658771901123433
2.6167400881057272,0.2039827951835404
2.6365638766519828,0.19116623298034108
2.6563876651982383,0.17815212104829886
2.676211453744494,0.16495511610001745
2.6960352422907494,0.15159059343786793
2.715859030837005,0.13807489722419725
2.73568281938326,0.12442576940392536
2.7555066079295156,0.11066311605436989
2.775330396475771,0.09681045336405593
2.7951541850220267,0.08289783534749781
2.8149779735682823,0.06896835148544403
2.834801762114538,0.05509441619495572
2.854625550660793,0.04142602137113976
2.874449339207049,0.028371449181230707
2.8942731277533045,0.01750276521476081
2.91409691629956,0.014937704168696353
2.9339207048458156,0.023588208463579428
2.953744493392071,0.03613238099903729
2.9735682819383262,0.049681634434158906
2.993392070484582,0.06356531679357376
3.0132158590308373,0.07756752299648534
3.033039647577093,0.09159386579639794
3.0528634361233484,0.10559224920723374
3.072687224669604,0.11952828664322593
3.092511013215859,0.13337606937414953
3.1123348017621146,0.14711418827085304
3.1321585903083706,0.1607238345051861
3.151982378854626,0.17418781910157782
3.1718061674008817,0.1874900353783115
3.1916299559471373,0.20061515028820398
3.2114537444933924,0.21354842103608773
3.231277533039648,0.2262755836132568
3.2511013215859035,0.23878278431113856
3.270925110132159,0.2510565378103723
3.2907488986784146,0.2630837021830332
3.31057268722467,0.2748514649226018
3.3303964757709252,0.28634733630784626
3.350220264317181,0.2975591477207229
3.3700440528634363,0.3084750533467805
3.389867841409692,0.31908353419777796
3.4096916299559474,0.32937340372665586
3.4295154185022034,0.3393338145223951
3.4493392070484585,0.3489542657189292
3.469162995594714,0.35822461085245383
3.4889867841409696,0.3671350659708892
3.508810572687225,0.375676217848392
3.5286343612334807,0.38383903219302373
3.5484581497797363,0.3916148617610047
3.5682819383259914,0.3989954543097923
3.588105726872247,0.4059729603362483
3.6079295154185025,0.41253994055617726
3.627753303964758,0.4186893730902441
3.6475770925110136,0.4244146603268423
3.667400881057269,0.4297096354374478
3.6872246696035247,0.43456856852424725
3.7070484581497802,0.43898617238210746
3.726872246696036,0.44295760786030586
3.7466960352422913,0.44647848881094393
3.7665198237885464,0.4495448866128798
3.7863436123348024,0.4521533342616086
3.8061674008810575,0.45430083001669125
3.8259911894273135,0.4559848405993741
3.8458149779735686,0.4572033039343473
3.8656387665198246,0.4579546314302021
3.8854625550660797,0.4582377097941089
3.905286343612335,0.4580519023771444
3.925110132158591,0.45739705004699915
3.9449339207048464,0.4562734715861827
3.964757709251102,0.4546819636138245
3.9845814977973575,0.45262380003005037
4.004405286343612,0.45010073098286
4.024229074889869,0.4471149813573006
4.044052863436123,0.44366924878816166
4.06387665198238,0.43976670119725175
4.083700440528634,0.435410973857392
4.103524229074891,0.43060616598547335
4.123348017621146,0.4253568368678034
4.143171806167401,0.41966800152126543
4.162995594713657,0.4135451258944272
4.182819383259912,0.40699412161340304
4.2026431718061685,0.4000213402777915
4.222466960352423,0.39263356731259547
4.242290748898679,0.3848380153826121
4.262114537444934,0.3766423173763915
4.28193832599119,0.36805451896799124
4.301762114537445,0.3590830707647409
4.321585903083701,0.3497368200508965
4.3414096916299565,0.34002500213759135
4.361233480176212,0.32995723133096205
4.381057268722468,0.31954349153178024
4.400881057268723,0.30879412648181687
4.420704845814979,0.29771982967494337
4.440528634361234,0.2863316339543108
4.46035242290749,0.2746409008220724
4.4801762114537445,0.26265930949516403
4.500000000000001,0.2503988457511846
4.5198237885462555,0.23787179062476435
4.539647577092512,0.2250907090391096
4.559471365638767,0.21206843849818302
4.579295154185023,0.19881807802964113
4.599118942731278,0.18535297768125672
4.618942731277533,0.17168672906899152
4.63876651982379,0.15783315783492677
4.658590308370044,0.1438063195620107
4.678414096916301,0.12962050208460577
4.6982378854625555,0.11529024012880673
4.718061674008811,0.10083035516552546
4.737885462555067,0.08625605105992408
4.757709251101322,0.0715831468642181
4.777533039647578,0.056828698467689696
4.797356828193833,0.04201297445595027
4.817180616740089,0.027167981536197067
4.837004405286344,0.012407465150378286
4.856828193832599,0.004031256732889108
4.876651982378855,0.018078399867928762
4.896475770925111,0.03294947353990677
4.9162995594713665,0.047863703865785194
4.936123348017622,0.062761234065111
4.955947136563877,0.07761648791465323
4.975770925110133,0.0924106114213199
4.995594713656388,0.10712685045994709
5.015418502202644,0.12174931901132953
5.035242290748899,0.136262580345276
5.055066079295155,0.15065148344410964
5.07488986784141,0.1649010951177188
5.094713656387666,0.1789966728442104
5.114537444933921,0.19292365666912129
5.134361233480177,0.20666767069325165
5.154185022026432,0.22021452965616603
5.174008810572688,0.23355024833346646
5.193832599118943,0.24666105252105336
5.213656387665199,0.2595333909123196
5.2334801762114544,0.272153947457846
5.25330396475771,0.2845096539541419
5.2731277533039655,0.2965877026986312
5.292951541850221,0.30837555910195363
5.312775330396477,0.3198609741817891
5.332599118942731,0.3310319968833839
5.352422907488988,0.34187698618536133
5.372246696035242,0.3523846229585514
5.392070484581499,0.36254392155170934
5.4118942731277535,0.3723442410820355
5.43171806167401,0.3817752964118931
5.451541850220265,0.39082716879514207
5.47136563876652,0.39949031617806036
5.491189427312777,0.4077555831417907
5.511013215859031,0.41561421047364683
5.530837004405288,0.4230578443561664
5.550660792951542,0.43007854516317634
5.570484581497798,0.43666879585300344
5.5903083700440535,0.44282150994984976
5.610132158590309,0.44853003910472833
5.6299559471365646,0.4537881802279637
5.64977973568282,0.45859018218611186
5.669603524229076,0.4629307520565407
5.689427312775331,0.466805060933651
5.709251101321586,0.47020874928109135
5.729074889867842,0.47313793182534475
5.748898678414098,0.47558920198641264
5.768722466960353,0.47755963584200156
5.788546255506609,0.4790467956224858
5.808370044052864,0.48004873273458987
5.82819383259912,0.48056399031241814
5.848017621145375,0.4805916052955223
5.867841409691631,0.4801311100343158
5.887665198237886,0.4791825334244469
5.907488986784142,0.4777464015726001
5.927312775330397,0.47582373799747735
5.9471365638766525,0.47341606337108727
5.966960352422908,0.4705253948069439
5.986784140969164,0.46715424470351596
6.00660792951542,0.4633056191535498
6.026431718061675,0.45898301593167634
6.04625550660793,0.45419042207623256
6.066079295154186,0.4489323110841437
6.085903083700441,0.44321363974176126
6.105726872246697,0.43703984461989515
6.125550660792952,0.43041683826694654
6.145374449339208,0.4233510051420964
6.1651982378854635,0.41584919733982484
6.185022026431718,0.4079187301695533
6.204845814977975,0.39956737766965966
6.224669603524229,0.3908033681556137
6.244493392070486,0.3816353799286725
6.264317180616741,0.37207253730634654
6.284140969162996,0.36212440718344197
6.303964757709252,0.3518009963950325
6.323788546255507,0.34111275023972437
6.3436123348017635,0.33007055264011675
6.363436123348018,0.3186857285844103
6.3832599118942746,0.30697004972832354
6.403083700440529,0.29493574437505793
6.422907488986785,0.282595513544808
6.44273127753304,0.2699625555768912
6.462555066079296,0.25705060281222997
6.482378854625551,0.2438739756053231
6.502202643171807,0.23044766159085367
6.5220264317180625,0.21678743244403928
6.541850220264318,0.20291001751122284
6.561674008810574,0.1888333658546072
6.581497797356829,0.17457704969297494
6.601321585903085,0.16016290143610917
6.62114537444934,0.1456160513638139
6.640969162995596,0.13096668299894068
6.6607929515418505,0.1162531411092562
6.680616740088107,0.10152774593605869
6.700440528634362,0.0868684175694965
6.720264317180618,0.07240385130454559
6.740088105726873,0.0583733939574782
6.759911894273129,0.045283960715575715
6.779735682819384,0.034337496986349546
6.799559471365639,0.028248525681694763
6.819383259911895,0.03017709066637839
6.83920704845815,0.03896638614624895
6.859030837004407,0.05119013121041547
6.8788546255506615,0.06491601958270263
6.898678414096917,0.07933881249202349
6.918502202643173,0.09410319141981335
6.938325991189428,0.10903087632960004
6.958149779735684,0.12402031168288484
6.977973568281939,0.13900671731300587
6.997797356828195,0.15394453723896928
7.01762114537445,0.16879902215441325
7.037444933920705,0.18354188422207826
7.0572687224669615,0.1981489131543219
7.077092511013216,0.21259860075406586
7.096916299559473,0.22687131357840606
7.116740088105728,0.24094877796311429
7.136563876651983,0.25481375044455534
7.156387665198239,0.2684498021635392
7.176211453744494,0.281841175525174
7.19603524229075,0.29497268790486636
7.215859030837005,0.3078296667120135
7.235682819383261,0.3203979057850959
7.255506607929516,0.33266363655702247
7.275330396475772,0.34461350960299786
7.295154185022027,0.3562345835790017
7.314977973568283,0.36751431947362734
7.334801762114538,0.3784405787066171
7.354625550660794,0.38900162402326194
7.374449339207049,0.3991861224198358
7.394273127753305,0.4089831495372489
7.4140969162995605,0.4183821951018605
7.433920704845816,0.42737316909609635
7.453744493392072,0.435946408416086
7.473568281938327,0.444092683828666
7.493392070484583,0.4518032070821202
7.513215859030838,0.459069638054446
7.533039647577093,0.46588409184873714
7.552863436123348,0.4722391457616303
7.572687224669605,0.47812784606615527
7.59251101321586,0.4835437145609004
7.612334801762115,0.48848075484681974
7.6321585903083715,0.49293345829971946
7.651982378854627,0.4968968097129934
7.671806167400882,0.5003662925897313
7.691629955947137,0.5033378940680121
7.711453744493394,0.5058081094663524
7.731277533039649,0.5077739464403848
7.751101321585904,0.5092329287444658
7.7709251101321595,0.5101830995948914
7.790748898678416,0.5106230246346783
7.81057268722467,0.5105517945023739
7.830396475770926,0.5099690270110174
7.850220264317182,0.5088748689457641
7.870044052863436,0.5072699974936692
7.889867841409693,0.5051556213216905
7.909691629955948,0.5025334813247192
7.929515418502204,0.4994058510702502
7.9493392070484585,0.495775536972748
7.969162995594715,0.4916458782381166
7.9889867841409705,0.48702074662748807
8.008810572687224,0.4819045461008248
8.02863436123348,0.4763022124129678
8.048458149779737,0.47021921275216244
8.068281938325994,0.46366154553003286
8.088105726872246,0.4566357404576216
8.107929515418503,0.4491488590731734
8.12775330396476,0.44120849592745365
8.147577092511014,0.4328227806828331
8.167400881057269,0.4240003814481068
8.187224669603525,0.4147505097552526
8.207048458149782,0.4050829276953729
8.226872246696036,0.3950079578763355
8.246696035242293,0.38453649705857856
8.266519823788547,0.37368003458529675
8.286343612334802,0.3624506770749187
8.306167400881058,0.3508611813250472
8.325991189427315,0.33892499804391424
8.345814977973568,0.3266563299563396
8.365638766519824,0.314070209153409
8.38546255506608,0.3011826004504902
8.405286343612337,0.2880105402803976
8.42511013215859,0.2745723247295188
8.444933920704846,0.26088776645554496
8.464757709251103,0.2469785495926587
8.484581497797357,0.2328687263261836
8.504405286343614,0.21858542194305172
8.524229074889869,0.2041598526020639
8.544052863436125,0.1896288219597337
8.56387665198238,0.17503696727833962
8.583700440528636,0.16044020555694666
8.60352422907489,0.1459111449634759
8.623348017621145,0.13154778106308174
8.643171806167402,0.11748775860273529
8.662995594713658,0.10393203366021009
8.682819383259913,0.09118371572188598
8.702643171806168,0.07970768611481112
8.722466960352424,0.0702029222416532
8.74229074889868,0.0636222399135706
8.762114537444935,0.06096783746439022
8.78193832599119,0.06276830885327528
8.801762114537446,0.06868383713619738
8.821585903083701,0.07777535780290434
8.841409691629957,0.0890580956218349
8.861233480176212,0.10177983918791751
8.881057268722468,0.11543321337073564
8.900881057268723,0.12968687067096324
8.92070484581498,0.14432196542244136
8.940528634361234,0.15918944895310833
8.960352422907489,0.1741838218571836
8.980176211453745,0.1892273072440573
9.000000000000002,0.20426022970540772
9.019823788546258,0.21923505486961756
9.039647577092511,0.23411261209901152
9.059471365638768,0.24885964457410384
9.079295154185024,0.2634471846342388
9.099118942731279,0.2778494540139667
9.118942731277533,0.29204310539853007
9.13876651982379,0.30600669061709296
9.158590308370046,0.3197202822893309
9.1784140969163,0.33316520126516785
9.198237885462555,0.3463238182204774
9.218061674008812,0.3591794080291399
9.237885462555067,0.37171604221991916
9.257709251101323,0.3839185092648085
9.27753303964758,0.39577225543743544
9.297356828193834,0.4072633410299164
9.317180616740089,0.41837840813910787
9.337004405286345,0.42910465723531344
9.356828193832602,0.4394298304402648
9.376651982378855,0.4493421999563273
9.396475770925111,0.4588305604641612
9.416299559471367,0.4678842245829247
9.436123348017622,0.4764930206931813
9.455947136563877,0.48464729257717093
9.475770925110133,0.49233790044874093
9.49559471365639,0.4995562230348975
9.515418502202644,0.5062941604405167
9.5352422907489,0.5125441375813061
9.555066079295155,0.5182991080130167
9.57488986784141,0.5235525580183137
9.594713656387666,0.5282985108396427
9.614537444933923,0.5325315309684521
9.634361233480178,0.536246728419009
9.654185022026432,0.5394397629299305
9.674008810572689,0.5421068480492669
9.693832599118945,0.5442447550699282
9.713656387665198,0.5458508167919601
9.733480176211454,0.5469229310970232
9.75330396475771,0.5474595643284974
9.773127753303967,0.5474597544791476
9.792951541850222,0.54692311419565
9.812775330396477,0.5458498336181108
9.832599118942733,0.5442406830813326
9.852422907488988,0.5420970157141106
9.872246696035244,0.5394207699838931
9.892070484581499,0.5362144722462645
9.911894273127754,0.5324812393730894
9.93171806167401,0.5282247815499341
9.951541850220266,0.5234494053535204
9.971365638766521,0.5181600172439457
9.991189427312776,0.5123621276353906
10.011013215859032,0.5060618557452021
10.030837004405289,0.4992659354648085
10.050660792951543,0.4919817225500681
10.070484581497798,0.4842172034972764
10.090308370044054,0.4759810065555701
10.11013215859031,0.4672824154343035
10.129955947136565,0.4581313864010938
10.14977973568282,0.4485385696409703
10.169603524229077,0.43851533597294945
10.189427312775331,0.4280738103131053
10.209251101321588,0.4172269136555114
10.229074889867842,0.40598841584574524
10.248898678414099,0.39437300208912435
10.268722466960353,0.3823963570275139
10.28854625550661,0.370075271420148
10.308370044052865,0.35742777809597254
10.32819383259912,0.34447332608045694
10.348017621145376,0.33123300488801755
10.367841409691632,0.3177298352746577
10.387665198237887,0.30398914878854366
10.407488986784141,0.2900390870129973
10.427312775330398,0.2759112635883972
10.447136563876654,0.26164164956014274
