Frequency (Hz),Amplitude
0.0,0.41451106265061965
0.019867549668874173,0.4203455087771788
0.039735099337748346,0.4373601352164258
0.059602649006622516,0.4642654547937011
0.07947019867549669,0.4993697228883412
0.09933774834437085,0.5409560237226589
0.11920529801324503,0.5875044308231656
0.13907284768211922,0.6377670311034731
0.15894039735099338,0.690757695419161
0.17880794701986755,0.7457088261612267
0.1986754966887417,0.8020233315275324
0.2185430463576159,0.8592329612547251
0.23841059602649006,0.916965579964496
0.2582781456953642,0.9749206162939653
0.27814569536423844,1.0328510245840992
0.2980132450331126,1.0905501305111436
0.31788079470198677,1.147842039214086
0.33774834437086093,1.2045746125836476
0.3576158940397351,1.2606142947730283
0.3774834437086093,1.3158422707661206
0.3973509933774834,1.3701515917674225
0.4172185430463576,1.4234450068491806
0.4370860927152318,1.4756333146835732
0.45695364238410596,1.5266341015006775
0.4768211920529801,1.5763707683055175
0.49668874172185434,1.6247717765402443
0.5165562913907285,1.6717700600414525
0.5364238410596026,1.7173025645612001
0.5562913907284769,1.76130988584406
0.5761589403973509,1.8037359843564713
0.5960264900662252,1.844527959996106
0.6158940397350993,1.8836358739925387
0.6357615894039735,1.9210126081172458
0.6556291390728477,1.9566137535112396
0.6754966887417219,1.9903975231039466
0.695364238410596,2.0223246828700874
0.7152317880794702,2.0523584981532346
0.7350993377483444,2.080464692045985
0.7549668874172186,2.10661141341225
0.7748344370860927,2.1307692126045517
0.7947019867549668,2.1529110233003794
0.8145695364238411,2.1730121491765333
0.8344370860927152,2.1910502543780965
0.8543046357615894,2.2070053569299213
0.8741721854304636,2.2208598243953124
0.8940397350993378,2.232598371215082
0.9139072847682119,2.2422080572668364
0.9337748344370861,2.249678287274557
0.9536423841059603,2.2550008107747592
0.9735099337748344,2.2581697224121986
0.9933774834437087,2.2591814623965254
1.0132450331125828,2.2580348170046673
1.033112582781457,2.2547309190627662
1.0529801324503312,2.249273248388787
1.0728476821192052,2.241667632223714
1.0927152317880795,2.2319222457263113
1.1125827814569538,2.2200476126567916
1.1324503311258278,2.2060566064285134
1.1523178807947019,2.1899644517668335
1.1721854304635762,2.171788727282607
1.1920529801324504,2.151549369346517
1.2119205298013245,2.129268677743198
1.2317880794701985,2.104971323694928
1.2516556291390728,2.078684360977831
1.271523178807947,2.050437241015815
1.2913907284768211,2.02026183303724
1.3112582781456954,1.9881924506257194
1.3311258278145695,1.9542658863042772
1.3509933774834437,1.9185214561786055
1.370860927152318,1.8810010571532483
1.390728476821192,1.8417492398557838
1.410596026490066,1.8008133012001941
1.4304635761589404,1.758243401546656
1.4503311258278146,1.714092712747889
1.4701986754966887,1.6684176051150374
1.4900662251655628,1.6212778836320254
1.5099337748344372,1.5727370867944623
1.5298013245033113,1.5228628655239311
1.5496688741721854,1.4717274651011432
1.5695364238410596,1.4194083405237516
1.5894039735099337,1.3659889459142094
1.609271523178808,1.3115597527123948
1.6291390728476822,1.2562195710159019
1.6490066225165563,1.2000772759369174
1.6688741721854303,1.1432540796336528
1.6887417218543048,1.0858865446327868
1.7086092715231789,1.028130612094559
1.728476821192053,0.9701670292196646
1.7483443708609272,0.9122087150835781
1.7682119205298013,0.8545108167680597
1.7880794701986755,0.7973844849663639
1.8079470198675496,0.741215721967419
1.8278145695364238,0.6864909296821711
1.847682119205298,0.6338307166212332
1.8675496688741722,0.5840323598432
1.8874172185430464,0.5381174185238972
1.9072847682119205,0.49737146594203707
1.9271523178807946,0.46334476404753
1.9470198675496688,0.43775948868364833
1.9668874172185429,0.42226576870442417
1.9867549668874174,0.41805501696592295
2.0066225165562916,0.4254834676112779
2.0264900662251657,0.4439438793576807
2.0463576158940397,0.4720810787102566
2.066225165562914,0.5081943271477541
2.086092715231788,0.5505933794424964
2.1059602649006623,0.59779755961014
2.1258278145695364,0.648596774770259
2.1456953642384105,0.7020358592603518
2.165562913907285,0.757370641171642
2.185430463576159,0.8140210595934546
2.205298013245033,0.8715310090619552
2.2251655629139075,0.9295369428687317
2.2450331125827816,0.9877443465981548
2.2649006622516556,1.0459104433660296
2.2847682119205297,1.103831564679479
2.3046357615894038,1.16133392556651
2.324503311258278,1.218266857822814
2.3443708609271523,1.2744978146193653
2.364238410596027,1.3299086551767412
2.384105960264901,1.3843928596672983
2.403973509933775,1.4378534249789927
2.423841059602649,1.490201262820083
2.443708609271523,1.5413539715538391
2.463576158940397,1.591234888418584
2.4834437086092715,1.6397723538374567
2.5033112582781456,1.686899137432428
2.52317880794702,1.732551988258223
2.543046357615894,1.776671281137094
2.562913907284768,1.8192007378291601
2.5827814569536423,1.8600872068284138
2.6026490066225163,1.8992804893338127
2.622516556291391,1.9367332017615204
2.642384105960265,1.972400667291203
2.662251655629139,2.0062408305573647
2.6821192052980134,2.0382141908360754
2.7019867549668874,2.068283750033898
2.7218543046357615,2.0964149725290526
2.741721854304636,2.122575754495748
2.76158940397351,2.146736400800535
2.781456953642384,2.1688696079221095
2.801324503311258,2.1889504516356495
2.821192052980132,2.206956378435498
2.8410596026490067,2.222867199858398
2.8609271523178808,2.2366650890235555
2.8807947019867552,2.2483345788324276
2.9006622516556293,2.2578625613768284
2.9205298013245033,2.265238288192882
2.9403973509933774,2.2704533710743617
2.9602649006622515,2.2735017832252633
2.9801324503311255,2.27437986059006
3.0,2.273086303253589
3.0198675496688745,2.2696221768524456
3.0397350993377485,2.2639909139876253
3.0596026490066226,2.2561983156761936
3.0794701986754967,2.246252552928336
3.0993377483443707,2.2341641685882845
3.119205298013245,2.2199460796336092
3.1390728476821192,2.2036135801904893
3.1589403973509933,2.185184345593958
3.1788079470198674,2.1646784379055033
3.198675496688742,2.142118313398283
3.218543046357616,2.117528832637406
3.23841059602649,2.0909372739241934
3.2582781456953644,2.0623733510455082
3.2781456953642385,2.0318692364814037
3.2980132450331126,1.9994595914866196
3.3178807947019866,1.965181604788945
3.3377483443708607,1.92907504205884
3.3576158940397347,1.891182308824828
3.3774834437086096,1.8515485301711165
3.3973509933774837,1.8102216514021867
3.4172185430463577,1.7672525649534259
3.437086092715232,1.7226952702477032
3.456953642384106,1.6766070750568403
3.47682119205298,1.6290488493750328
3.4966887417218544,1.580085346060883
3.5165562913907285,1.529785606849241
3.5364238410596025,1.4782234781879524
3.556291390728477,1.4254782693041508
3.576158940397351,1.3716355957833741
3.596026490066225,1.3167884669474899
3.615894039735099,1.2610386961583824
3.6357615894039736,1.204498742320698
3.6556291390728477,1.1472941318449965
3.6754966887417218,1.0895666681867975
3.695364238410596,1.0314787177852074
3.7152317880794703,0.9732189760970985
3.7350993377483444,0.9150102767648352
3.754966887417219,0.8571202215278847
3.774834437086093,0.7998756798730284
3.794701986754967,0.7436825041021232
3.814569536423841,0.6890520033231465
3.834437086092715,0.6366354671145441
3.854304635761589,0.5872664786970215
3.8741721854304636,0.5420061579925854
3.8940397350993377,0.5021760106992877
3.9139072847682117,0.46934461966256014
3.9337748344370858,0.445214093999051
3.9536423841059607,0.4313579444756357
3.9735099337748347,0.42883884729093275
3.993377483443709,0.43787162607764674
4.013245033112583,0.4577481139859579
4.033112582781457,0.48707896385597504
4.052980132450331,0.5241831285833437
4.072847682119205,0.5674145590207883
4.0927152317880795,0.6153385012285385
4.112582781456953,0.6667821950825034
4.132450331125828,0.72081729594533
4.152317880794702,0.776717546423097
4.172185430463576,0.8339142623078478
4.19205298013245,0.8919582429339388
4.211920529801325,0.950489900810363
4.231788079470199,1.009216781572623
4.251655629139073,1.0678969605006914
4.271523178807947,1.1263268616624107
4.291390728476821,1.184332321192832
4.311258278145695,1.2417620050514868
4.33112582781457,1.298482531586113
4.3509933774834435,1.3543748315228956
4.370860927152318,1.4093314108530204
4.390728476821192,1.463254277035497
4.410596026490066,1.5160533562614096
4.43046357615894,1.5676452771944909
4.450331125827815,1.617952430439436
4.470198675496689,1.6669022371230258
4.490066225165563,1.7144265772938725
4.509933774834438,1.7604613413659365
4.529801324503311,1.804946076948667
4.549668874172186,1.84782371009791
4.569536423841059,1.8890403249711365
4.589403973509934,1.9285449895598308
4.6092715231788075,1.9662896179427192
4.629139072847682,2.002228861600227
4.649006622516556,2.0363200239287442
4.66887417218543,2.0685229933200255
4.688741721854305,2.0988001911192837
4.708609271523179,2.127116531513512
4.728476821192054,2.153439390979681
4.748344370860927,2.177738585378534
4.768211920529802,2.199986353141383
4.788079470198675,2.2201573432871764
4.80794701986755,2.238228607239636
4.827814569536423,2.254179593603543
4.847682119205298,2.2679921452136913
4.867549668874172,2.2796504978978467
4.887417218543046,2.2891412805012936
4.9072847682119205,2.296453515810937
4.927152317880794,2.301578622093815
4.947019867549669,2.3045104150324818
4.966887417218543,2.3052451099000097
4.986754966887418,2.3037813238719465
5.006622516556291,2.3001200784246723
5.026490066225166,2.294264801819437
5.04635761589404,2.286221331721451
5.066225165562914,2.275997918055088
5.086092715231788,2.263605226251322
5.105960264900662,2.2490563411035005
5.125827814569536,2.2323667715150606
5.14569536423841,2.2135544564997613
5.1655629139072845,2.1926397728848297
5.185430463576159,2.169645545273424
5.205298013245033,2.1445970589495915
5.225165562913908,2.1175220765625316
5.245033112582782,2.088450859613795
5.264900662251656,2.05741619600154
5.28476821192053,2.0244534351611136
5.304635761589404,1.9896005326973485
5.324503311258278,1.9528981068513194
5.344370860927152,1.9143895097099246
5.364238410596027,1.8741209167867297
5.3841059602649,1.8321414395249132
5.403973509933775,1.7885032664625884
5.4238410596026485,1.743261840345297
5.443708609271523,1.696476080489019
5.463576158940397,1.6482086623549177
5.483443708609272,1.5985263698204353
5.503311258278146,1.547500540338119
5.52317880794702,1.4952076295060532
5.543046357615895,1.44172993015858
5.562913907284768,1.3871564928088553
5.582781456953643,1.3315843103979166
5.602649006622516,1.2751198526257617
5.622516556291391,1.2178810662195525
5.642384105960264,1.1600000009552671
5.662251655629139,1.1016262821401708
5.682119205298013,1.0429317354085315
5.701986754966887,0.984116587743752
5.7218543046357615,0.9254178291433948
5.741721854304636,0.8671205287714653
5.7615894039735105,0.809573149804282
5.781456953642384,0.7532081467801465
5.801324503311259,0.6985691943031149
5.821192052980132,0.6463458653096447
5.841059602649007,0.5974145093442432
5.860927152317881,0.5528786923437691
5.880794701986755,0.5140913815506886
5.900662251655629,0.4826234266416876
5.920529801324503,0.4601278418863629
5.940397350993377,0.4480660716902273
5.960264900662251,0.44734564583123004
5.980132450331126,0.45803682486019687
6.0,0.47935015102678624
6.0198675496688745,0.5098906275053381
6.039735099337749,0.5480207260928787
6.059602649006623,0.5921525018914542
6.079470198675497,0.640902278013477
6.099337748344371,0.6931341638114654
6.119205298013245,0.7479432666397121
6.139072847682119,0.8046167148970504
6.158940397350993,0.8625924707969366
6.178807947019867,0.9214237673026261
6.198675496688741,0.9807509476969947
6.218543046357616,1.0402800742090785
6.23841059602649,1.0997669923738966
6.258278145695365,1.159005548908552
6.2781456953642385,1.2178188870377664
6.298013245033113,1.2760529950669464
6.317880794701987,1.3335718991806094
6.337748344370861,1.3902540579345575
6.357615894039735,1.4459896389563431
6.377483443708609,1.5006784473186932
6.397350993377484,1.554228338728078
6.417218543046357,1.606553996131322
6.437086092715232,1.6575759808445492
6.456953642384105,1.7072199926384082
6.47682119205298,1.7554162900525538
6.496688741721854,1.8020992344454296
6.516556291390729,1.8472069302358711
6.5364238410596025,1.890680940388748
6.556291390728477,1.9324660610946247
6.5761589403973515,1.9725101432563665
6.596026490066225,2.0107639511559965
6.6158940397351,2.047181050769658
6.635761589403973,2.0817177217998064
6.655629139072848,2.1143328887258024
6.675496688741721,2.144988067128631
6.695364238410596,2.173647322290338
6.715231788079469,2.2002772376530513
6.735099337748344,2.2248468911849253
6.754966887417219,2.2473278380672848
6.774834437086093,2.2676940984122496
6.794701986754967,2.2859221489570953
6.814569536423841,2.301990917875099
6.8344370860927155,2.3158817820004822
6.854304635761589,2.3275785658963257
6.874172185430464,2.3370675423039664
6.894039735099337,2.34433743360504
6.913907284768212,2.3493794140077746
6.933774834437086,2.352187112238995
6.95364238410596,2.3527566145864616
6.973509933774834,2.3510864681938197
6.993377483443709,2.347177684565593
7.013245033112583,2.341033743292321
7.033112582781457,2.332660596060561
7.052980132450331,2.32206667106767
7.072847682119205,2.309262878021332
7.0927152317880795,2.2942626139695275
7.112582781456954,2.2770817702803763
7.132450331125828,2.257738741176438
7.152317880794702,2.2362544343269692
7.172185430463576,2.212652284118837
7.19205298013245,2.1869582683678037
7.211920529801324,2.159200929401612
7.231788079470198,2.1294114006540865
7.251655629139073,2.0976234401655725
7.271523178807947,2.063873472701186
7.291390728476822,2.0282006425946104
7.311258278145695,1.9906468799213475
7.33112582781457,1.9512569832337212
7.3509933774834435,1.910078722888625
7.370860927152318,1.8671629700220684
7.390728476821192,1.8225638575424543
7.410596026490066,1.7763389812238193
7.430463576158941,1.7285496512124436
7.450331125827814,1.6792612071935276
7.470198675496689,1.6285434143479287
7.490066225165562,1.5764709624037896
7.509933774834438,1.5231240970335747
7.52980132450331,1.4685894222326912
7.549668874172186,1.4129609250847437
7.569536423841059,1.3563412917971236
7.589403973509934,1.2988436079501022
7.6092715231788075,1.240593569160072
7.629139072847682,1.1817323744367993
7.649006622516557,1.122420538302768
7.66887417218543,1.0628429455157864
7.6887417218543055,1.003215591246963
7.708609271523178,0.9437946060983796
7.728476821192054,0.8848883588724774
7.748344370860927,0.8268736381538497
7.768211920529802,0.7702170569502848
7.788079470198675,0.7155026895019807
7.80794701986755,0.6634660407000101
7.827814569536423,0.6150317592899563
7.847682119205298,0.5713463510331658
7.8675496688741715,0.5337857551975183
7.887417218543046,0.5039022982068976
7.907284768211921,0.4832679756939068
7.927152317880795,0.4731986340095908
7.9470198675496695,0.47442669763889794
7.966887417218543,0.4868805638165338
7.986754966887418,0.5097094477094188
8.006622516556291,0.5415366616126048
8.026490066225167,0.580786648854679
8.046357615894038,0.625940085275511
8.066225165562914,0.6756684441373482
8.086092715231787,0.7288726378056202
8.105960264900663,0.7846688774577472
8.125827814569536,0.8423542694925928
8.14569536423841,0.9013696771137042
8.165562913907285,0.9612670749762424
8.185430463576159,1.021683288975056
8.205298013245034,1.0823197691343547
8.225165562913906,1.1429273357138217
8.245033112582782,1.2032947790579676
8.264900662251655,1.2632403569430302
8.28476821192053,1.3226054400051597
8.304635761589404,1.3812497415862068
8.324503311258278,1.439047716457001
8.344370860927151,1.4958858247456994
8.364238410596027,1.5516604396456175
8.3841059602649,1.6062762371759185
8.403973509933774,1.6596449493878025
8.42384105960265,1.7116843935471773
8.443708609271523,1.7623177123716685
8.463576158940398,1.8114727767993857
8.483443708609272,1.8590817147633802
8.503311258278146,1.905080538275565
8.52317880794702,1.9494088476685008
8.543046357615895,1.9920095967258784
8.562913907284768,2.032828906102203
8.582781456953642,2.0718159152078783
8.602649006622515,2.1089226648513653
8.62251655629139,2.1441040045519277
8.642384105960264,2.1773175196891565
8.66225165562914,2.2085234746290103
8.682119205298013,2.2376847687272288
8.701986754966887,2.264766902710786
8.721854304635762,2.289737953412702
8.741721854304636,2.312568555214418
8.76158940397351,2.3332318868541657
8.781456953642383,2.351703662505504
8.801324503311259,2.3679621262309474
8.821192052980132,2.3819880490801504
8.841059602649008,2.3937647282388332
8.86092715231788,2.4032779877500023
8.880794701986755,2.4105161804259936
8.90066225165563,2.415470190655014
8.920529801324504,2.41813343788011
8.940397350993377,2.418501880595749
8.960264900662251,2.416574020769455
8.980132450331126,2.4123509086550277
9.0,2.405836148022281
9.019867549668875,2.3970359018871714
9.039735099337747,2.385958898887955
9.059602649006623,2.3726164405194927
9.079470198675496,2.3570224095113415
9.099337748344372,2.3391932797182085
9.119205298013245,2.3191481279870985
9.139072847682119,2.2969086485772308
9.158940397350994,2.2724991708417224
9.178807947019868,2.2459466810391913
9.198675496688743,2.21728084933645
9.218543046357615,2.1865340632990553
9.23841059602649,2.1537414694563775
9.258278145695364,2.1189410248876404
9.27814569536424,2.082173561223489
9.298013245033111,2.043482864020693
9.317880794701987,2.0029157711788814
9.33774834437086,1.9605222949715209
9.357615894039736,1.916355773419407
9.37748344370861,1.870473058221556
9.397350993377483,1.8229347483834963
9.417218543046358,1.7738054811912427
9.437086092715232,1.7231542954684114
9.456953642384107,1.6710550863945475
9.47682119205298,1.6175871769285564
9.496688741721854,1.5628360385878222
9.516556291390728,1.5068942046980585
9.536423841059603,1.4498624332454937
9.556291390728477,1.3918511955151445
9.57615894039735,1.3329825926915648
9.596026490066224,1.2733928381361126
9.6158940397351,1.2132354916031134
9.635761589403973,1.1526856976374078
9.655629139072847,1.0919457689451129
9.675496688741722,1.0312525713901948
9.695364238410596,0.9708873114868518
9.715231788079471,0.9111884888545064
9.735099337748345,0.8525689128429559
9.754966887417218,0.7955376796308122
9.774834437086092,0.7407275952261483
9.794701986754967,0.6889271527982255
9.814569536423841,0.641112824591484
9.834437086092716,0.5984707223832829
9.854304635761588,0.5623859129125726
9.874172185430464,0.5343663006790581
9.894039735099337,0.5158693314343187
9.913907284768213,0.5080359676086093
9.933774834437086,0.5114114336875044
9.95364238410596,0.5257902774745767
9.973509933774835,0.5502793671812928
9.993377483443709,0.583539044336342
10.013245033112582,0.6240688638506152
10.033112582781456,0.6704255354485746
10.052980132450331,0.7213388959894624
10.072847682119205,0.7757471118517356
10.09271523178808,0.8327862288524752
10.112582781456952,0.8917610701465767
10.132450331125828,0.9521126454097347
10.152317880794701,1.0133887496139937
10.172185430463577,1.0752198026713282
10.192052980132452,1.1372998980468116
10.211920529801324,1.1993722844510541
10.2317880794702,1.2612183660976255
10.251655629139073,1.3226494001476712
10.271523178807948,1.3835002263433798
10.29139072847682,1.4436245164027128
10.311258278145695,1.502891158046723
10.331125827814569,1.5611814876770869
10.350993377483444,1.6183871603310929
10.370860927152318,1.674408500713634
10.390728476821192,1.7291532195770252
10.410596026490065,1.7825354093304835
10.43046357615894,1.8344747544474578
10.450331125827816,1.884895908169985
10.470198675496688,1.9337279987648575
10.490066225165563,1.9809042373082295
10.509933774834437,2.0263616054840123
10.529801324503312,2.0700406067689987
10.549668874172186,2.111885068071426
10.56953642384106,2.1518419816995
10.589403973509933,2.1898613796866626
10.609271523178808,2.2258962341576867
10.629139072847682,2.2599023787040644
10.649006622516556,2.2918384467393826
10.66887417218543,2.32166582359195
10.688741721854305,2.3493486097134872
10.70860927152318,2.3748535928765566
