Time (s),Filtered Signal
0.0,-0.0515408460289601
0.03337028824833703,-0.5301617645943706
0.06674057649667406,-0.9309513626635484
0.10011086474501109,-1.2015068242577398
0.13348115299334812,-1.327731754330346
0.16685144124168516,-1.331864793288339
0.20022172949002218,-1.2563608298256113
0.2335920177383592,-1.1421126070295047
0.26696230598669624,-1.0121022643952524
0.3003325942350333,-0.8684670254564447
0.3337028824833703,-0.7033670573904273
0.3670731707317073,-0.5159004445288193
0.40044345898004435,-0.3234264505902268
0.4338137472283814,-0.15879584219289883
0.4671840354767184,-0.05375377922413019
0.5005543237250555,-0.01804563370818342
0.5339246119733925,-0.027671145979617097
0.5672949002217295,-0.03147435120789997
0.6006651884700666,0.02504197716203519
0.6340354767184035,0.17023073220365736
0.6674057649667406,0.38713330892540265
0.7007760532150776,0.6162508349910925
0.7341463414634146,0.7808161434639509
0.7675166297117517,0.8231932004555199
0.8008869179600887,0.7345554674577792
0.8342572062084257,0.562529342436304
0.8676274944567628,0.3919753093916979
0.9009977827050998,0.30732375389098854
0.9343680709534368,0.35410590414531495
0.9677383592017739,0.5176934523424327
1.001108647450111,0.728638865425271
1.0344789356984478,0.8911248521355903
1.067849223946785,0.9207373067846012
1.101219512195122,0.7750118503144754
1.134589800443459,0.4654007482815376
1.167960088691796,0.0487728617414795
1.2013303769401331,-0.3948553886168393
1.23470066518847,-0.7876621538117192
1.268070953436807,-1.0730990682297221
1.3014412416851442,-1.2242171365759498
1.3348115299334813,-1.242050506087798
1.3681818181818182,-1.1481317336363286
1.4015521064301553,-0.9755721305750998
1.4349223946784924,-0.761408927422158
1.4682926829268292,-0.5407524672819286
1.5016629711751663,-0.34206713719886206
1.5350332594235034,-0.18313556263883493
1.5684035476718403,-0.06832456230849107
1.6017738359201774,0.011392498328606055
1.6351441241685145,0.07450127021780928
1.6685144124168514,0.14150428705096058
1.7018847006651885,0.22638605082287536
1.7352549889135256,0.33054739498209473
1.7686252771618625,0.442079052447072
1.8019955654101996,0.5408091381045532
1.8353658536585367,0.6066517366217794
1.8687361419068735,0.6271537397263653
1.9021064301552106,0.6008684003449557
1.9354767184035477,0.5358450192744194
1.9688470066518848,0.4453269684283207
2.002217294900222,0.3437828856830397
2.035587583148559,0.24506915555220682
2.0689578713968957,0.16205153219755675
2.102328159645233,0.10548588918389064
2.13569844789357,0.08069168083588645
2.1690687361419068,0.08303518893076622
2.202439024390244,0.0954643617248476
2.235809312638581,0.09131985667116259
2.269179600886918,0.043021072713860624
2.302549889135255,-0.06638071197567263
2.335920177383592,-0.23396708372263536
2.369290465631929,-0.4345673147284638
2.4026607538802662,-0.626746080631887
2.436031042128603,-0.7650697627964956
2.46940133037694,-0.8140898983208993
2.5027716186252773,-0.7590539538473356
2.536141906873614,-0.6098369185433893
2.569512195121951,-0.3971547905808413
2.6028824833702884,-0.16271885936003191
2.6362527716186253,0.05320186048982471
2.6696230598669626,0.22266930374500257
2.7029933481152995,0.33575338789239717
2.7363636363636363,0.3989592610987958
2.7697339246119737,0.4270672630660139
2.8031042128603105,0.43217588994338346
2.8364745011086474,0.41576454863983464
2.8698447893569847,0.3687949628859578
2.9032150776053216,0.28078778023848944
2.9365853658536585,0.15321240264034647
2.969955654101996,0.008757566186233998
3.0033259423503327,-0.11105008449344339
3.0366962305986696,-0.16157624460495792
3.070066518847007,-0.11794687289866798
3.1034368070953438,0.006603007938234307
3.1368070953436806,0.15799079567853516
3.170177383592018,0.2583579840791131
3.203547671840355,0.23727529785730433
3.2369179600886917,0.06376572790108459
3.270288248337029,-0.23543964161648281
3.303658536585366,-0.5802314398367784
3.337028824833703,-0.8631131827209446
3.37039911308204,-0.9870063194191351
3.403769401330377,-0.9006500713607489
3.437139689578714,-0.6185956015257695
3.470509977827051,-0.21831915410075098
3.503880266075388,0.18535461945662132
3.537250554323725,0.48058887581985327
3.5706208425720622,0.5998596330600585
3.603991130820399,0.5466239128315314
3.637361419068736,0.395404293945321
3.6707317073170733,0.26263091921708587
3.70410199556541,0.257690801710417
3.737472283813747,0.4335429987242951
3.7708425720620844,0.758638787250362
3.8042128603104213,1.1241802723175995
3.8375831485587586,1.3854475933840527
3.8709534368070955,1.4201126261610744
3.9043237250554323,1.1782390663719318
3.9376940133037697,0.7024565580954022
3.9710643015521065,0.11064907378111355
4.004434589800444,-0.4497114189201307
4.037804878048781,-0.8549496543481325
4.071175166297118,-1.0443843545080436
4.1045454545454545,-1.0318676518505279
4.137915742793791,-0.8892224855760895
4.171286031042128,-0.7122332951216069
4.204656319290466,-0.5845496982724024
4.238026607538803,-0.552531142212655
4.27139689578714,-0.6173035728329015
4.304767184035477,-0.7429118379071546
4.3381374722838135,-0.874379753260919
4.371507760532151,-0.9578710554770273
4.404878048780488,-0.9564892885511382
4.438248337028825,-0.858206814490244
4.471618625277162,-0.6755275849886088
4.504988913525499,-0.43876651905056896
4.538359201773836,-0.18592975815173646
4.571729490022173,0.04771304709937105
4.60509977827051,0.23780496678417526
4.638470066518847,0.3751798712909361
4.671840354767184,0.4657360006259816
4.705210643015521,0.5265549187116085
4.738580931263858,0.5797478479863969
4.771951219512196,0.6457185169637077
4.8053215077605325,0.7371410186119467
4.838691796008869,0.8544114136728478
4.872062084257206,0.983185863815002
4.905432372505543,1.0949543278295275
4.93880266075388,1.1518387768321114
4.972172949002218,1.1161489675712202
5.005543237250555,0.9634034469952892
5.0389135254988915,0.6951592437933124
5.072283813747228,0.34636305515025373
5.105654101995565,-0.017689889455676212
5.139024390243902,-0.31672614683404526
5.17239467849224,-0.4801320414114176
5.205764966740577,-0.4727084541982629
5.239135254988914,-0.3109528297408513
5.2725055432372505,-0.06161580910624105
5.305875831485587,0.1787889719944584
5.339246119733925,0.3163764948335487
5.372616407982262,0.2914998083773667
5.405986696230599,0.09737814285033244
5.439356984478936,-0.22029508039277437
5.472727272727273,-0.5805292669533938
5.5060975609756095,-0.8927925876254725
5.539467849223947,-1.0819589723773377
5.572838137472284,-1.105964081600513
5.606208425720621,-0.9638180010623529
5.639578713968958,-0.6943250258942378
5.672949002217295,-0.36654593882295067
5.706319290465632,-0.06314891473481492
5.7396895787139695,0.14091232333595427
5.773059866962306,0.19932048333006683
5.806430155210643,0.1077854880907916
5.83980044345898,-0.096148107640219
5.873170731707317,-0.347815374992654
5.906541019955654,-0.5785924596151775
5.939911308203992,-0.736801678803257
5.9732815964523285,-0.7969795518172516
6.006651884700665,-0.7553271670874458
6.040022172949002,-0.6178715616670026
6.073392461197339,-0.3920396716282556
6.106762749445676,-0.08866722963323842
6.140133037694014,0.2677287467638952
6.173503325942351,0.6305272379432498
6.2068736141906875,0.9349771373473507
6.240243902439024,1.1172324019357487
6.273614190687361,1.1403889123197002
6.306984478935698,1.0135283015570926
6.340354767184036,0.7926833542045092
6.373725055432373,0.5621664024342984
6.40709534368071,0.404517102202294
6.4404656319290465,0.3718228874076694
6.473835920177383,0.46896021758543965
6.507206208425721,0.6531468564603077
6.540576496674058,0.8481221348392096
6.573946784922395,0.9676679620449697
6.607317073170732,0.9419191415461258
6.640687361419069,0.7397036942809722
6.674057649667406,0.3804653899423815
6.707427937915743,-0.06903516140338278
6.74079822616408,-0.5140282536161843
6.774168514412417,-0.8618809635073772
6.807538802660754,-1.052524447001608
6.840909090909091,-1.0771202175271963
6.874279379157428,-0.977091824036687
6.9076496674057655,-0.8240064198050502
6.941019955654102,-0.6892071823362421
6.974390243902439,-0.6162589086607632
7.007760532150776,-0.6072672661813546
7.041130820399113,-0.6273611696000396
7.07450110864745,-0.6236539811741454
7.107871396895788,-0.5494936273627462
7.1412416851441245,-0.3838591912946585
7.174611973392461,-0.1391723968760391
7.207982261640798,0.14356469595785654
7.241352549889135,0.40842655375981235
7.274722838137472,0.6009696321845479
7.30809312638581,0.6822158205138901
7.341463414634147,0.6374644499816218
7.3748337028824835,0.4792652971062636
7.40820399113082,0.2447980185815788
7.441574279379157,-0.011822511597891078
7.474944567627494,-0.2312434335408688
7.508314855875832,-0.3624829432177404
7.541685144124169,-0.3755108559342505
7.575055432372506,-0.2698111437474842
7.6084257206208425,-0.07665566940141293
7.641796008869179,0.14614817669439736
7.675166297117517,0.32711079281895594
7.708536585365854,0.40000714832284845
7.741906873614191,0.3251781401534521
7.775277161862528,0.10709077940098652
7.808647450110865,-0.19904101647416075
7.842017738359202,-0.49708667312021354
7.875388026607539,-0.6767610600980157
7.908758314855876,-0.6507211696873275
7.942128603104213,-0.38932423699369634
7.97549889135255,0.061247053067872564
8.008869179600888,0.5871075640721322
8.042239467849225,1.0408539181757206
8.075609756097561,1.290697658524251
8.108980044345898,1.2663726442462526
8.142350332594235,0.9839217673713329
8.175720620842572,0.5392921547634607
8.209090909090909,0.07285137455949164
8.242461197339246,-0.2815869942927781
8.275831485587583,-0.4435858619332075
8.30920177383592,-0.41092183342867833
8.342572062084257,-0.2535246101140676
8.375942350332595,-0.0800184357805105
8.409312638580932,0.008779849730471238
8.442682926829269,-0.039804627115373456
8.476053215077606,-0.21221547596870793
8.509423503325943,-0.43911722983602514
8.54279379157428,-0.6284417744785468
8.576164079822616,-0.7056937573463254
8.609534368070953,-0.6437808256348252
8.64290465631929,-0.4702230805053905
8.676274944567627,-0.2504308933476927
8.709645232815964,-0.0565881598664692
8.743015521064303,0.06258003332342674
8.77638580931264,0.0976809081887982
8.809756097560976,0.07469781083236814
8.843126385809313,0.03565914351100031
8.87649667405765,0.015285556228725466
8.909866962305987,0.025681798789730717
8.943237250554324,0.05576410016186345
8.97660753880266,0.08377959598418401
9.009977827050998,0.09442261399336488
9.043348115299334,0.09014708701005275
9.076718403547671,0.09010506111506157
9.110088691796008,0.11751180826444348
9.143458980044347,0.1831159465262301
9.176829268292684,0.2750082622073874
9.21019955654102,0.3616224188229995
9.243569844789358,0.407119046848865
9.276940133037694,0.3907089497430175
9.310310421286031,0.3185187704270959
9.343680709534368,0.22045816252594813
9.377050997782705,0.13321840392900577
9.410421286031042,0.0789152164255276
9.443791574279379,0.05187608463172587
9.477161862527716,0.02172619160926756
9.510532150776053,-0.04833744888442801
9.543902439024391,-0.17806605966324704
9.577272727272728,-0.3548183202791791
9.610643015521065,-0.5355213213154375
9.644013303769402,-0.6655740404717996
9.677383592017739,-0.7047806748049931
9.710753880266076,-0.646300404349905
9.744124168514412,-0.5184022909702554
9.77749445676275,-0.3683764771423346
9.810864745011086,-0.23776279235616155
9.844235033259423,-0.14253965882701516
9.87760532150776,-0.06870483075405019
9.910975609756099,0.015141818952122545
9.944345898004435,0.13590538188252121
9.977716186252772,0.297150246321338
10.01108647450111,0.47344320330313
10.044456762749446,0.6205952417765964
10.077827050997783,0.6961765987083052
10.11119733924612,0.6797706158478211
10.144567627494457,0.5830200257610839
10.177937915742794,0.44476834951200617
10.21130820399113,0.3137157163998012
10.244678492239467,0.22676214862739152
10.278048780487804,0.1931589310488179
10.311419068736143,0.19187204118948023
10.34478935698448,0.1833311000686716
10.378159645232817,0.12987570165641538
10.411529933481154,0.015080810311152012
10.44490022172949,-0.1471673961502072
10.478270509977827,-0.3178372623786942
10.511640798226164,-0.44923819596992326
10.545011086474501,-0.5047493211908672
10.578381374722838,-0.4727988251290764
10.611751662971175,-0.3695769727565527
10.645121951219512,-0.23066865404839837
10.67849223946785,-0.09663928682972787
10.711862527716187,0.0006180954303544925
10.745232815964524,0.04558641105677788
10.778603104212861,0.03933437832638455
10.811973392461198,-0.005697374450035901
10.845343680709535,-0.07237762536793878
10.878713968957872,-0.1435936253256009
10.912084257206208,-0.2038816120894502
10.945454545454545,-0.2394472066856621
10.978824833702882,-0.2391417264370249
11.012195121951219,-0.19781041976766303
11.045565410199556,-0.12081289720578334
11.078935698447895,-0.026343464875898708
11.112305986696231,0.05777167892452987
11.145676274944568,0.10345701715291993
11.179046563192905,0.09470979133913458
11.212416851441242,0.036908978439627864
11.245787139689579,-0.04241439505185275
11.279157427937916,-0.10312922501272931
11.312527716186253,-0.10897105123150953
11.34589800443459,-0.04372863530866824
11.379268292682926,0.08029833730127461
11.412638580931263,0.2255683217931794
11.4460088691796,0.34294635578072374
11.479379157427939,0.38985872901535085
11.512749445676276,0.34551818550864627
11.546119733924613,0.21768509801154115
11.57949002217295,0.0395062076923754
11.612860310421286,-0.1410348312407608
11.646230598669623,-0.2745227436378078
11.67960088691796,-0.32232894533089
11.712971175166297,-0.26549566102145217
11.746341463414634,-0.1097087392110895
11.77971175166297,0.1139750610027561
11.813082039911308,0.3535961832727013
11.846452328159646,0.5469509318596819
11.879822616407983,0.6378190058761222
11.91319290465632,0.5941300942129626
11.946563192904657,0.42170278392908017
11.979933481152994,0.1668267653505061
12.01330376940133,-0.09585353779672279
12.046674057649668,-0.28771851598935766
12.080044345898004,-0.35427193165077725
12.113414634146341,-0.285487808662196
12.146784922394678,-0.11928251417243584
12.180155210643015,0.07394583064186717
12.213525498891352,0.2192163048315463
12.24689578713969,0.26510795380575103
12.280266075388028,0.20016093318471675
12.313636363636364,0.05161094037533725
12.347006651884701,-0.13082176180392777
12.380376940133038,-0.2967730656783697
12.413747228381375,-0.41216859151478075
12.447117516629712,-0.46500809937785154
12.480487804878049,-0.4606382901227969
12.513858093126386,-0.4124988948038508
12.547228381374723,-0.33526996949489335
12.58059866962306,-0.24382995964399112
12.613968957871396,-0.15611474490481014
12.647339246119735,-0.09453983690151432
12.680709534368072,-0.08149983092815088
12.714079822616409,-0.12909209127109805
12.747450110864746,-0.22847490916701754
12.780820399113082,-0.3463808079993829
12.81419068736142,-0.4333990930109831
12.847560975609756,-0.442149308039908
12.880931263858093,-0.3473137672308662
12.91430155210643,-0.15759125678582794
12.947671840354767,0.08667007441267727
12.981042128603104,0.3291651038827053
13.014412416851442,0.5190170761618813
13.04778270509978,0.6278456389636513
13.081152993348116,0.6554410841916078
13.114523281596453,0.6232349085356268
13.14789356984479,0.5607150616754246
13.181263858093127,0.49246932012618194
13.214634146341464,0.4317268482432464
13.2480044345898,0.38163964996875727
13.281374722838137,0.3410031137135796
13.314745011086474,0.3092156377455821
13.348115299334811,0.28684644771685924
13.381485587583148,0.2719488625852927
13.414855875831487,0.2557004274130742
13.448226164079824,0.2218489760327679
13.48159645232816,0.1522063075293615
13.514966740576497,0.03642053871478845
13.548337028824834,-0.11906126335724017
13.581707317073171,-0.28845743823045694
13.615077605321508,-0.43339155429589826
13.648447893569845,-0.517071935870302
13.681818181818182,-0.5199645816607297
13.715188470066519,-0.44968750235590643
13.748558758314855,-0.3400652048029148
13.781929046563192,-0.2389776593326265
13.815299334811531,-0.1895865322902535
13.848669623059868,-0.21249481654087196
13.882039911308205,-0.2962194090113543
13.915410199556542,-0.40025403607851506
13.948780487804878,-0.4702166112518466
13.982150776053215,-0.45976113002316005
14.015521064301552,-0.3507415452352522
14.048891352549889,-0.16293772980398089
14.082261640798226,0.051836017006586146
14.115631929046563,0.22995511715925948
14.1490022172949,0.32232404962114863
14.182372505543238,0.3147532107510964
14.215742793791575,0.23225720434351774
14.249113082039912,0.12483459749110995
14.282483370288249,0.04201275604895658
14.315853658536586,0.009666741991081395
14.349223946784923,0.021331170387230775
14.38259423503326,0.04782798365292278
14.415964523281596,0.0584935100994468
14.449334811529933,0.04104222024685371
14.48270509977827,0.008795266948316232
14.516075388026607,-0.007888268278651687
14.549445676274944,0.020000135391695435
14.582815964523283,0.10265488877084547
14.61618625277162,0.22404362772656605
14.649556541019956,0.34762368029150026
14.682926829268293,0.4316512843981535
14.71629711751663,0.44653145333619265
14.749667405764967,0.38642772074195975
14.783037694013304,0.2703595464084734
14.81640798226164,0.13276984072215092
14.849778270509978,0.008180134570235625
14.883148558758315,-0.08280426284950508
14.916518847006651,-0.13952778814703884
14.949889135254988,-0.17667189343160752
14.983259423503327,-0.21179661787406764
15.016629711751664,-0.2520697402495611
15.05,-0.2877672794064274
15.083370288248338,-0.29646098525538656
15.116740576496674,-0.25579719224505215
15.150110864745011,-0.1577743762439045
15.183481152993348,-0.016372900313419012
15.216851441241685,0.1359899329258939
15.250221729490022,0.2614241047417094
15.283592017738359,0.3319149908753489
15.316962305986696,0.3388998889401689
15.350332594235034,0.2926330787166417
15.383702882483371,0.21312510264296525
15.417073170731708,0.11923472858467066
15.450443458980045,0.02280265751017947
15.483813747228382,-0.06958063649498966
15.517184035476719,-0.15052070060412587
15.550554323725056,-0.20824983640809713
15.583924611973393,-0.2306315039245054
15.61729490022173,-0.21586330652484428
15.650665188470066,-0.18266922852544715
15.684035476718403,-0.17066312925167765
15.71740576496674,-0.2259163314029069
15.750776053215079,-0.37569489534074635
15.784146341463416,-0.6046672520639642
15.817516629711752,-0.847166179107285
15.85088691796009,-1.0039960265365224
15.884257206208426,-0.9802575627613092
15.917627494456763,-0.7288192424297976
15.9509977827051,-0.278913130595967
15.984368070953437,0.26572323743285137
16.017738359201775,0.7613995279056459
16.05110864745011,1.0784321583718357
16.08447893569845,1.151246542076584
16.117849223946784,1.0022267860072296
16.151219512195123,0.7285542154353273
16.184589800443458,0.45811688705893566
16.217960088691797,0.2944706215079248
16.251330376940132,0.27528863688607574
16.28470066518847,0.36200373513561107
16.31807095343681,0.46390153952774027
16.351441241685144,0.4844984331847432
16.384811529933483,0.36848319236934507
16.418181818181818,0.12787827670212445
16.451552106430157,-0.16396379936907954
16.48492239467849,-0.406929901437826
16.51829268292683,-0.5205057401879365
16.551662971175165,-0.4799209126918984
16.585033259423504,-0.3253737801575713
16.61840354767184,-0.14097058671885412
16.651773835920178,-0.014727412672467972
16.685144124168513,0.00047740987514752865
16.71851441241685,-0.09300677455186651
16.75188470066519,-0.24375638634491048
16.785254988913525,-0.37778814406802397
16.818625277161864,-0.43110274996540987
16.8519955654102,-0.373794806496701
16.885365853658538,-0.2178464886699651
16.918736141906873,-0.009113711230441626
16.95210643015521,0.190334464976717
16.985476718403547,0.32209248315316585
17.018847006651885,0.34791459430056615
17.05221729490022,0.25978689458118254
17.08558758314856,0.08221392184456677
17.118957871396898,-0.13382770700593197
17.152328159645233,-0.3247880747819806
17.18569844789357,-0.4336706437094736
17.219068736141907,-0.42891759298071375
17.252439024390245,-0.3158788221373541
17.28580931263858,-0.135151020834865
17.31917960088692,0.052895700957880674
17.352549889135254,0.19159552178748593
