Frequency (Hz),Amplitude
0.0,0.7931514835772839
0.01978021978021978,0.8173696366405918
0.03956043956043956,0.8859743571853681
0.05934065934065934,0.9895452964414897
0.07912087912087912,1.118066924979321
0.0989010989010989,1.2635274493673725
0.11868131868131868,1.4202517623630786
0.13846153846153844,1.5843775358688834
0.15824175824175823,1.7532725296156924
0.17802197802197803,1.9251038951218098
0.1978021978021978,2.098555750021595
0.21758241758241756,2.2726506094199963
0.23736263736263735,2.446636860205129
0.2571428571428572,2.6199170727022385
0.2769230769230769,2.7920015488638477
0.2967032967032967,2.962477645211592
0.31648351648351647,3.130989121765519
0.3362637362637363,3.2972219830001874
0.35604395604395606,3.4608946030154857
0.3758241758241758,3.621750730701888
0.3956043956043956,3.779554465314366
0.4153846153846154,3.9340866026071053
0.4351648351648351,4.085141949065815
0.45494505494505494,4.232527329748857
0.4747252747252747,4.376060099612901
0.4945054945054945,4.515567024705306
0.5142857142857143,4.650883438026552
0.5340659340659341,4.781852601365161
0.5538461538461538,4.9083252229300705
0.5736263736263736,5.030159093717689
0.5934065934065934,5.14721881494361
0.6131868131868132,5.25937559567387
0.6329670329670329,5.366507104772774
0.6527472527472528,5.468497364968911
0.6725274725274726,5.565236679591976
0.6923076923076923,5.656621584605672
0.7120879120879121,5.742554820136963
0.7318681318681318,5.822945316909161
0.7516483516483516,5.897708193918465
0.7714285714285715,5.966764764419965
0.7912087912087912,6.030042547858402
0.810989010989011,6.08747528582988
0.8307692307692308,6.139002960519396
0.8505494505494506,6.184571814348342
0.8703296703296702,6.224134369799486
0.8901098901098901,6.257649448579296
0.9098901098901099,6.285082189435588
0.9296703296703297,6.3064040640819305
0.9494505494505494,6.321592890792944
0.9692307692307692,6.3306328453328025
0.989010989010989,6.33351446896534
1.0087912087912088,6.330234673372478
1.0285714285714287,6.320796742379692
1.0483516483516484,6.305210330456805
1.0681318681318681,6.2834914580301
1.087912087912088,6.255662503711382
1.1076923076923075,6.221752193622132
1.1274725274725275,6.181795588069516
1.1472527472527472,6.135834065918092
1.1670329670329669,6.083915307099949
1.1868131868131868,6.026093273820382
1.2065934065934065,5.962428191151012
1.2263736263736265,5.892986527862939
1.2461538461538462,5.817840978547329
1.2659340659340659,5.737070448308222
1.2857142857142858,5.650760041606205
1.3054945054945055,5.559001057196309
1.3252747252747252,5.4618909915625595
1.3450549450549452,5.359533553831308
1.3648351648351649,5.252038695885741
1.3846153846153846,5.139522662354441
1.4043956043956045,5.022108066378798
1.4241758241758242,4.8999239986723
1.443956043956044,4.773106179502768
1.4637362637362636,4.641797166041732
1.4835164835164834,4.5061466312962235
1.5032967032967033,4.3663117359414665
1.523076923076923,4.2224576213494185
1.542857142857143,4.074758061746697
1.5626373626373626,3.923396326904816
1.5824175824175823,3.7685663258122073
1.6021978021978023,3.610474129058436
1.621978021978022,3.4493400072630718
1.6417582417582417,3.28540118120148
1.6615384615384616,3.118915566471753
1.6813186813186813,2.9501669280057885
1.7010989010989013,2.77947206434674
1.720879120879121,2.607190963229012
1.7406593406593405,2.4337413844568125
1.7604395604395604,2.259620163271324
1.7802197802197801,2.085434911138252
1.7999999999999998,1.9119521046874306
1.8197802197802198,1.7401714341752628
1.8395604395604395,1.5714426899502896
1.8593406593406594,1.4076514281048766
1.879120879120879,1.2515124398377602
1.8989010989010988,1.1070152966724969
1.9186813186813187,0.9800180335106465
1.9384615384615385,0.8787468193112986
1.9582417582417584,0.8133366412106448
1.978021978021978,0.7929957481090748
1.9978021978021978,0.8211640788356199
2.0175824175824175,0.8931682352973723
2.0373626373626372,0.9993396685968033
2.0571428571428574,1.129741309757965
2.076923076923077,1.2765451365100002
2.096703296703297,1.434241308988786
2.1164835164835165,1.5990860414313501
2.1362637362637362,1.7685258351826432
2.1560439560439564,1.9407791081280392
2.175824175824176,2.114563499754257
2.195604395604396,2.2889237691783735
2.215384615384615,2.463123342063127
2.2351648351648348,2.636575157310929
2.254945054945055,2.808796802979941
2.2747252747252746,2.979380847770685
2.2945054945054943,3.1479748418886655
2.314285714285714,3.314267587318693
2.3340659340659338,3.477979551007526
2.353846153846154,3.6388560667437533
2.3736263736263736,3.796662447405638
2.3934065934065933,3.9511804275983082
2.413186813186813,4.102205547065243
2.4329670329670328,4.249545208831469
2.452747252747253,4.39301722759672
2.4725274725274726,4.53244873858719
2.4923076923076923,4.6676753743023855
2.512087912087912,4.798540642295528
2.5318681318681318,4.924895455109913
2.5516483516483515,5.046597776235632
2.5714285714285716,5.163512355087421
2.5912087912087913,5.27551053062853
2.610989010989011,5.382470088119451
2.6307692307692307,5.4842751570627986
2.6505494505494505,5.58081614109965
2.6703296703296706,5.671989672636258
2.6901098901098903,5.757698586519108
2.70989010989011,5.837851908255878
2.7296703296703297,5.912364853192652
2.7494505494505495,5.981158833767623
2.769230769230769,6.044161472520057
2.7890109890109893,6.101306618974584
2.808791208791209,6.1525343688729865
2.8285714285714287,6.197791084509132
2.8483516483516484,6.237029415152355
2.8681318681318677,6.270208316733182
2.887912087912088,6.29729307012113
2.9076923076923076,6.318255297455599
2.9274725274725273,6.333072976101963
2.947252747252747,6.341730449902049
2.9670329670329667,6.34421843747315
2.986813186813187,6.340534037387373
3.0065934065934066,6.3306807301347465
3.0263736263736263,6.3146683768424605
3.046153846153846,6.292513214790477
3.0659340659340657,6.264237849833091
3.085714285714286,6.229871245908858
3.1054945054945056,6.189448711900157
3.1252747252747253,6.143011886191365
3.145054945054945,6.090608719374018
3.1648351648351647,6.032293455663049
3.184615384615385,5.9681266137240305
3.2043956043956046,5.898174967773999
3.2241758241758243,5.822511530015592
3.243956043956044,5.741215535704507
3.2637362637362637,5.6543724324481754
3.2835164835164834,5.562073875703574
3.3032967032967036,5.46441773290785
3.3230769230769233,5.3615080992642845
3.342857142857143,5.253455328958381
3.3626373626373627,5.14037608654563
3.3824175824175824,5.022393424506196
3.4021978021978025,4.899636894599806
3.4219780219780223,4.772242702813125
3.441758241758242,4.640353920561681
3.4615384615384617,4.50412076865906
3.481318681318681,4.3637009957815645
3.501098901098901,4.219260380293789
3.520879120879121,4.070973394172021
3.5406593406593405,3.9190240815721
3.5604395604395602,3.763607224141573
3.58021978021978,3.6049298932180567
3.5999999999999996,3.443213529821684
3.61978021978022,3.2786967534752796
3.6395604395604395,3.1116391909265086
3.659340659340659,2.942326752879061
3.679120879120879,2.7710789989331155
3.6989010989010986,2.5982595649914106
3.718681318681319,2.4242911629366777
3.7384615384615385,2.249677535939349
3.758241758241758,2.075036200049665
3.7780219780219784,1.9011482283789154
3.7978021978021976,1.729035410067086
3.8175824175824173,1.5600818500577807
3.8373626373626375,1.3962275155340413
3.8571428571428568,1.240274408339337
3.876923076923077,1.0963501977239787
3.896703296703296,0.9705181535015436
3.916483516483517,0.8712574822247633
3.936263736263736,0.8088725295994158
3.956043956043956,0.7923960954574477
3.9758241758241755,0.8246579611353255
3.9956043956043956,0.900329216894744
4.015384615384615,1.0094494272603878
4.035164835164835,1.1421208818897863
4.054945054945055,1.2906730888605196
4.0747252747252745,1.44974725099683
4.094505494505494,1.6157115542353326
4.114285714285715,1.7860886705420134
4.134065934065934,1.9591475654442296
4.153846153846154,2.13363944928091
4.173626373626373,2.308631636652116
4.193406593406594,2.4834029451760102
4.213186813186813,2.6573769891778
4.232967032967033,2.83007887496592
4.252747252747253,3.0011065381059123
4.2725274725274724,3.1701114034898716
4.292307692307692,3.3367850952857427
4.312087912087913,3.500850148612051
4.331868131868132,3.6620534175987896
4.351648351648352,3.820161332435857
4.371428571428571,3.974956445318892
4.391208791208792,4.126234888672489
4.410989010989011,4.273804488235766
4.43076923076923,4.417483352344336
4.450549450549451,4.557098811595974
4.4703296703296695,4.69248661909641
4.49010989010989,4.82349034636356
4.50989010989011,4.949960927393171
4.52967032967033,5.071756315744393
4.549450549450549,5.188741228369889
4.569230769230769,5.300786956347596
4.589010989010989,5.407771227388782
4.608791208791209,5.509578108490037
4.628571428571428,5.606097939708905
4.648351648351649,5.69722729201304
4.6681318681318675,5.782868943652282
4.687912087912088,5.862931870652951
4.707692307692308,5.9373312479238844
4.7274725274725276,6.005988458156756
4.747252747252747,6.068831106248449
4.767032967032967,6.125793037404486
4.786813186813187,6.176814357426887
4.806593406593407,6.221841453966912
4.826373626373626,6.260827017748328
4.846153846153847,6.29373006295126
4.8659340659340655,6.3205159460997375
4.885714285714286,6.3411563829249324
4.905494505494506,6.35562946278521
4.9252747252747255,6.36391966031957
4.945054945054945,6.366017844095126
4.964835164835165,6.361921282085597
4.984615384615385,6.351633643889008
5.004395604395604,6.335164999660974
5.024175824175824,6.312531815807509
5.043956043956045,6.283756947550446
5.0637362637362635,6.248869628551147
5.083516483516483,6.2079054578572705
5.103296703296703,6.160906384525116
5.123076923076923,6.107920690369967
5.142857142857143,6.049002971413085
5.162637362637362,5.984214118730675
5.182417582417583,5.913621299574213
5.2021978021978015,5.837297939829721
5.221978021978022,5.7553237091268805
5.241758241758242,5.667784510208618
5.2615384615384615,5.574772474546604
5.281318681318681,5.47638596665839
5.301098901098901,5.372729600178135
5.320879120879121,5.263914269494448
5.340659340659341,5.150057201748521
5.36043956043956,5.031282035257352
5.380219780219781,4.907718932089394
5.3999999999999995,4.77950473471303
5.41978021978022,4.646783179556888
5.43956043956044,4.509705184239798
5.4593406593406595,4.36842923054265
5.479120879120879,4.22312187247463
5.498901098901099,4.073958408868169
5.518681318681319,3.921123774059336
5.538461538461538,3.7648137202345695
5.558241758241758,3.6052363937865266
5.578021978021979,3.442614449904254
5.5978021978021975,3.277187911507449
5.617582417582418,3.109218071494976
5.637362637362637,2.9389928789098767
5.6571428571428575,2.7668344693625397
5.676923076923077,2.5931098470664415
5.696703296703297,2.4182462837779584
5.716483516483517,2.2427539129002434
5.736263736263735,2.0672595148465294
5.756043956043956,1.8925580430287565
5.775824175824176,1.719692746311189
5.795604395604395,1.5500818823820774
5.815384615384615,1.3857210997076426
5.835164835164835,1.2295044485190763
5.854945054945055,1.085710483314007
5.874725274725275,0.9606359535580128
5.894505494505494,0.8630644137374828
5.914285714285715,0.8035371529084868
5.934065934065933,0.7909578291367183
5.953846153846154,0.8275337210831851
5.973626373626374,0.9072249036986333
5.993406593406593,1.0197198464945645
6.013186813186813,1.1551171674583283
6.032967032967033,1.3058790768588697
6.052747252747253,1.4667859843806927
6.072527472527473,1.6343134695999706
6.092307692307692,1.8060592437740508
6.112087912087913,1.9803431100408335
6.131868131868131,2.1559506084525637
6.151648351648352,2.3319724275699016
6.171428571428572,2.5077034982232966
6.191208791208791,2.6825786881709845
6.210989010989011,2.856131056292351
6.230769230769231,3.027964211796054
6.2505494505494505,3.1977336538319983
6.270329670329671,3.3651339406774463
6.29010989010989,3.529889716991965
6.309890109890111,3.6917493423495684
6.329670329670329,3.8504803047915757
6.349450549450549,4.0058658795769615
6.36923076923077,4.157702669899864
6.3890109890109885,4.3057987811388
6.408791208791209,4.449972456082303
6.428571428571428,4.5900510495356395
6.4483516483516485,4.725870255454728
6.468131868131868,4.857273523775525
6.487912087912088,4.984111620939946
6.507692307692308,5.106242300063424
6.527472527472527,5.22353005526505
6.547252747252747,5.33584594090717
6.567032967032967,5.443067441059704
6.5868131868131865,5.5450783778892
6.606593406593407,5.6417688502052075
6.626373626373626,5.733035195307618
6.6461538461538465,5.8187799687338515
6.665934065934065,5.8989119376219055
6.685714285714286,5.97334608426947
6.705494505494506,6.042003617143741
6.725274725274725,6.104811987126388
6.745054945054945,6.161704907197832
6.764835164835165,6.212622374100579
6.7846153846153845,6.25751069079105
6.804395604395605,6.296322488709001
6.824175824175824,6.3290167490735785
6.8439560439560445,6.355558822564739
6.863736263736263,6.375920446874204
6.883516483516484,6.3900797617176535
6.903296703296704,6.398021320992885
6.923076923076923,6.399736101851444
6.942857142857143,6.3952215105262935
6.962637362637362,6.384481384828129
6.9824175824175825,6.367525993290519
7.002197802197802,6.344372031010665
7.021978021978022,6.315042612301326
7.041758241758242,6.279567260341536
7.061538461538461,6.237981894092384
7.081318681318681,6.190328812831817
7.101098901098901,6.136656678761953
7.1208791208791204,6.077020498258672
7.140659340659341,6.011481602470069
7.16043956043956,5.94010762813447
7.1802197802197805,5.862972499687709
7.199999999999999,5.78015641397295
7.21978021978022,5.6917458291678
7.23956043956044,5.597833459919599
7.259340659340659,5.498518281152626
7.279120879120879,5.393905543611213
7.298901098901099,5.284106804969028
7.318681318681318,5.1692399813225745
7.338461538461539,5.0494294251693415
7.358241758241758,4.924806037649227
7.3780219780219785,4.7955074250447245
7.397802197802197,4.661678112487009
7.417582417582418,4.523469831784346
7.437362637362638,4.3810419056776135
7.457142857142857,4.234561758219008
7.476923076923077,4.084205591220351
7.496703296703297,3.9301592810970645
7.516483516483516,3.7726195708574934
7.536263736263736,3.6117956613752487
7.556043956043957,3.4479113489626694
7.575824175824176,3.2812079197602415
7.595604395604395,3.1119481069696886
7.615384615384615,2.9404215630263617
7.635164835164835,2.7669525261126644
7.654945054945055,2.591910720585305
7.674725274725275,2.4157271121858406
7.694505494505494,2.2389170941885497
7.7142857142857135,2.062115276592562
7.734065934065935,1.8861287500935322
7.753846153846154,1.7120202787377607
7.7736263736263735,1.5412405249364993
7.793406593406592,1.375840379258454
7.813186813186814,1.2188095651790571
7.832967032967034,1.0745913569005787
7.852747252747252,0.9497515071059012
7.872527472527472,0.8534486302290539
7.892307692307693,0.7965602336664026
7.912087912087912,0.7879311695248681
7.931868131868132,0.8291239248711665
7.951648351648351,0.9132983337091815
7.971428571428572,1.0297057931951528
7.991208791208791,1.1683873868209236
8.010989010989011,1.321911530664303
8.03076923076923,1.485187394894639
8.05054945054945,1.6547952674068833
8.07032967032967,1.8284084260029458
8.09010989010989,2.0043991044610134
8.10989010989011,2.1815889213562714
8.129670329670331,2.3590935036995013
8.149450549450549,2.5362251797519404
8.169230769230769,2.7124310755170637
8.189010989010988,2.8872529620132616
8.20879120879121,3.060300677797026
8.22857142857143,3.231234186864232
8.248351648351647,3.3997512401526278
8.268131868131867,3.565578745477773
8.287912087912087,3.7284666383178724
8.307692307692308,3.888183469237195
8.327472527472528,4.044513189261897
8.347252747252746,4.197252784111256
8.367032967032966,4.346210518431878
8.386813186813187,4.491204624067149
8.406593406593407,4.632062315355809
8.426373626373627,4.768619047843853
8.446153846153845,4.900717959890733
8.465934065934066,5.028209452842134
8.485714285714286,5.15095087693503
8.505494505494505,5.268806298356735
8.525274725274725,5.381646328876435
8.545054945054945,5.489348003869125
8.564835164835165,5.59179469781529
8.584615384615384,5.688876068801695
8.604395604395604,5.780488025392674
8.624175824175826,5.8665327106461485
8.643956043956043,5.946918499127032
8.663736263736263,6.021560003606085
8.683516483516483,6.090378088783695
8.703296703296704,6.153299889890726
8.723076923076924,6.210258834424565
8.742857142857142,6.261194665603294
8.762637362637362,6.306053466382286
8.782417582417583,6.344787683090268
8.802197802197803,6.377356147916601
8.821978021978023,6.403724099626675
8.84175824175824,6.423863202004435
8.86153846153846,6.437751559625448
8.881318681318682,6.4453737306547
8.901098901098901,6.4467207364439325
8.920879120879121,6.441790067776866
8.940659340659339,6.430585687679034
8.96043956043956,6.413118030775251
8.98021978021978,6.389403999243382
9.0,6.35946695548047
9.01978021978022,6.323336711668523
9.03956043956044,6.281049516504965
9.05934065934066,6.232648039449152
9.079120879120879,6.178181352935298
9.098901098901099,6.117704913117039
9.11868131868132,6.051280539844593
9.138461538461538,5.978976396738553
9.158241758241758,5.900866972421689
9.178021978021977,5.817033064212481
9.197802197802199,5.727561765883918
9.217582417582419,5.632546461465399
9.237362637362637,5.5320868275367845
9.257142857142856,5.426288847061891
9.276923076923078,5.315264838573508
9.296703296703297,5.19913350550846
9.316483516483517,5.078020011772992
9.336263736263735,4.95205609129859
9.356043956043957,4.821380201568511
9.375824175824176,4.686137734056396
9.395604395604396,4.546481298503924
9.415384615384616,4.402571103383599
9.435164835164835,4.254575462336723
9.454945054945055,4.102671466717048
9.474725274725275,3.9470458789028795
9.494505494505495,3.787896321720912
9.514285714285714,3.625432869147333
9.534065934065934,3.4598801870701097
9.553846153846154,3.291480437658297
9.573626373626373,3.120497258589908
9.593406593406593,2.947221278314518
9.613186813186815,2.771977862719965
9.632967032967032,2.595138161268365
9.652747252747252,2.417135125181551
9.672527472527472,2.238487169463199
9.692307692307693,2.0598338312704363
9.712087912087913,1.8819906433157798
9.731868131868131,1.7060353540169577
9.75164835164835,1.5334459304291403
9.771428571428572,1.3663239909811447
9.791208791208792,1.2077544505963347
9.810989010989012,1.0623575566669412
9.83076923076923,0.9370112585322556
9.850549450549451,0.841348658928845
9.87032967032967,0.7867373068593332
9.89010989010989,0.7820826253272535
9.90989010989011,0.8282736905125111
9.92967032967033,0.9175303499533465
9.94945054945055,1.0385371635614842
9.96923076923077,1.181203782192408
9.989010989010989,1.3381730027027756
10.008791208791209,1.5044725975545223
10.028571428571428,1.6767866555015543
10.048351648351648,1.8528664175883676
10.068131868131868,2.0311397290515902
10.08791208791209,2.210467296327659
10.107692307692307,2.389992226308223
10.127472527472527,2.5690462803362313
10.147252747252747,2.7470904248850783
10.167032967032966,2.9236763469626275
10.186813186813188,3.0984210125312814
10.206593406593406,3.2709895049241955
10.226373626373626,3.4410832293712565
10.246153846153845,3.6084316659967848
10.265934065934067,3.772786514705891
10.285714285714286,3.933917481536601
10.305494505494504,4.091609210408842
10.325274725274724,4.245659026495567
10.345054945054946,4.395875262875659
10.364835164835165,4.542076011804578
10.384615384615385,4.68408818873483
10.404395604395603,4.821746829128889
10.424175824175824,4.95489456018077
10.443956043956044,5.083381205037107
10.463736263736264,5.207063488095849
10.483516483516484,5.325804817853362
10.503296703296703,5.439475129505705
10.523076923076923,5.547950773719523
10.542857142857143,5.651114441110457
10.562637362637362,5.74885511430373
10.582417582417584,5.841068041217177
10.602197802197802,5.927654724551742
10.621978021978022,6.008522923508013
10.641758241758241,6.083586664547269
10.661538461538463,6.152766258640505
10.681318681318682,6.21598832293994
10.7010989010989,6.273185805197645
10.72087912087912,6.324298009566859
10.740659340659342,6.369270622673404
10.760439560439561,6.408055739048376
10.780219780219781,6.4406118851816
