Time (s),Filtered Signal
0.0,0.06738021407517718
0.03337000366703337,0.5198504419393791
0.06674000733406674,0.8495499425999918
0.1001100110011001,0.9950425608962842
0.13348001466813347,0.9832562555542458
0.16685001833516683,0.9110073313924225
0.2002200220022002,0.8911412911581739
0.2335900256692336,0.9928443879714342
0.26696002933626695,1.2074486610639203
0.3003300330033003,1.4560916205946914
0.33370003667033366,1.63287401559016
0.36707004033736707,1.6591447271795772
0.4004400440044004,1.520353833794086
0.4338100476714338,1.267833213576825
0.4671800513384672,0.9871858273136446
0.5005500550055005,0.7520207890357766
0.5339200586725339,0.587825350771148
0.5672900623395672,0.46356138359705185
0.6006600660066006,0.3130594818422088
0.634030069673634,0.07328211778939632
0.6674000733406673,-0.2804302625916175
0.7007700770077008,-0.7185310076898074
0.7341400806747341,-1.1665271118584326
0.7675100843417675,-1.533180948669717
0.8008800880088008,-1.7440993207198385
0.8342500916758342,-1.7665904619947503
0.8676200953428675,-1.6170301754806018
0.9009900990099009,-1.3501702817098704
0.9343601026769344,-1.0371515479071476
0.9677301063439677,-0.7425199810282401
1.001100110011001,-0.5091360560166768
1.0344701136780343,-0.3546057528018362
1.0678401173450678,-0.2766849955969139
1.1012101210121013,-0.2613901845770504
1.1345801246791345,-0.28822270340842326
1.167950128346168,-0.3311881441561397
1.2013201320132012,-0.3589495483996552
1.2346901356802347,-0.33892974772702855
1.268060139347268,-0.2471313531968348
1.3014301430143014,-0.07993969518659004
1.3348001466813346,0.13963820514053807
1.368170150348368,0.36768874625401554
1.4015401540154016,0.5573003348112017
1.4349101576824348,0.681140134657309
1.4682801613494683,0.746571547595396
1.5016501650165015,0.7931292004274776
1.535020168683535,0.8705927508372939
1.5683901723505682,1.0069325969880218
1.6017601760176017,1.183003363580877
1.6351301796846351,1.3299791124869635
1.6685001833516684,1.3552625919944306
1.7018701870187019,1.1874758722479282
1.735240190685735,0.8191758861110681
1.7686101943527686,0.3242971872415594
1.8019801980198018,-0.16202373643873072
1.8353502016868353,-0.4953969547475424
1.8687202053538687,-0.583485283266425
1.902090209020902,-0.42804122294002356
1.9354602126879354,-0.12687551879432896
1.9688302163549687,0.16656889027480482
2.002200220022002,0.30817205668590086
2.0355702236890356,0.22290919391779648
2.0689402273560686,-0.06772282094347826
2.102310231023102,-0.46204431510936833
2.1356802346901356,-0.8286989449783217
2.169050238357169,-1.0659394071035697
2.2024202420242025,-1.1413909527415924
2.2357902456912355,-1.0949585074827504
2.269160249358269,-1.0064877439280415
2.3025302530253025,-0.9470470228258407
2.335900256692336,-0.939724143290034
2.369270260359369,-0.9494666599899534
2.4026402640264024,-0.9055006270281601
2.436010267693436,-0.7428879386191064
2.4693802713604693,-0.44068757964969946
2.502750275027503,-0.03727169468948354
2.536120278694536,0.38379976756309964
2.5694902823615693,0.728765072337136
2.6028602860286028,0.9314734807836044
2.636230289695636,0.9764811699194923
2.6696002933626692,0.8988570795630497
2.7029702970297027,0.763941978548854
2.736340300696736,0.638721808266921
2.7697103043637696,0.5679761766325315
2.803080308030803,0.5635340334856405
2.836450311697836,0.6075125440025021
2.8698203153648696,0.6646035845314733
2.903190319031903,0.696664360516948
2.9365603226989365,0.674591622897416
2.96993032636597,0.5854297028286779
3.003300330033003,0.43472247988071067
3.0366703337000365,0.24458704250413715
3.07004033736707,0.04769388759281347
3.1034103410341034,-0.12235398959706759
3.1367803447011364,-0.24220021524121713
3.17015034836817,-0.3074473389193009
3.2035203520352034,-0.3343367599449368
3.236890355702237,-0.3521667705473494
3.2702603593692703,-0.3888889610786433
3.3036303630363033,-0.45667502188106013
3.3370003667033368,-0.5452007710710267
3.3703703703703702,-0.6267408462379903
3.4037403740374037,-0.6706807191116302
3.4371103777044367,-0.6595456873850488
3.47048038137147,-0.5975816161226672
3.5038503850385037,-0.5071546273914209
3.537220388705537,-0.4153429832992838
3.5705903923725706,-0.33877726327231
3.6039603960396036,-0.27557816019364384
3.637330399706637,-0.2087668664990131
3.6707004033736705,-0.11868407967633268
3.704070407040704,0.003086280901887203
3.7374404107077375,0.1462809253501755
3.7708104143747705,0.2850368840661732
3.804180418041804,0.38960133925065815
3.8375504217088374,0.44019521746276064
3.870920425375871,0.43562750438662556
3.904290429042904,0.3923634341782907
3.9376604327099374,0.335159742091123
3.971030436376971,0.2850593032658982
4.004400440044004,0.2517014583396718
4.037770443711038,0.2337572537675588
4.071140447378071,0.22581839214941227
4.104510451045105,0.2259087919312361
4.137880454712137,0.23775855143576205
4.171250458379171,0.26599316421559777
4.204620462046204,0.30757037949266736
4.237990465713238,0.34564936102981336
4.271360469380271,0.35091961446748965
4.304730473047305,0.2912500171813982
4.338100476714338,0.14596797429776365
4.3714704803813715,-0.08145952676027929
4.404840484048405,-0.35817171822689703
4.438210487715438,-0.6271493538430036
4.471580491382471,-0.8221790414207943
4.5049504950495045,-0.8882106607019882
4.538320498716538,-0.8004609921710181
4.571690502383571,-0.5753211793428917
4.605060506050605,-0.26823990535316644
4.638430509717638,0.04201169257248228
4.671800513384672,0.27815315086578174
4.705170517051705,0.3896518297067186
4.738540520718738,0.368697106716277
4.771910524385771,0.2501263810808029
4.805280528052805,0.09492018588010268
4.838650531719838,-0.03581900239263672
4.872020535386872,-0.1048187451236363
4.905390539053905,-0.10966429466675959
4.938760542720939,-0.07632766673580821
4.972130546387972,-0.03942811101416206
5.005500550055006,-0.020075446397604585
5.038870553722038,-0.012992937062118213
5.072240557389072,0.010607854988301385
5.105610561056105,0.08618081851419357
5.138980564723139,0.23372675525366438
5.172350568390172,0.44147240819109984
5.2057205720572055,0.6635320629162175
5.239090575724239,0.8332542484586043
5.272460579391272,0.8868870316692518
5.305830583058306,0.7876609591205169
5.3392005867253385,0.5403841920365655
5.372570590392372,0.19106293694885004
5.405940594059405,-0.1874220188664345
5.439310597726439,-0.5172679650788309
5.472680601393472,-0.7372952340459588
5.506050605060506,-0.8178547453396369
5.539420608727539,-0.7662460776768953
5.572790612394573,-0.6226392937306829
5.606160616061606,-0.4480606712065992
5.63953061972864,-0.3069429255058465
5.672900623395672,-0.24794980457927224
5.706270627062706,-0.2882282959212089
5.739640630729739,-0.4067425022598954
5.773010634396773,-0.5505004191158432
5.806380638063806,-0.6530408897962128
5.83975064173084,-0.6591062937384307
5.873120645397873,-0.5458047717740363
5.9064906490649065,-0.33111635413783536
5.93986065273194,-0.06564561897395936
5.9732306563989725,0.18903489959644496
6.006600660066006,0.3858223924828498
6.0399706637330395,0.5097419850983592
6.073340667400073,0.579834776149812
6.106710671067106,0.6347735504326762
6.14008067473414,0.7095085458243372
6.173450678401173,0.8145324578155699
6.206820682068207,0.9279829058108281
6.24019068573524,1.0044092798123407
6.273560689402273,0.9957719853880556
6.306930693069306,0.8742736228928665
6.34030069673634,0.645981013892868
6.373670700403373,0.3491246181559825
6.407040704070407,0.03873242283477239
6.44041070773744,-0.23425908850286836
6.473780711404474,-0.4392912351185157
6.507150715071507,-0.5709471688590172
6.540520718738541,-0.64168561688125
6.573890722405573,-0.6681716253567016
6.607260726072607,-0.6595246502216217
6.64063072973964,-0.6138421899157608
6.6740007334066735,-0.5241099867660134
6.707370737073707,-0.3891908186353122
6.7407407407407405,-0.22295957752387915
6.774110744407774,-0.055926222572295535
6.807480748074807,0.0722959195393744
6.840850751741841,0.12690903942651274
6.8742207554088735,0.09262662367860262
6.907590759075907,-0.01702680594448033
6.94096076274294,-0.16050149461323168
6.974330766409974,-0.2806571103659171
7.007700770077007,-0.32602543109194415
7.041070773744041,-0.27344415634416974
7.074440777411074,-0.14184260872363563
7.107810781078108,0.011464093713478053
7.141180784745141,0.11383993068095934
7.174550788412174,0.11192005032631384
7.207920792079207,0.0021949365340621888
7.241290795746241,-0.1587375897826767
7.274660799413274,-0.272713096238544
7.308030803080308,-0.24228049939797316
7.341400806747341,-0.019048948051823923
7.3747708104143745,0.3645843045568659
7.408140814081408,0.7972071282731527
7.4415108177484415,1.1260985222506013
7.474880821415475,1.2168150000054654
7.5082508250825075,1.0098856435658607
7.541620828749541,0.5500371126489092
7.5749908324165744,-0.02548166811736895
7.608360836083608,-0.5357878759879439
7.641730839750641,-0.8232752711954041
7.675100843417675,-0.8121196224217309
7.708470847084708,-0.5357662239162246
7.741840850751742,-0.12353338960911703
7.775210854418775,0.24760672110821969
7.808580858085808,0.417456716391685
7.841950861752841,0.2999014887219982
7.875320865419875,-0.08631966336166852
7.908690869086908,-0.6227666716924997
7.942060872753942,-1.1297666394209098
7.975430876420975,-1.4254017092585387
8.008800880088009,-1.3862478181931517
8.042170883755041,-0.9903816390082516
8.075540887422076,-0.32795270116039504
8.108910891089108,0.42570900983760673
8.142280894756142,1.0670061401933666
8.175650898423175,1.432196566225853
8.20902090209021,1.4523340072332531
8.242390905757242,1.1740849837555938
8.275760909424275,0.7377163038615507
8.309130913091309,0.3203091035359809
8.342500916758341,0.06670463221756667
8.375870920425376,0.03626352083562109
8.409240924092408,0.18706637145542512
8.442610927759443,0.4029115452021483
8.475980931426475,0.5495208206832989
8.50935093509351,0.5336898324108131
8.542720938760542,0.3389420105978149
8.576090942427575,0.023627595208103477
8.60946094609461,-0.31398414087953297
8.642830949761642,-0.5837255516738186
8.676200953428676,-0.7402975605968718
8.709570957095709,-0.7925267970542548
8.742940960762743,-0.7845571816526318
8.776310964429776,-0.7629161441473986
8.80968096809681,-0.749059939862501
8.843050971763843,-0.7315398868877815
8.876420975430875,-0.6793565620186378
8.90979097909791,-0.5660380140943856
8.943160982764942,-0.38917181648749355
8.976530986431976,-0.17448588305780288
9.009900990099009,0.036383235062550125
9.043270993766043,0.2059323027165845
9.076640997433076,0.31667809300016736
9.11001100110011,0.3745887797707404
9.143381004767143,0.39963931724665785
9.176751008434175,0.4103131245307086
9.21012101210121,0.41160116108990263
9.243491015768242,0.3932742359980697
9.276861019435277,0.3389526533020493
9.31023102310231,0.24039457005112352
9.343601026769344,0.10864992221352078
9.376971030436376,-0.024545971625514987
9.41034103410341,-0.116703429946531
9.443711037770443,-0.1316543721282566
9.477081041437476,-0.05592045823469271
9.51045104510451,0.09341742418486687
9.543821048771543,0.2733882107911088
9.577191052438577,0.4306456442549246
9.61056105610561,0.5210906644392111
9.643931059772644,0.5249573964440792
9.677301063439677,0.4509766159340758
9.710671067106711,0.3285914702141828
9.744041070773743,0.19292907107614105
9.777411074440776,0.07033354323102715
9.81078107810781,-0.028830969320404843
9.844151081774843,-0.10792687854153359
9.877521085441877,-0.17545660251874481
9.91089108910891,-0.2363298996725204
9.944261092775944,-0.2884081184132289
9.977631096442977,-0.32581494105269576
10.011001100110011,-0.34587638884573035
10.044371103777044,-0.35405100077487717
10.077741107444076,-0.36239062247276493
10.11111111111111,-0.38134328688397373
10.144481114778143,-0.40958440020395653
10.177851118445178,-0.42895154211958963
10.21122112211221,-0.4095716247675753
10.244591125779245,-0.32456210119408113
10.277961129446277,-0.1673865829511715
10.311331133113312,0.03805136069692853
10.344701136780344,0.24189944476132785
10.378071140447377,0.3874610300353824
10.411441144114411,0.43670069971028636
10.444811147781444,0.3893606747467056
10.478181151448478,0.2848666208685908
10.51155115511551,0.18420755269008768
10.544921158782545,0.1392329045895129
10.578291162449577,0.1641100356228926
10.611661166116612,0.22401687191308509
10.645031169783644,0.24877549691608195
10.678401173450677,0.16713977744495603
10.711771177117711,-0.05353533837493363
10.745141180784744,-0.38183159281471435
10.778511184451778,-0.725368388019392
10.81188118811881,-0.9637897685770173
10.845251191785845,-0.9981909796544323
10.878621195452878,-0.7946073826189066
10.911991199119912,-0.40109681180443835
10.945361202786945,0.06987165059638704
10.978731206453979,0.485621999076543
11.012101210121012,0.7437173146867794
11.045471213788044,0.80627782717962
11.078841217455079,0.7046636834653456
11.112211221122111,0.5157996878276645
11.145581224789145,0.3243806750604417
11.178951228456178,0.18995063370999005
11.212321232123212,0.13263854713519516
11.245691235790245,0.1397556090818035
11.27906123945728,0.1843220150304279
11.312431243124312,0.24205005661166307
11.345801246791344,0.29736292911196166
11.379171250458379,0.33841611146598916
11.412541254125411,0.3493506436463333
11.445911257792446,0.30960674940455524
11.479281261459478,0.20409617499578575
11.512651265126513,0.03867703085840903
11.546021268793545,-0.15062536636052443
11.57939127246058,-0.3043691246914459
11.612761276127612,-0.363191835899311
11.646131279794645,-0.29816646708187705
11.67950128346168,-0.1322567238145764
11.712871287128712,0.060302723808874886
11.746241290795746,0.17987107646850997
11.779611294462779,0.14316491165062123
11.812981298129813,-0.07727581041998537
11.846351301796846,-0.43470794048656064
11.87972130546388,-0.8211221213660079
11.913091309130913,-1.1075532107860708
11.946461312797945,-1.194764669801065
11.97983131646498,-1.0520850433990734
12.013201320132012,-0.7276847532055359
12.046571323799046,-0.32699076137256505
12.079941327466079,0.029763421727110502
12.113311331133113,0.25173759909392307
12.146681334800146,0.30565909009371006
12.18005133846718,0.21921298754253613
12.213421342134213,0.06237969626977601
12.246791345801245,-0.0821788376313829
12.28016134946828,-0.1466100063708318
12.313531353135312,-0.09431622559028935
12.346901356802347,0.07653121196293124
12.38027136046938,0.3385535976141113
12.413641364136414,0.6442049178647771
12.447011367803446,0.9348186008110392
12.48038137147048,1.1496513204428696
12.513751375137513,1.2367083435302064
12.547121378804546,1.1657958584451675
12.58049138247158,0.9407269844097355
12.613861386138613,0.6046317408346782
12.647231389805647,0.2326574481505392
12.68060139347268,-0.0890693001218785
12.713971397139714,-0.29237090662119125
12.747341400806746,-0.35249766745752015
12.78071140447378,-0.29842756067486337
12.814081408140813,-0.20193526573974682
12.847451411807846,-0.14862984811460328
12.88082141547488,-0.2023969847507021
12.914191419141913,-0.37784722918983243
12.947561422808947,-0.6321034473865864
12.98093142647598,-0.8793298607368191
13.014301430143014,-1.0224377533699485
13.047671433810047,-0.989953804100973
13.081041437477081,-0.7642242872312839
13.114411441144114,-0.3902722012668462
13.147781444811146,0.038442790946057945
13.18115144847818,0.41257625858576913
13.214521452145213,0.6456379871531179
13.247891455812248,0.7035532632894529
13.28126145947928,0.6125962195148668
13.314631463146315,0.4421433789329531
13.348001466813347,0.2702530533101801
13.381371470480381,0.14863674788513548
13.414741474147414,0.08408180673034059
13.448111477814447,0.044780657458105354
13.481481481481481,-0.01330830531972602
13.514851485148514,-0.11548157067395637
13.548221488815548,-0.24984657263584487
13.58159149248258,-0.37083478098997763
13.614961496149615,-0.4218027116923794
13.648331499816647,-0.3641445989619627
13.681701503483682,-0.19815128953584618
13.715071507150714,0.033650462318959386
13.748441510817747,0.2607372572843009
13.781811514484781,0.4088202904708703
13.815181518151814,0.4238562430704269
13.848551521818848,0.2880791125948658
13.88192152548588,0.025089697746766275
13.915291529152915,-0.30512900676585686
13.948661532819948,-0.6190971631395199
13.982031536486982,-0.8287263816922199
14.015401540154015,-0.8640027239973356
14.048771543821047,-0.6952052687134804
14.082141547488082,-0.34774983772297063
14.115511551155114,0.09784629811279041
14.148881554822148,0.5249306763652265
14.182251558489181,0.8156278424074999
14.215621562156215,0.8910398605655149
14.248991565823248,0.7416525898754996
14.282361569490282,0.43448719310801404
14.315731573157315,0.09146240168223575
14.349101576824348,-0.15500992654957388
14.382471580491382,-0.21275152653727913
14.415841584158414,-0.0660994972868969
14.449211587825449,0.21841152075917253
14.482581591492481,0.5206209380669692
14.515951595159516,0.7179420724518637
14.549321598826548,0.7367354882272976
14.582691602493583,0.5808013516990791
14.616061606160615,0.3244739229439898
14.649431609827648,0.07452425966350541
14.682801613494682,-0.08036351515657356
14.716171617161715,-0.10858071434639148
14.749541620828749,-0.045509258973948294
14.782911624495782,0.028701390356132745
14.816281628162816,0.03128676387704503
14.849651631829849,-0.08208619429775091
14.883021635496883,-0.2968925328212248
14.916391639163916,-0.5486856361120805
14.94976164283095,-0.7556011967226465
14.983131646497982,-0.8575212697570234
15.016501650165015,-0.8426248354361345
15.04987165383205,-0.7491763305411911
15.083241657499082,-0.6429584755277702
15.116611661166116,-0.5822955219242769
15.149981664833149,-0.5878204769380513
15.183351668500183,-0.6312389164485168
15.216721672167216,-0.6482889183019417
15.25009167583425,-0.5700906541105039
15.283461679501283,-0.3586829458058391
15.316831683168315,-0.030200365914578663
15.35020168683535,0.3459015622173054
15.383571690502382,0.6725923448236812
15.416941694169417,0.8652837853129415
15.45031169783645,0.8881687682772956
15.483681701503484,0.7700335607653007
15.517051705170516,0.5919065985779561
15.55042170883755,0.4518000686089349
15.583791712504583,0.4221950655937169
15.617161716171616,0.5190779176387803
15.65053171983865,0.6960219070111826
15.683901723505683,0.8655613309569662
15.717271727172717,0.9379984269573166
15.75064173083975,0.8602295788742575
15.784011734506784,0.6375033271607932
15.817381738173816,0.32896771329573093
15.85075174184085,0.019804585662608547
15.884121745507883,-0.21661758111073282
15.917491749174916,-0.34862788669604733
15.95086175284195,-0.3942208327909415
15.984231756508983,-0.40423237021670644
16.017601760176017,-0.4307388651868608
16.05097176384305,-0.49840972831418784
16.084341767510082,-0.5943473099896415
16.117711771177117,-0.6807446723423998
16.15108177484415,-0.7210914351095391
16.184451778511182,-0.7030387970041514
16.217821782178216,-0.6440779003110417
16.25119178584525,-0.5777141719766341
16.284561789512285,-0.5302635938576012
16.317931793179316,-0.503859540340752
16.35130179684635,-0.4766133993827668
16.384671800513384,-0.4194684670398803
16.41804180418042,-0.3184655608923887
16.45141180784745,-0.18754312922243177
16.484781811514484,-0.06269819179324908
16.51815181518152,0.020139098699198214
16.55152181884855,0.050689239801902
16.584891822515583,0.057424349577597025
16.618261826182618,0.09858566382159441
16.651631829849652,0.2338405154121218
16.685001833516683,0.49049976969459824
16.718371837183717,0.8418146041558418
16.75174184085075,1.2089919633965898
16.785111844517782,1.4868686871599772
16.818481848184817,1.5822054091739526
16.85185185185185,1.4486072519576199
16.885221855518886,1.1045638579706365
16.918591859185916,0.6286925650296938
16.95196186285295,0.13496060252385134
16.985331866519985,-0.2629553258521675
17.01870187018702,-0.48650880887228226
17.05207187385405,-0.5157844743712345
17.085441877521085,-0.3947058839592978
17.11881188118812,-0.21595355631256977
17.15218188485515,-0.08926745229636492
17.185551888522184,-0.10242091723987443
17.21892189218922,-0.2880617081250001
17.252291895856253,-0.6094649749534672
17.285661899523284,-0.9724763127863766
17.319031903190318,-1.260656182941432
17.352401906857352,-1.38013256106537
