Frequency (Hz),Amplitude
0.0,7.167885072597137
0.01978021978021978,7.164753563897017
0.03956043956043956,7.155363174862379
0.05934065934065934,7.13972632229513
0.07912087912087912,7.117863719709791
0.0989010989010989,7.089804406172247
0.11868131868131868,7.05558578783309
0.13846153846153844,7.01525369335157
0.15824175824175823,6.9688624448019425
0.17802197802197803,6.916474946093319
0.1978021978021978,6.858162791429267
0.21758241758241756,6.794006396899578
0.23736263736263735,6.724095158950729
0.2571428571428572,6.6485276442451875
0.2769230769230769,6.5674118163164845
0.2967032967032967,6.480865305488068
0.31648351648351647,6.389015729784195
0.3362637362637363,6.292001076065069
0.35604395604395606,6.189970152417671
0.3758241758241758,6.083083124992454
0.3956043956043956,5.97151215506869
0.4153846153846154,5.855442155248883
0.4351648351648351,5.735071687429446
0.45494505494505494,5.610614029692983
0.4747252747252747,5.48229844465159
0.4945054945054945,5.350371688186465
0.5142857142857143,5.215099805118137
0.5340659340659341,5.076770267221543
0.5538461538461538,4.9356945192215225
0.5736263736263736,4.792211009879496
0.5934065934065934,4.646688797665213
0.6131868131868132,4.499531832995558
0.6329670329670329,4.351184030037868
0.6527472527472528,4.202135247771421
0.6725274725274726,4.052928297504584
0.6923076923076923,3.9041670743561405
0.7120879120879121,3.7565258606725838
0.7318681318681318,3.6107597507322726
0.7516483516483516,3.4677159705362293
0.7714285714285715,3.3283455763484575
0.7912087912087912,3.1937145652685808
0.810989010989011,3.065012775943543
0.8307692307692308,2.9435580775982855
0.8505494505494506,2.8307922924136606
0.8703296703296702,2.728264268323272
0.8901098901098901,2.637594951648542
0.9098901098901099,2.5604199176835807
0.9296703296703297,2.4983074719154996
0.9494505494505494,2.452655707481946
0.9692307692307692,2.424579297418578
0.989010989010989,2.414804073045824
1.0087912087912088,2.423590917084421
1.0285714285714287,2.4507069615930144
1.0483516483516484,2.495451389523365
1.0681318681318681,2.556729285518459
1.087912087912088,2.6331559747519857
1.1076923076923075,2.7231703156021974
1.1274725274725275,2.8251385648203424
1.1472527472527472,2.937437598116804
1.1670329670329669,3.0585137310136687
1.1868131868131868,3.186918802710253
1.2065934065934065,3.321327977219454
1.2263736263736265,3.4605444161510115
1.2461538461538462,3.603495454459517
1.2659340659340659,3.749223894455137
1.2857142857142858,3.8968769748490137
1.3054945054945055,4.0456946798555435
1.3252747252747252,4.194998385888299
1.3450549450549452,4.3441803827219605
1.3648351648351649,4.492694508190957
1.3846153846153846,4.640047954637739
1.4043956043956045,4.785794203226016
1.4241758241758242,4.929526990525442
1.443956043956044,5.070875190792408
1.4637362637362636,5.20949849415049
1.4835164835164834,5.345083767198123
1.5032967032967033,5.477341993426412
1.523076923076923,5.606005703278825
1.542857142857143,5.7308268160940115
1.5626373626373626,5.851574827706048
1.5824175824175823,5.968035287767867
1.6021978021978023,6.080008519814579
1.621978021978022,6.187308544739446
1.6417582417582417,6.289762174830665
1.6615384615384616,6.387208250953623
1.6813186813186813,6.479497000005602
1.7010989010989013,6.566489493554596
1.720879120879121,6.648057191722551
1.7406593406593405,6.724081558992441
1.7604395604395604,6.794453740798679
1.7802197802197801,6.859074291577615
1.7999999999999998,6.917852946473279
1.8197802197802198,6.970708430166308
1.8395604395604395,7.017568297364333
1.8593406593406594,7.058368800397762
1.879120879120879,7.093054780134508
1.8989010989010988,7.121579577087068
1.9186813186813187,7.143904960155797
1.9384615384615385,7.160001070950878
1.9582417582417584,7.1698463820774485
1.978021978021978,7.173427668166273
1.9978021978021978,7.170739988797779
2.0175824175824175,7.161786682809546
2.0373626373626372,7.1465793738067624
2.0571428571428574,7.125137987019306
2.076923076923077,7.09749077797749
2.096703296703297,7.063674373819139
2.1164835164835165,7.023733828403208
2.1362637362637362,6.977722692799264
2.1560439560439564,6.925703103159034
2.175824175824176,6.86774588846831
2.195604395604396,6.803930701240127
2.215384615384615,6.734346174859675
2.2351648351648348,6.659090112049281
2.254945054945055,6.578269709812119
2.2747252747252746,6.492001827266165
2.2945054945054943,6.400413304030579
2.314285714285714,6.3036413383190615
2.3340659340659338,6.201833935680496
2.353846153846154,6.0951504414694
2.3736263736263736,5.983762172703158
2.3934065934065933,5.8678531680581365
2.413186813186813,5.74762107847948
2.4329670329670328,5.62327822534948
2.452747252747253,5.4950528585144305
2.4725274725274726,5.363190652855732
2.4923076923076923,5.227956489653384
2.512087912087912,5.0896365778519135
2.5318681318681318,4.948540980560555
2.5516483516483515,4.80500662363008
2.5714285714285716,4.6594008756274485
2.5912087912087913,4.512125801214941
2.610989010989011,4.363623201318523
2.6307692307692307,4.214380560789571
2.6505494505494505,4.0649380227937835
2.6703296703296706,3.915896491101241
2.6901098901098903,3.7679269144183754
2.70989010989011,3.621780711992521
2.7296703296703297,3.4783011294342816
2.7494505494505495,3.3384350305962163
2.769230769230769,3.2032441895110315
2.7890109890109893,3.0739144999399994
2.808791208791209,2.9517606456502046
2.8285714285714287,2.8382227169646277
2.8483516483516484,2.734850206199264
2.8681318681318677,2.6432681886410467
2.887912087912088,2.5651210050798268
2.9076923076923076,2.5019912881981554
2.9274725274725273,2.455297339736893
2.947252747252747,2.4261792567657205
2.9670329670329667,2.4153916670738136
2.986813186813187,2.423224787978995
3.0065934065934066,2.44947240057714
3.0263736263736263,2.493454856384722
3.046153846153846,2.554091242398318
3.0659340659340657,2.6300034027142822
3.085714285714286,2.719630081679478
3.1054945054945056,2.821332331209517
3.1252747252747253,2.933478462261067
3.145054945054945,3.0545044223558304
3.1648351648351647,3.1829510837555897
3.184615384615385,3.3174828655150383
3.2043956043956046,3.4568928963839354
3.2241758241758243,3.6000994327526215
3.243956043956044,3.746137227987941
3.2637362637362637,3.894146475239381
3.2835164835164834,4.043361035546397
3.3032967032967036,4.19309697953051
3.3230769230769233,4.3427419982166064
3.342857142857143,4.49174593243747
3.3626373626373627,4.639612484105866
3.3824175824175824,4.78589206733959
3.4021978021978025,4.93017570391237
3.4219780219780223,5.072089845595466
3.441758241758242,5.211292002331983
3.4615384615384617,5.347467061405501
3.481318681318681,5.480324193673314
3.501098901098901,5.609594255510131
3.520879120879121,5.735027607671002
3.5406593406593405,5.856392283969556
3.5604395604395602,5.973472453101525
3.58021978021978,6.086067126020021
3.5999999999999996,6.193989069032474
3.61978021978022,6.297063889354702
3.6395604395604395,6.39512926536867
3.659340659340659,6.488034298434517
3.679120879120879,6.575638966941991
3.6989010989010986,6.657813666476207
3.718681318681319,6.734438822624867
3.7384615384615385,6.805404565161072
3.758241758241758,6.870610454175081
3.7780219780219784,6.929965250264493
3.7978021978021976,6.98338672217927
3.8175824175824173,7.030801486400392
3.8373626373626375,7.07214487404567
3.8571428571428568,7.107360821273602
3.876923076923077,7.136401780022401
3.896703296703296,7.159228646496229
3.916483516483517,7.175810705313769
3.936263736263736,7.186125587678996
3.956043956043956,7.190159242334386
3.9758241758241755,7.187905918424101
3.9956043956043956,7.179368159738069
4.015384615384615,7.164556810138075
4.035164835164835,7.143491030291487
4.054945054945055,7.116198326166281
4.0747252747252745,7.082714590081474
4.094505494505494,7.043084155468139
4.114285714285715,6.997359866889341
4.134065934065934,6.945603167301872
4.153846153846154,6.887884205032731
4.173626373626373,6.824281963502476
4.193406593406594,6.754884417373903
4.213186813186813,6.679788719557514
4.232967032967033,6.599101424390978
4.252747252747253,6.512938753355805
4.2725274725274724,6.421426910938829
4.292307692307692,6.32470245972963
4.312087912087913,6.22291276562202
4.331868131868132,6.116216526119571
4.351648351648352,6.0047843973081445
4.371428571428571,5.888799738142494
4.391208791208792,5.768459494404791
4.410989010989011,5.64397524915367
4.43076923076923,5.515574471831336
4.450549450549451,5.383502004583697
4.4703296703296695,5.248021831925831
4.49010989010989,5.109419188783866
4.50989010989011,4.968003072239821
4.52967032967033,4.824109233947717
4.549450549450549,4.678103742889823
4.569230769230769,4.530387221187653
4.589010989010989,4.381399867630687
4.608791208791209,4.231627391787039
4.628571428571428,4.0816079814250585
4.648351648351649,3.931940409891288
4.6681318681318675,3.783293345904539
4.687912087912088,3.636415837277448
4.707692307692308,3.4921487750335283
4.7274725274725276,3.35143686769613
4.747252747252747,3.2153402205065063
4.767032967032967,3.085043972995774
4.786813186813187,2.9618635729743747
4.806593406593407,2.8472421929354894
4.826373626373626,2.7427357033242523
4.846153846153847,2.6499799180208754
4.8659340659340655,2.5706352278302007
4.885714285714286,2.5063061426756708
4.905494505494506,2.4584383557368903
4.9252747252747255,2.428203403097847
4.945054945054945,2.4163887312735493
4.964835164835165,2.4233152796069146
4.984615384615385,2.4488019669793872
5.004395604395604,2.492186110059611
5.024175824175824,2.552394518570209
5.043956043956045,2.628048040790892
5.0637362637362635,2.7175774041008625
5.083516483516483,2.8193308499399836
5.103296703296703,2.9316612652818006
5.123076923076923,3.052988336452379
5.142857142857143,3.1818370848558684
5.162637362637362,3.3168572416344206
5.182417582417583,3.4568287764191066
5.2021978021978015,3.6006584161019175
5.221978021978022,3.7473709539539457
5.241758241758242,3.896098047549266
5.2615384615384615,4.046066267692712
5.281318681318681,4.196585456816103
5.301098901098901,4.347037968606679
5.320879120879121,4.496869045669776
5.340659340659341,4.645578400634642
5.36043956043956,4.792712957990164
5.380219780219781,4.937860659081012
5.3999999999999995,5.08064521030033
5.41978021978022,5.220721650870249
5.43956043956044,5.3577726230257
5.4593406593406595,5.491505238621528
5.479120879120879,5.621648449072183
5.498901098901099,5.74795083839061
5.518681318681319,5.870178771040575
5.538461538461538,5.988114836971818
5.558241758241758,6.101556545468142
5.578021978021979,6.210315227352499
5.5978021978021975,6.314215111780909
5.617582417582418,6.413092549466711
5.637362637362637,6.50679535885929
5.6571428571428575,6.5951822756994405
5.676923076923077,6.678122489613426
5.696703296703297,6.755495254100716
5.716483516483517,6.827189558509187
5.736263736263735,6.893103852456961
5.756043956043956,6.953145814716447
5.775824175824176,7.0072321598799165
5.795604395604395,7.055288477221327
5.815384615384615,7.097249097094656
5.835164835164835,7.133056980994772
5.854945054945055,7.162663632079966
5.874725274725275,7.186029023535573
5.894505494505494,7.203121542665643
5.914285714285715,7.213917949047459
5.934065934065933,7.218403345487076
5.953846153846154,7.216571160882838
5.973626373626374,7.208423144448997
5.993406593406593,7.193969371082385
6.013186813186813,7.173228257980158
6.032967032967033,7.1462265929446644
6.052747252747253,7.112999575151561
6.072527472527473,7.073590869517771
6.092307692307692,7.0280526761976665
6.112087912087913,6.976445817169148
6.131868131868131,6.918839842359429
6.151648351648352,6.855313158317043
6.171428571428572,6.785953183080377
6.191208791208791,6.710856531642859
6.210989010989011,6.630129237296798
6.230769230769231,6.543887015180413
6.2505494505494505,6.4522555755919555
6.270329670329671,6.355370996114405
6.29010989010989,6.253380163366379
6.309890109890111,6.146441297322797
6.329670329670329,6.034724573709066
6.349450549450549,5.918412863055772
6.36923076923077,5.79770260871503
6.3890109890109885,5.672804870609667
6.408791208791209,5.543946566855348
6.428571428571428,5.4113719518186
6.4483516483516485,5.27534437681124
6.468131868131868,5.136148388618031
6.487912087912088,4.994092231503292
6.507692307692308,4.8495108302211705
6.527472527472527,4.702769344615708
6.547252747252747,4.554267399984132
6.567032967032967,4.404444110127912
6.5868131868131865,4.253784019390794
6.606593406593407,4.102824091536814
6.626373626373626,3.9521618596183488
6.6461538461538465,3.802464810062975
6.665934065934065,3.654480987556473
6.685714285714286,3.509050647564655
6.705494505494506,3.3671185125136196
6.725274725274725,3.229745757710887
6.745054945054945,3.098120213089733
6.764835164835165,2.9735623836019074
6.7846153846153845,2.8575237932840922
6.804395604395605,2.7515730121200086
6.824175824175824,2.6573639345613276
6.8439560439560445,2.5765811567497625
6.863736263736263,2.510859587298869
6.883516483516484,2.4616804851163465
6.903296703296704,2.4302537276490948
6.923076923076923,2.4174042360279797
6.942857142857143,2.4234853024567187
6.962637362637362,2.44833924916256
6.9824175824175825,2.4913154804301714
7.002197802197802,2.5513412294744837
7.021978021978022,2.6270276282810157
7.041758241758242,2.716788256069205
7.061538461538461,2.8189498156630304
7.081318681318681,2.931841969804211
7.101098901098901,3.0538615172439636
7.1208791208791204,3.183512210327816
7.140659340659341,3.3194247856167847
7.16043956043956,3.4603626990305973
7.1802197802197805,3.605218569888604
7.199999999999999,3.7530052649310153
7.21978021978022,3.902844409423547
7.23956043956044,4.0539541412044064
7.259340659340659,4.205637194859537
7.279120879120879,4.357269900511702
7.298901098901099,4.508292357374836
7.318681318681318,4.658199845864575
7.338461538461539,4.806535431668456
7.358241758241758,4.9528836595971315
7.3780219780219785,5.096865212725451
7.397802197802197,5.238132409141402
7.417582417582418,5.3763654156306835
7.437362637362638,5.511269069418959
7.457142857142857,5.642570212519498
7.476923076923077,5.77001545655233
7.496703296703297,5.8933693082320415
7.516483516483516,6.012412596688547
7.536263736263736,6.126941153296214
7.556043956043957,6.2367647028001905
7.575824175824176,6.341705931373985
7.595604395604395,6.441599702976391
7.615384615384615,6.5362924001561975
7.635164835164835,6.625641369427988
7.654945054945055,6.70951445464294
7.674725274725275,6.787789604518665
7.694505494505494,6.86035454276892
7.7142857142857135,6.927106491168589
7.734065934065935,6.987951937469588
7.753846153846154,7.042806441405166
7.7736263736263735,7.091594473130793
7.793406593406592,7.134249279386231
7.813186813186814,7.170712773459338
7.832967032967034,7.20093544571165
7.852747252747252,7.2248762920127865
7.872527472527472,7.242502757941931
7.892307692307693,7.25379069706685
7.912087912087912,7.258724342016408
7.931868131868132,7.257296287433554
7.951648351648351,7.249507484242494
7.971428571428572,7.235367244995413
7.991208791208791,7.2148932603895926
8.010989010989011,7.188111627374307
8.03076923076923,7.155056889606238
8.05054945054945,7.115772091372576
8.07032967032967,7.070308846491548
8.09010989010989,7.018727424132549
8.10989010989011,6.961096853984525
8.129670329670331,6.897495053756747
8.149450549450549,6.828008982637585
8.169230769230769,6.752734825085247
8.189010989010988,6.671778210203994
8.20879120879121,6.585254473000257
8.22857142857143,6.4932889650508425
8.248351648351647,6.396017423594395
8.268131868131867,6.293586409829919
8.287912087912087,6.186153829336944
8.307692307692308,6.073889550098163
8.327472527472528,5.956976136700003
8.347252747252746,5.835609723019894
8.367032967032966,5.710001050210253
8.386813186813187,5.580376702206177
8.406593406593407,5.4469805774813045
8.426373626373627,5.31007564352524
8.446153846153845,5.169946029679053
8.465934065934066,5.02689952466008
8.485714285714286,4.8812705573467365
8.505494505494505,4.73342375297967
8.525274725274725,4.5837581712795155
8.545054945054945,4.432712346814511
8.564835164835165,4.280770262855628
8.584615384615384,4.128468393639782
8.604395604395604,3.976403939159358
8.624175824175826,3.825244339501881
8.643956043956043,3.675738073921211
8.663736263736263,3.528726595649993
8.683516483516483,3.3851569881162287
8.703296703296704,3.246094501650858
8.723076923076924,3.1127334869896424
8.742857142857142,2.986404342733973
8.762637362637362,2.868572956959427
8.782417582417583,2.760827903215493
8.802197802197803,2.6648497458740277
8.821978021978023,2.5823569455647695
8.84175824175824,2.5150250260898734
8.86153846153846,2.464380731176534
8.881318681318682,2.431680758511077
8.901098901098901,2.4177933069248025
8.920879120879121,2.4231061349724814
8.940659340659339,2.447482923689102
8.96043956043956,2.490279215802495
8.98021978021978,2.5504137185209803
9.0,2.6264771684632042
9.01978021978022,2.7168548713775684
9.03956043956044,2.8198414438454846
9.05934065934066,2.933734000574213
9.079120879120879,3.056898638744086
9.098901098901099,3.187811555039056
9.11868131868132,3.3250795885773448
9.138461538461538,3.4674459459917366
9.158241758241758,3.6137863405266657
9.178021978021977,3.7630996396044316
9.197802197802199,3.9144959105041823
9.217582417582419,4.067183736370785
9.237362637362637,4.220457915488214
9.257142857142856,4.373688135832663
9.276923076923078,4.526308882875231
9.296703296703297,4.677810637815589
9.316483516483517,4.827732311622487
9.336263736263735,4.975654804818762
9.356043956043957,5.121195561484535
9.375824175824176,5.264003983843311
9.395604395604396,5.403757581881158
9.415384615384616,5.540158745206273
9.435164835164835,5.67293203859626
9.454945054945055,5.801821936664864
9.474725274725275,5.926590925943849
9.494505494505495,6.0470179140634555
9.514285714285714,6.162896895555136
9.534065934065934,6.274035832169314
9.553846153846154,6.3802557126448916
9.573626373626373,6.481389762754467
9.593406593406593,6.577282781348484
9.613186813186815,6.667790582188376
9.632967032967032,6.752779524730424
9.652747252747252,6.83212611981763
9.672527472527472,6.905716698556513
9.692307692307693,6.973447134583824
9.712087912087913,7.035222611534465
9.731868131868131,7.090957428864314
9.75164835164835,7.140574840307928
9.771428571428572,7.184006920200633
9.791208791208792,7.22119445369953
9.810989010989012,7.252086847625748
9.83076923076923,7.276642059242842
9.850549450549451,7.294826540802281
9.87032967032967,7.306615198142545
9.89010989010989,7.3119913620368155
9.90989010989011,7.310946771356893
9.92967032967033,7.303481567469447
9.94945054945055,7.289604299612852
9.96923076923077,7.269331941329326
9.989010989010989,7.242689918355148
10.008791208791209,7.209712148711488
10.028571428571428,7.170441096097901
10.048351648351648,7.12492783808068
10.068131868131868,7.073232150999763
10.08791208791209,7.015422614003396
10.107692307692307,6.951576735174127
10.127472527472527,6.881781103350337
10.147252747252747,6.806131569994952
10.167032967032966,6.724733466342196
10.186813186813188,6.637701862094392
10.206593406593406,6.545161873180283
10.226373626373626,6.447249027568322
10.246153846153845,6.344109699907245
10.265934065934067,6.23590162790697
10.285714285714286,6.122794525955089
10.305494505494504,6.004970814583644
10.325274725274724,5.882626488171336
10.345054945054946,5.755972147822996
10.364835164835165,5.625234231866715
10.384615384615385,5.4906564830253775
10.404395604395603,5.352501699240676
10.424175824175824,5.211053824539846
10.443956043956044,5.066620447387004
10.463736263736264,4.9195357867116565
10.483516483516484,4.77016426011841
10.503296703296703,4.6189047441528155
10.523076923076923,4.4661956517699135
10.542857142857143,4.31252096505078
10.562637362637362,4.158417367614488
10.582417582417584,4.004482613992667
10.602197802197802,3.851385240793539
10.621978021978022,3.6998756482867043
10.641758241758241,3.550798433054486
10.661538461538463,3.4051055924275198
10.681318681318682,3.2638697966210555
10.7010989010989,3.128296274391027
10.72087912087912,2.9997309334680744
10.740659340659342,2.879661143839028
10.760439560439561,2.7697042916391004
10.780219780219781,2.6715781570886024
10.799999999999999,2.5870471310664587
