Frequency (Hz),Amplitude
0.0,1.290107345439185
0.019867549668874173,1.2896860469741875
0.039735099337748346,1.2884229544515235
0.059602649006622516,1.2863204780651536
0.07947019867549669,1.2833826400799067
0.09933774834437085,1.279615082807249
0.11920529801324503,1.2750250798984775
0.13907284768211922,1.2696215510823665
0.15894039735099338,1.2634150805109785
0.17880794701986755,1.2564179389132428
0.1986754966887417,1.2486441097920167
0.2185430463576159,1.2401093199347835
0.23841059602649006,1.2308310745416953
0.2582781456953642,1.2208286973047642
0.27814569536423844,1.2101233757986978
0.2980132450331126,1.198738212563806
0.31788079470198677,1.1866982822732501
0.33774834437086093,1.1740306953757895
0.3576158940397351,1.1607646685880026
0.3774834437086093,1.1469316025693213
0.3973509933774834,1.1325651670427992
0.4172185430463576,1.117701393514023
0.4370860927152318,1.102378775578009
0.45695364238410596,1.0866383765751548
0.4768211920529801,1.070523944043561
0.49668874172185434,1.0540820299952767
0.5165562913907285,1.037362115493452
0.5364238410596026,1.0204167372968478
0.5562913907284769,1.0033016134377273
0.5761589403973509,0.9860757634761977
0.5960264900662252,0.9688016178000776
0.6158940397350993,0.9515451086912131
0.6357615894039735,0.9343757339498556
0.6556291390728477,0.9173665816748922
0.6754966887417219,0.9005943023957165
0.695364238410596,0.8841390122527906
0.7152317880794702,0.868084108516827
0.7350993377483444,0.8525159767033216
0.7549668874172186,0.8375235672746941
0.7748344370860927,0.823197819933809
0.7947019867549668,0.8096309154037462
0.8145695364238411,0.7969153390057349
0.8344370860927152,0.7851427478805437
0.8543046357615894,0.7744026447384647
0.8741721854304636,0.7647808755680037
0.8940397350993378,0.7563579861931382
0.9139072847682119,0.7492074916078167
0.9337748344370861,0.743394130512582
0.9536423841059603,0.7389721926799879
0.9735099337748344,0.7359840156880615
0.9933774834437087,0.7344587475486076
1.0132450331125828,0.7344114612344066
1.033112582781457,0.7358426861293782
1.0529801324503312,0.7387383919481043
1.0728476821192052,0.7430704263505494
1.0927152317880795,0.7487973729887597
1.1125827814569538,0.7558657667736771
1.1324503311258278,0.7642115814951849
1.1523178807947019,0.773761893656498
1.1721854304635762,0.7844366256754947
1.1920529801324504,0.7961502799748146
1.2119205298013245,0.8088135903413746
1.2317880794701985,0.8223350352966537
1.2516556291390728,0.8366221772948258
1.271523178807947,0.851582809186212
1.2913907284768211,0.8671259041565756
1.3112582781456954,0.8831623766409481
1.3311258278145695,0.8996056694781209
1.3509933774834437,0.9163721871876715
1.370860927152318,0.9333815972977084
1.390728476821192,0.9505570217736257
1.410596026490066,0.96782513940526
1.4304635761589404,0.9851162180170501
1.4503311258278146,1.0023640929746191
1.4701986754966887,1.0195061059627557
1.4900662251655628,1.036483015596747
1.5099337748344372,1.0532388892195137
1.5298013245033113,1.069720983287942
1.5496688741721854,1.085879618085151
1.5695364238410596,1.1016680511026886
1.5894039735099337,1.1170423522976458
1.609271523178808,1.1319612835144786
1.6291390728476822,1.146386183639209
1.6490066225165563,1.1602808604926098
1.6688741721854303,1.173611490040831
1.6887417218543048,1.1863465231822343
1.7086092715231789,1.1984566001340822
1.728476821192053,1.20991447227705
1.7483443708609272,1.2206949312011268
1.7682119205298013,1.230774744623671
1.7880794701986755,1.240132598808284
1.8079470198675496,1.2487490470938745
1.8278145695364238,1.2566064641417565
1.847682119205298,1.2636890055192804
1.8675496688741722,1.2699825722580664
1.8874172185430464,1.275474780051021
1.9072847682119205,1.2801549327823007
1.9271523178807946,1.2840140001174944
1.9470198675496688,1.2870445989158517
1.9668874172185429,1.2892409782619525
1.9867549668874174,1.2905990079504113
2.0066225165562916,1.291116170293419
2.0264900662251657,1.2907915551570714
2.0463576158940397,1.2896258581688451
2.066225165562914,1.287621382074367
2.086092715231788,1.2847820412579418
2.1059602649006623,1.281113369477035
2.1258278145695364,1.2766225308971622
2.1456953642384105,1.2713183345493948
2.165562913907285,1.265211252368821
2.185430463576159,1.2583134410079226
2.205298013245033,1.250638767653945
2.2251655629139075,1.2422028401136087
2.2450331125827816,1.233023041460869
2.2649006622516556,1.2231185695731555
2.2847682119205297,1.2125104819071604
2.3046357615894038,1.2012217458845305
2.324503311258278,1.1892772952686896
2.3443708609271523,1.1767040929126165
2.364238410596027,1.1635312002392095
2.384105960264901,1.1497898537756384
2.403973509933775,1.135513548992551
2.423841059602649,1.1207381315897191
2.443708609271523,1.1055018962092127
2.463576158940397,1.0898456923318132
2.4834437086092715,1.0738130368039513
2.5033112582781456,1.0574502320307635
2.52317880794702,1.0408064883313388
2.543046357615894,1.0239340482573052
2.562913907284768,1.0068883097960561
2.5827814569536423,0.9897279442842052
2.6026490066225163,0.972515003517144
2.622516556291391,0.9553150089355722
2.642384105960265,0.9381970138916997
2.662251655629139,0.9212336278638956
2.6821192052980134,0.9045009891518088
2.7019867549668874,0.8880786701529232
2.7218543046357615,0.8720494969755085
2.741721854304636,0.8564992631546129
2.76158940397351,0.8415163159847839
2.781456953642384,0.8271909939538808
2.801324503311258,0.813614895537086
2.821192052980132,0.8008799638127785
2.8410596026490067,0.7890773785676223
2.8609271523178808,0.7782962581531807
2.8807947019867552,0.7686221873612978
2.9006622516556293,0.7601356044607509
2.9205298013245033,0.7529100990323283
2.9403973509933774,0.7470106903456065
2.9602649006622515,0.7424921711074972
2.9801324503311255,0.7393976105878188
3.0,0.7377571118003384
3.0198675496688745,0.7375869079636972
3.0397350993377485,0.7388888638046469
3.0596026490066226,0.7416504191425594
3.0794701986754967,0.7458449790234866
3.0993377483443707,0.7514327209181693
3.119205298013245,0.7583617597476788
3.1390728476821192,0.7665695895016684
3.1589403973509933,0.7759847081608483
3.1788079470198674,0.7865283308896325
3.198675496688742,0.7981161037389368
3.218543046357616,0.8106597439807978
3.23841059602649,0.8240685508096309
3.2582781456953644,0.8382507487529318
3.2781456953642385,0.8531146435529849
3.2980132450331126,0.8685695850714449
3.3178807947019866,0.8845267432252539
3.3377483443708607,0.9008997109841084
3.3576158940397347,0.917604953359874
3.3774834437086096,0.9345621236392557
3.3973509933774837,0.951694268475193
3.4172185430463577,0.9689279424559546
3.437086092715232,0.9861932509280161
3.456953642384106,1.0034238375648252
3.47682119205298,1.0205568307451942
3.4966887417218544,1.037532760434336
3.5165562913907285,1.0542954550706496
3.5364238410596025,1.070791926018075
3.556291390728477,1.0869722454717379
3.576158940397351,1.1027894223011565
3.596026490066225,1.1181992791618893
3.615894039735099,1.1331603332760212
3.6357615894039736,1.1476336825441478
3.6556291390728477,1.161582898076042
3.6754966887417218,1.174973923786159
3.695364238410596,1.1877749833679976
3.7152317880794703,1.199956494717184
3.7350993377483444,1.211490991697682
3.754966887417219,1.2223530530246278
3.774834437086093,1.232519237958107
3.794701986754967,1.2419680284547958
3.814569536423841,1.250679777401347
3.834437086092715,1.258636662548139
3.854304635761589,1.2658226457698474
3.8741721854304636,1.2722234372968042
3.8940397350993377,1.2778264645850845
3.9139072847682117,1.2826208455218635
3.9337748344370858,1.2865973656943177
3.9536423841059607,1.289748459483822
3.9735099337748347,1.2920681947819594
3.993377483443709,1.2935522611600734
4.013245033112583,1.2941979613596173
4.033112582781457,1.2940042060061885
4.052980132450331,1.2929715114855467
4.072847682119205,1.2911020009553664
4.0927152317880795,1.2883994085017927
4.112582781456953,1.2848690864851706
4.132450331125828,1.280518016154372
4.152317880794702,1.275354821644496
4.172185430463576,1.2693897875074065
4.19205298013245,1.262634879959443
4.211920529801325,1.255103772064446
4.231788079470199,1.2468118731031654
4.251655629139073,1.2377763624111873
4.271523178807947,1.228016227995612
4.291390728476821,1.217552310264745
4.311258278145695,1.2064073512229063
4.33112582781457,1.1946060494914508
4.3509933774834435,1.1821751215143592
4.370860927152318,1.1691433692874411
4.390728476821192,1.155541754908947
4.410596026490066,1.1414034821791554
4.43046357615894,1.1267640853681027
4.450331125827815,1.1116615251130895
4.470198675496689,1.0961362911870867
4.490066225165563,1.0802315115791368
4.509933774834438,1.0639930669285698
4.529801324503311,1.0474697088332183
4.549668874172186,1.0307131798823177
4.569536423841059,1.0137783324189142
4.589403973509934,0.9967232419861273
4.6092715231788075,0.9796093101302118
4.629139072847682,0.9625013497008831
4.649006622516556,0.9454676440001415
4.66887417218543,0.9285799691003144
4.688741721854305,0.9119135664314865
4.708609271523179,0.8955470504287955
4.728476821192054,0.879562233799784
4.748344370860927,0.8640438510746926
4.768211920529802,0.8490791598900969
4.788079470198675,0.8347573993833706
4.80794701986755,0.8211690866831441
4.827814569536423,0.8084051363527512
4.847682119205298,0.7965557943234045
4.867549668874172,0.7857093877175516
4.887417218543046,0.7759509050563197
4.9072847682119205,0.7673604372068141
4.927152317880794,0.760011526938576
4.947019867549669,0.7539694923027891
4.966887417218543,0.7492898038017437
4.986754966887418,0.7460166047748059
5.006622516556291,0.7441814661028024
5.026490066225166,0.7438024585681624
5.04635761589404,0.7448836087262186
5.066225165562914,0.7474147783560745
5.086092715231788,0.7513719764745337
5.105960264900662,0.7567180806024089
5.125827814569536,0.7634039148084987
5.14569536423841,0.771369609713614
5.1655629139072845,0.7805461564447385
5.185430463576159,0.7908570631257471
5.205298013245033,0.8022200279226573
5.225165562913908,0.8145485548218253
5.245033112582782,0.8277534545527063
5.264900662251656,0.8417441907448203
5.28476821192053,0.8564300483543146
5.304635761589404,0.8717211161038069
5.324503311258278,0.8875290863404475
5.344370860927152,0.9037678841202094
5.364238410596027,0.9203541426856967
5.3841059602649,0.9372075452901737
5.403973509933775,0.9542510541059952
5.4238410596026485,0.9714110463126248
5.443708609271523,0.9886173758933745
5.463576158940397,1.0058033775900117
5.483443708609272,1.0229058271758407
5.503311258278146,1.039864869925348
5.52317880794702,1.056623927016424
5.543046357615895,1.0731295876774778
5.562913907284768,1.089331493218716
5.582781456953643,1.1051822176703743
5.602649006622516,1.1206371485765476
5.622516556291391,1.1356543705386934
5.642384105960264,1.1501945533403448
5.662251655629139,1.16422084588461
5.682119205298013,1.177698776712675
5.701986754966887,1.1905961615193397
5.7218543046357615,1.202883017819334
5.741721854304636,1.214531486727722
5.7615894039735105,1.2255157616835062
5.781456953642384,1.235812023855302
5.801324503311259,1.2453983839115152
5.821192052980132,1.2542548298065175
5.841059602649007,1.2623631802228799
5.860927152317881,1.2697070433123985
5.880794701986755,1.276271780391585
5.900662251655629,1.2820444742682011
5.920529801324503,1.2870139019007192
5.940397350993377,1.291170511122109
5.960264900662251,1.2945064011908927
5.980132450331126,1.2970153069653407
6.0,1.298692586530455
6.0198675496688745,1.2995352121417627
6.039735099337749,1.2995417643842042
6.059602649006623,1.2987124294788168
6.079470198675497,1.2970489997043322
6.099337748344371,1.2945548769349375
6.119205298013245,1.291235079329743
6.139072847682119,1.2870962512433484
6.158940397350993,1.2821466764610536
6.178807947019867,1.2763962948956349
6.198675496688741,1.2698567229159963
6.218543046357616,1.2625412775103246
6.23841059602649,1.2544650045177956
6.258278145695365,1.2456447111919313
6.2781456953642385,1.236099003385444
6.298013245033113,1.2258483276683345
6.317880794701987,1.2149150187073443
6.337748344370861,1.203323352242387
6.357615894039735,1.1910996039917197
6.377483443708609,1.178272114797816
6.397350993377484,1.1648713622852012
6.417218543046357,1.1509300392331305
6.437086092715232,1.136483138761439
6.456953642384105,1.1215680462770103
6.47682119205298,1.1062246379180836
6.496688741721854,1.090495384948967
6.516556291390729,1.0744254631800039
6.5364238410596025,1.0580628659963198
6.556291390728477,1.041458518949618
6.5761589403973515,1.0246663930745583
6.596026490066225,1.0077436131094113
6.6158940397351,0.9907505556045465
6.635761589403973,0.9737509304749636
6.655629139072848,0.9568118378876169
6.675496688741721,0.9400037904848415
6.695364238410596,0.9234006888773264
6.715231788079469,0.9070797361832033
6.735099337748344,0.8911212752945608
6.754966887417219,0.8756085307451456
6.774834437086093,0.860627235848608
6.794701986754967,0.8462651255833215
6.814569536423841,0.832611277006859
6.8344370860927155,0.819755282324587
6.854304635761589,0.8077862456198387
6.874172185430464,0.7967916030508897
6.894039735099337,0.7868557781268584
6.913907284768212,0.7780586981466479
6.933774834437086,0.7704742141025781
6.95364238410596,0.7641684827496678
6.973509933774834,0.7591983839889588
6.993377483443709,0.7556100567456924
7.013245033112583,0.7534376397770028
7.033112582781457,0.7527022985935193
7.052980132450331,0.7534116053574117
7.072847682119205,0.7555593161580829
7.0927152317880795,0.7591255619025052
7.112582781456954,0.764077438754475
7.132450331125828,0.7703699556161104
7.152317880794702,0.7779472731857395
7.172185430463576,0.7867441541797504
7.19205298013245,0.796687538412819
7.211920529801324,0.8076981591211972
7.231788079470198,0.8196921265279539
7.251655629139073,0.8325824188507635
7.271523178807947,0.8462802372735462
7.291390728476822,0.8606961976762868
7.311258278145695,0.8757413465371651
7.33112582781457,0.891328000424437
7.3509933774834435,0.9073704175013502
7.370860927152318,0.9237853155453334
7.390728476821192,0.9404922544892068
7.410596026490066,0.9574139029294522
7.430463576158941,0.9744762079477249
7.450331125827814,0.9916084864505366
7.470198675496689,1.0087434544617673
7.490066225165562,1.025817208725148
7.509933774834438,1.0427691728209745
7.52980132450331,1.059542017927627
7.549668874172186,1.0760815664585919
7.569536423841059,1.0923366851262177
7.589403973509934,1.1082591725415916
7.6092715231788075,1.123803645249733
7.629139072847682,1.1389274251038692
7.649006622516557,1.1535904300784092
7.66887417218543,1.1677550699805515
7.6887417218543055,1.181386148020401
7.708609271523178,1.1944507688145778
7.728476821192054,1.2069182531075116
7.748344370860927,1.2187600592794987
7.768211920529802,1.229949711555761
7.788079470198675,1.240462734722942
7.80794701986755,1.2502765950885268
7.827814569536423,1.2593706473758386
7.847682119205298,1.2677260872259892
7.8675496688741715,1.2753259089726754
7.887417218543046,1.2821548683624722
7.907284768211921,1.2881994499082747
7.927152317880795,1.2934478385851922
7.9470198675496695,1.2978898956036757
7.966887417218543,1.3015171380234682
7.986754966887418,1.304322722002547
8.006622516556291,1.306301429506843
8.026490066225167,1.3074496583392634
8.046357615894038,1.3077654153790903
8.066225165562914,1.3072483129560692
8.086092715231787,1.3058995683163337
8.105960264900663,1.3037220061704131
8.125827814569536,1.300720064346312
8.14569536423841,1.2968998026035705
8.165562913907285,1.2922689146965656
8.185430463576159,1.2868367438078383
8.205298013245034,1.280614301503682
8.225165562913906,1.2736142903955772
8.245033112582782,1.2658511307205076
8.264900662251655,1.2573409910813778
8.28476821192053,1.248101823613618
8.304635761589404,1.2381534038654438
8.324503311258278,1.227517375694426
8.344370860927151,1.2162173014907596
8.364238410596027,1.2042787180342702
8.3841059602649,1.1917291982745968
8.403973509933774,1.1785984192867334
8.42384105960265,1.164918236592111
8.443708609271523,1.150722764939824
8.463576158940398,1.1360484655054301
8.483443708609272,1.1209342392732293
8.503311258278146,1.1054215261094265
8.52317880794702,1.0895544086905917
8.543046357615895,1.0733797200063673
8.562913907284768,1.0569471525851284
8.582781456953642,1.0403093668739116
8.602649006622515,1.023522095314314
8.62251655629139,1.006644237573502
8.642384105960264,0.9897379410944841
8.66225165562914,0.9728686596162148
8.682119205298013,0.9561051805900478
8.701986754966887,0.9395196105199644
8.721854304635762,0.9231873052531259
8.741721854304636,0.9071867302691353
8.76158940397351,0.8915992342512353
8.781456953642383,0.8765087179394014
8.801324503311259,0.8620011798159241
8.821192052980132,0.8481641209891081
8.841059602649008,0.8350857942006561
8.86092715231788,0.8228542866653621
8.880794701986755,0.811556433843641
8.90066225165563,0.8012765714229205
8.920529801324504,0.7920951455642528
8.940397350993377,0.7840872161907305
8.960264900662251,0.7773209035167999
8.980132450331126,0.7718558423528338
9.0,0.76774171978652
9.019867549668875,0.765016977401587
9.039735099337747,0.7637077573986247
9.059602649006623,0.7638271618704665
9.079470198675496,0.7653748763594357
9.099337748344372,0.7683371843863518
9.119205298013245,0.7726873717884686
9.139072847682119,0.7783864920077278
9.158940397350994,0.7853844394723839
9.178807947019868,0.79362126072297
9.198675496688743,0.8030286235309612
9.218543046357615,0.813531363129617
9.23841059602649,0.8250490307668142
9.258278145695364,0.8374973812015196
9.27814569536424,0.8507897502488562
9.298013245033111,0.8648382888797275
9.317880794701987,0.8795550349540677
9.33774834437086,0.8948528162274458
9.357615894039736,0.9106459881995922
9.37748344370861,0.9268510175283049
9.397350993377483,0.9433869263089089
9.417218543046358,0.9601756149169546
9.437086092715232,0.9771420818075073
9.456953642384107,0.9942145581375664
9.47682119205298,1.0113245737501755
9.496688741721854,1.028406969275549
9.516556291390728,1.0453998671261844
9.536423841059603,1.0622446121738154
9.556291390728477,1.0788856910160696
9.57615894039735,1.0952706370382428
9.596026490066224,1.1113499269846712
9.6158940397351,1.127076873480679
9.635761589403973,1.1424075168827903
9.655629139072847,1.1573005189624495
9.675496688741722,1.171717060225393
9.695364238410596,1.1856207421108373
9.715231788079471,1.1989774948786944
9.735099337748345,1.2117554916581421
9.754966887417218,1.2239250688783438
9.774834437086092,1.235458653115674
9.794701986754967,1.2463306942578374
9.814569536423841,1.2565176047929423
9.834437086092716,1.2659977049711946
9.854304635761588,1.2747511735510417
9.874172185430464,1.2827600038251297
9.894039735099337,1.2900079646185012
9.913907284768213,1.296480565959417
9.933774834437086,1.3021650291386384
9.95364238410596,1.3070502608939762
9.973509933774835,1.3111268314818523
9.993377483443709,1.3143869564250616
10.013245033112582,1.316824481755296
10.033112582781456,1.3184348725992614
10.052980132450331,1.3192152049884978
10.072847682119205,1.3191641608043108
10.09271523178808,1.318282025801039
10.112582781456952,1.3165706906824508
10.132450331125828,1.314033655237958
10.152317880794701,1.3106760355767917
10.172185430463577,1.3065045745298238
10.192052980132452,1.3015276553200263
10.211920529801324,1.295755318633201
10.2317880794702,1.2891992832508383
10.251655629139073,1.281872970436077
10.271523178807948,1.2737915322910065
10.29139072847682,1.264971884328853
10.311258278145695,1.2554327425262355
10.331125827814569,1.2451946651370887
10.350993377483444,1.2342800995603478
10.370860927152318,1.2227134345539779
10.390728476821192,1.2105210580760453
10.410596026490065,1.1977314210056498
10.43046357615894,1.1843751069459674
10.450331125827816,1.1704849082335673
10.470198675496688,1.1560959081629119
10.490066225165563,1.1412455692739594
10.509933774834437,1.125973827330388
10.529801324503312,1.1103231903237332
10.549668874172186,1.0943388414559476
10.56953642384106,1.0780687445616721
10.589403973509933,1.0615637498105415
10.609271523178808,1.0448776967563782
10.629139072847682,1.0280675108530208
10.649006622516556,1.0111932884168255
10.66887417218543,0.9943183636714582
10.688741721854305,0.9775093499623625
