Time (s),Filtered Signal
0.0,0.017918360180292504
0.033370165745856356,-0.2103008467137355
0.06674033149171271,-0.3276374121512346
0.10011049723756907,-0.2692926518284514
0.13348066298342542,-0.041151622193111005
0.16685082872928178,0.28780978939897855
0.20022099447513814,0.6185467913710756
0.2335911602209945,0.8621251244601533
0.26696132596685085,0.9679315403927137
0.30033149171270723,0.9299874432171952
0.33370165745856356,0.7742452866076638
0.3670718232044199,0.538559239509338
0.4004419889502763,0.2576549532942956
0.43381215469613266,-0.04093015569850974
0.467182320441989,-0.332260479822165
0.5005524861878453,-0.5880762039403525
0.5339226519337017,-0.7762299988669473
0.5672928176795581,-0.8674799223082599
0.6006629834254145,-0.846356699529695
0.6340331491712707,-0.7200505785760279
0.6674033149171271,-0.5200394301270748
0.7007734806629835,-0.2945743050811519
0.7341436464088398,-0.0942677666140943
0.7675138121546962,0.04389356305140781
0.8008839779005525,0.10789450109390605
0.8342541436464089,0.11276842600194052
0.8676243093922653,0.09233081407679004
0.9009944751381216,0.08371334709920994
0.934364640883978,0.11100677385236034
0.9677348066298344,0.1749454096569724
1.0011049723756906,0.2531570677454702
1.0344751381215471,0.3109315436901432
1.0678453038674034,0.3176958738127596
1.1012154696132597,0.26165312916259137
1.1345856353591162,0.15578284149230154
1.1679558011049724,0.03245814668621753
1.201325966850829,-0.07056743018185122
1.2346961325966852,-0.12589650275067854
1.2680662983425415,-0.1264444525175653
1.301436464088398,-0.08538763766365047
1.3348066298342542,-0.027168702820337252
1.3681767955801105,0.024999045927534817
1.401546961325967,0.05850839828453891
1.4349171270718233,0.07337991296549254
1.4682872928176796,0.07704770858727476
1.501657458563536,0.07588895725095915
1.5350276243093923,0.06890258692481303
1.5683977900552488,0.04742565962146263
1.601767955801105,0.00127692111410698
1.6351381215469614,-0.07196530615760947
1.6685082872928179,-0.15992418407169867
1.7018784530386741,-0.2354178143399033
1.7352486187845306,-0.26512653243488904
1.768618784530387,-0.22413791919690568
1.8019889502762432,-0.10993017517796644
1.8353591160220997,0.051487747092765
1.868729281767956,0.2117256607908483
1.9020994475138122,0.3173304418474208
1.9354696132596687,0.3314204926754521
1.968839779005525,0.24990516310275285
2.0022099447513813,0.10437037094502467
2.0355801104972375,-0.05032134698354324
2.0689502762430942,-0.15841256855466382
2.1023204419889505,-0.18550691960172916
2.135690607734807,-0.13075344256542407
2.169060773480663,-0.023998637682506953
2.2024309392265193,0.08989404985955746
2.235801104972376,0.17162241883569582
2.2691712707182323,0.20331553964355367
2.3025414364640886,0.19295843010895186
2.335911602209945,0.16635953532530343
2.369281767955801,0.15140149744175296
2.402651933701658,0.1625121519234103
2.436022099447514,0.19269950275810352
2.4693922651933704,0.21662010030692794
2.5027624309392267,0.20288716772423251
2.536132596685083,0.12958345315731898
2.5695027624309392,-0.0043757467679541836
2.602872928176796,-0.17723364994364155
2.636243093922652,-0.3524204552092387
2.6696132596685085,-0.49265299757610104
2.7029834254143648,-0.5735970751482745
2.736353591160221,-0.5912261674552723
2.7697237569060777,-0.5602928276531152
2.803093922651934,-0.5055058713392919
2.8364640883977903,-0.4500709613518031
2.8698342541436466,-0.4068762161527661
2.903204419889503,-0.37570107893996807
2.936574585635359,-0.3465428519183003
2.969944751381216,-0.3062751780985024
3.003314917127072,-0.2448453027879796
3.0366850828729284,-0.1584136027485402
3.0700552486187846,-0.049248164385287174
3.103425414364641,0.07587287268831716
3.1367955801104976,0.20679428589417626
3.170165745856354,0.33021139869856925
3.20353591160221,0.43047978479666416
3.2369060773480665,0.49312847236653795
3.2702762430939227,0.5116601407220748
3.3036464088397794,0.49519665354234094
3.3370165745856357,0.4719968097301004
3.370386740331492,0.4839575582572954
3.4037569060773483,0.5707793849685818
3.4371270718232045,0.7483246613834535
3.4704972375690613,0.9908358435551803
3.5038674033149175,1.2277521119921642
3.537237569060774,1.3610911082008477
3.57060773480663,1.3000196131942308
3.6039779005524863,0.999624954118461
3.6373480662983426,0.4864263409505149
3.6707182320441993,-0.14275549613099855
3.7040883977900556,-0.7504126620832903
3.737458563535912,-1.20491251688274
3.770828729281768,-1.4244180378777518
3.8041988950276244,-1.4002091729318011
3.837569060773481,-1.1916086102599988
3.8709392265193374,-0.8975976278434986
3.9043093922651937,-0.6191365223608238
3.93767955801105,-0.42753051916888396
3.9710497237569062,-0.34877595001939904
4.0044198895027625,-0.36566818351888764
4.037790055248619,-0.43280833447211703
4.071160220994475,-0.496770738181082
4.104530386740332,-0.5143492975174447
4.1379005524861885,-0.4643067475489779
4.171270718232044,-0.3507697239029827
4.204640883977901,-0.19860271633391693
4.238011049723757,-0.042804546331022944
4.271381215469614,0.08461103362479938
4.30475138121547,0.16588406091924907
4.338121546961326,0.20279881501143623
4.371491712707183,0.2137612599768993
4.404861878453039,0.22370916214916306
4.438232044198895,0.2512907063215189
4.471602209944752,0.29944922440259125
4.504972375690608,0.35428869272291863
4.538342541436465,0.39308471941347917
4.5717127071823205,0.39744599060373365
4.605082872928177,0.3645922642595867
4.638453038674034,0.3103852235331925
4.67182320441989,0.2620036757722256
4.7051933701657465,0.2437893605567294
4.738563535911602,0.26370609475614926
4.771933701657459,0.30781560178762424
4.805303867403316,0.34609544878081383
4.8386740331491715,0.3469659563763997
4.872044198895028,0.29326699326528194
4.905414364640884,0.19161496520790405
4.938784530386741,0.07046694356272949
4.972154696132597,-0.032046914672669194
5.005524861878453,-0.0844483215465802
5.03889502762431,-0.07459505693627348
5.072265193370166,-0.013208538154083604
5.105635359116023,0.07243473321752382
5.1390055248618784,0.1506595840306771
5.172375690607735,0.19730178692292547
5.205745856353592,0.20245499691687208
5.239116022099448,0.1704200017965869
5.272486187845304,0.11448735194795537
5.30585635359116,0.049822357055190176
5.339226519337017,-0.012523065392966395
5.372596685082874,-0.06871183308462707
5.4059668508287295,-0.12183788618529189
5.439337016574586,-0.17862428206052253
5.472707182320442,-0.24420477263277457
5.506077348066299,-0.31698241824981177
5.5394475138121555,-0.38629396184984066
5.572817679558011,-0.43529491098224055
5.606187845303868,-0.4494155104727178
5.639558011049724,-0.4273311685179523
5.672928176795581,-0.3884081300271486
5.706298342541437,-0.3703139601387661
5.739668508287293,-0.41419956381952083
5.77303867403315,-0.5415695883967966
5.806408839779006,-0.7333627055596492
5.839779005524862,-0.923780279727482
5.873149171270718,-1.0165982807956213
5.906519337016575,-0.9212534317585257
5.939889502762432,-0.59479663228537
5.9732596685082875,-0.07017260312886732
6.006629834254144,0.5446878156306258
6.04,1.0997841498665482
6.073370165745857,1.4555628192893495
6.1067403314917135,1.5328771293658263
6.140110497237569,1.3392106660703127
6.173480662983426,0.9610649963097063
6.206850828729282,0.5276383363616025
6.240220994475139,0.16262988847041648
6.273591160220995,-0.055916466793148024
6.306961325966851,-0.11363061077000701
6.340331491712708,-0.05237701724802656
6.373701657458564,0.05566223149422505
6.40707182320442,0.13969562218241982
6.440441988950277,0.15531647214512537
6.473812154696133,0.0950402387624738
6.50718232044199,-0.016686805393040502
6.5405524861878455,-0.13921674734422962
6.573922651933702,-0.2342313596026063
6.607292817679559,-0.27942831746537383
6.640662983425415,-0.27289822831681526
6.674033149171271,-0.22825813846544496
6.707403314917127,-0.16451569444251224
6.740773480662984,-0.09633471566250493
6.774143646408841,-0.02931347154329458
6.8075138121546965,0.0382121354532388
6.840883977900553,0.10885306048210383
6.874254143646409,0.17957072923031403
6.907624309392266,0.23891935899001526
6.9409944751381225,0.26995998142091715
6.974364640883978,0.25746141792000693
7.007734806629835,0.19556881882905017
7.041104972375691,0.09178068209360256
7.074475138121548,-0.03497872507921926
7.107845303867403,-0.16125563700579104
7.14121546961326,-0.2674186266460848
7.174585635359117,-0.3433800137911076
7.207955801104973,-0.38926951092697276
7.241325966850829,-0.4114842802149246
7.274696132596685,-0.416880284652577
7.308066298342542,-0.4084635849517558
7.341436464088399,-0.38465815308861984
7.3748066298342545,-0.3420059261386396
7.408176795580111,-0.27932070566491224
7.441546961325967,-0.20077562310346717
7.474917127071824,-0.11621124958476015
7.5082872928176805,-0.03846101311549195
7.541657458563536,0.02113680197129467
7.575027624309393,0.057185607360493905
7.608397790055249,0.07287317571707154
7.641767955801106,0.079693819724767
7.675138121546962,0.09404530939201214
7.708508287292818,0.13147001312054912
7.741878453038675,0.20019410003536475
7.775248618784531,0.2961950732112878
7.808618784530387,0.4019817124909512
7.841988950276244,0.4903436899013912
7.8753591160221,0.5325845590342451
7.908729281767957,0.5087422270545913
7.9420994475138125,0.4159380022391657
7.975469613259669,0.2711330978772475
8.008839779005525,0.10648920217345695
8.042209944751383,-0.04138746025890927
8.075580110497238,-0.1441687598635339
8.108950276243094,-0.19118811062050972
8.14232044198895,-0.1914992523074583
8.175690607734808,-0.1678997469697743
8.209060773480664,-0.14583403182137386
8.24243093922652,-0.14225791273417682
8.275801104972377,-0.1592446770806095
8.309171270718233,-0.18464359650048645
8.342541436464089,-0.1988249491299945
8.375911602209946,-0.18407145420444246
8.409281767955802,-0.13250916025220622
8.442651933701658,-0.04960402195536959
8.476022099447514,0.04763168876610254
8.509392265193371,0.13651959735024322
8.542762430939227,0.1962179601275359
8.576132596685083,0.2141561856203375
8.60950276243094,0.18935480811860844
8.642872928176796,0.13176019918788823
8.676243093922652,0.05807228248642394
8.709613259668508,-0.014276854796433758
8.742983425414366,-0.07268194818649629
8.776353591160222,-0.11234103864360281
8.809723756906077,-0.13564065474403014
8.843093922651935,-0.14858535250900876
8.87646408839779,-0.15628868168191526
8.909834254143647,-0.15988331945522036
8.943204419889504,-0.15628692793821283
8.97657458563536,-0.14061848805448382
9.009944751381216,-0.10966862433247539
9.043314917127072,-0.06445174135338981
9.07668508287293,-0.010599722702962652
9.110055248618785,0.04336646728297169
9.143425414364641,0.08881520970895605
9.176795580110499,0.11947268741837201
9.210165745856354,0.13266806210672039
9.24353591160221,0.12920698132312086
9.276906077348068,0.11232380236249558
9.310276243093924,0.08634836782759939
9.34364640883978,0.05556956251456832
9.377016574585635,0.023528087795281673
9.410386740331493,-0.0071975572613465245
9.443756906077349,-0.034739216076065234
9.477127071823205,-0.05736869464422914
9.510497237569062,-0.07293783775215468
9.543867403314918,-0.07877851206078845
9.577237569060774,-0.07239291609516477
9.610607734806631,-0.05285880055656871
9.643977900552487,-0.022357136819782974
9.677348066298343,0.013088373436709927
9.710718232044199,0.044438988697517105
9.744088397790057,0.06220103661417153
9.777458563535912,0.06001224031209787
9.810828729281768,0.037820411910541106
9.844198895027626,0.0030533430685909502
9.877569060773482,-0.031199765289044633
9.910939226519337,-0.05070386130213591
9.944309392265193,-0.04562293795241247
9.97767955801105,-0.014685180351403633
10.011049723756907,0.03402840049048925
10.044419889502763,0.08618392359200071
10.07779005524862,0.12686304857450795
10.111160220994476,0.1462753424044949
10.144530386740332,0.1430469580650113
10.17790055248619,0.12384863060285305
10.211270718232045,0.09981510555308122
10.244640883977901,0.08148520247577566
10.278011049723757,0.0743422454080471
10.311381215469615,0.07651917505128095
10.34475138121547,0.07930787501060974
10.378121546961326,0.07023084820353756
10.411491712707184,0.03776327084249868
10.44486187845304,-0.023716884968746438
10.478232044198895,-0.11049409692319732
10.511602209944753,-0.20919488150037546
10.544972375690609,-0.3002643106885528
10.578342541436465,-0.36433105006685396
10.61171270718232,-0.3889870886279507
10.645082872928178,-0.3729427239478612
10.678453038674034,-0.325519445671387
10.71182320441989,-0.261666587123574
10.745193370165747,-0.19496777129267648
10.778563535911603,-0.13213992879939332
10.811933701657459,-0.07169579185064867
10.845303867403315,-0.00718763035705803
10.878674033149172,0.06697094497575592
10.912044198895028,0.15037875785295765
10.945414364640884,0.23497214906779945
10.978784530386742,0.3076105993407687
11.012154696132598,0.3554637016415684
11.045524861878453,0.3713686679231522
11.078895027624311,0.35652508466708976
11.112265193370167,0.3194482294701886
11.145635359116023,0.2720746906634347
11.179005524861878,0.22520198026512833
11.212375690607736,0.185421107352607
11.245745856353592,0.154543749944188
11.279116022099448,0.131037296212799
11.312486187845305,0.1120561551924623
11.345856353591161,0.09474341211093318
11.379226519337017,0.07636145462399654
11.412596685082875,0.05382758085574327
11.44596685082873,0.023701999885830136
11.479337016574586,-0.016698303968891014
11.512707182320442,-0.06737730834415663
11.5460773480663,-0.1242206405120806
11.579447513812156,-0.17956780430223881
11.612817679558011,-0.22543638830520885
11.646187845303869,-0.2583096613809833
11.679558011049725,-0.28280148651998366
11.71292817679558,-0.3112343718990722
11.746298342541436,-0.3578280232339829
11.779668508287294,-0.4292566966541156
11.81303867403315,-0.5161706887988281
11.846408839779006,-0.5910154298535848
11.879779005524863,-0.615161728240649
11.91314917127072,-0.55374582414887
11.946519337016575,-0.3920515596892824
11.979889502762433,-0.14548082482604524
12.013259668508288,0.14240870413487125
12.046629834254144,0.4136502254906108
12.08,0.6154133795538843
12.113370165745858,0.7166925185088572
12.146740331491714,0.7154127820221164
12.18011049723757,0.6343728129044661
12.213480662983427,0.5096216090564964
12.246850828729283,0.37730568684545807
12.280220994475139,0.2640272335385155
12.313591160220996,0.1827543346390867
12.346961325966852,0.1335137876485825
12.380331491712708,0.10686564513941134
12.413701657458564,0.08844036247895563
12.447071823204421,0.06359902532299225
12.480441988950277,0.021635365602121724
12.513812154696133,-0.04124354225407457
12.54718232044199,-0.12105962741429172
12.580552486187846,-0.207729706422225
12.613922651933702,-0.28854751094567727
12.64729281767956,-0.35178387319240323
12.680662983425416,-0.3886836226236434
12.714033149171271,-0.3933170100990112
12.747403314917127,-0.36142393908727954
12.780773480662985,-0.29032840985456754
12.81414364640884,-0.1813070119203612
12.847513812154697,-0.04368970833619195
12.880883977900554,0.10218560012298337
12.91425414364641,0.22657453296288782
12.947624309392266,0.2979891780542508
12.980994475138122,0.2948751428585662
13.01436464088398,0.21613622355480339
13.047734806629835,0.0847835492675543
13.081104972375691,-0.05825937617481053
13.114475138121549,-0.16836559076273128
13.147845303867404,-0.21339076577032748
13.18121546961326,-0.18461770079005227
13.214585635359118,-0.09780860362505213
13.247955801104974,0.015405871589388654
13.28132596685083,0.12109589165112439
13.314696132596685,0.19512564727979162
13.348066298342543,0.22898231762475835
13.381436464088399,0.22827799976917187
13.414806629834255,0.20640300849810964
13.448176795580112,0.17735507989675633
13.481546961325968,0.1509237799789917
13.514917127071824,0.13118368467642844
13.548287292817681,0.11723508197577422
13.581657458563537,0.10446616866563266
13.615027624309393,0.08537859737748915
13.648397790055249,0.050357866855942596
13.681767955801106,-0.010456283023045916
13.715138121546962,-0.10348797546559424
13.748508287292818,-0.22694763053953446
13.781878453038676,-0.3671386988446457
13.815248618784532,-0.49846805958759105
13.848618784530387,-0.5886658867951429
13.881988950276245,-0.6083951289362963
13.9153591160221,-0.5419786807589643
13.948729281767957,-0.3947251182455591
13.982099447513813,-0.19320027692364483
14.01546961325967,0.022322613637098334
14.048839779005526,0.2103727717808324
14.082209944751382,0.3404678561685089
14.11558011049724,0.3999764092265747
14.148950276243095,0.3936088338401311
14.182320441988951,0.3373679140310659
14.215690607734807,0.2512291725953747
14.249060773480664,0.15442548904208211
14.28243093922652,0.06447770406852195
14.315801104972376,-0.001967937496616461
14.349171270718234,-0.029751036547470456
14.38254143646409,-0.00918933206498308
14.415911602209945,0.05769631819207817
14.449281767955803,0.15263835943245682
14.482651933701659,0.24263277944520525
14.516022099447515,0.2893523402683359
14.54939226519337,0.26395650752917427
14.582762430939228,0.16102946243536465
14.616132596685084,0.004559594745259501
14.64950276243094,-0.15813831611498494
14.682872928176797,-0.2731302575018792
14.716243093922653,-0.30051468592027675
14.749613259668509,-0.2301518860743123
14.782983425414367,-0.08568910905834512
14.816353591160222,0.08463413968425935
14.849723756906078,0.2261520175478342
14.883093922651934,0.2971502281073003
14.916464088397792,0.2818596635498673
14.949834254143648,0.19285040737916836
14.983204419889503,0.06331835391670564
15.016574585635361,-0.06645720242533518
15.049944751381217,-0.16281410201687196
15.083314917127073,-0.207984769595061
15.116685082872928,-0.20286246120790505
15.150055248618786,-0.16365102141362628
15.183425414364642,-0.11437341556847194
15.216795580110498,-0.0778333469664906
15.250165745856355,-0.06768823398748314
15.283535911602211,-0.08403696282796287
15.316906077348067,-0.11414147969651471
15.350276243093925,-0.1382953477731835
15.38364640883978,-0.13869094412649505
15.417016574585636,-0.10745284927221536
15.450386740331492,-0.05001992941234285
15.48375690607735,0.017802578749224963
15.517127071823205,0.0774818621961057
15.550497237569061,0.11585494521615029
15.583867403314919,0.12924075096469254
15.617237569060775,0.12155045086988042
15.65060773480663,0.09805780084183974
15.683977900552488,0.059222090854015134
15.717348066298344,-0.0009293696685145939
15.7507182320442,-0.0900200988441016
15.784088397790056,-0.20833274125338436
15.817458563535913,-0.3409358738348877
15.85082872928177,-0.45660683568950505
15.884198895027625,-0.5162345688737264
15.917569060773483,-0.4882927171746668
15.950939226519338,-0.3643998620519616
15.984309392265194,-0.1666819840363
16.01767955801105,0.05810714843191216
16.051049723756908,0.2562288063064355
16.084419889502765,0.3884885239660283
16.11779005524862,0.4451958952939941
16.151160220994477,0.44705502224906546
16.18453038674033,0.43156654966646435
16.21790055248619,0.4319526837906902
16.251270718232046,0.45941359051450675
16.2846408839779,0.4976994837848117
16.318011049723758,0.5125578965675095
16.351381215469615,0.470985654448177
16.38475138121547,0.3603073471582072
16.418121546961327,0.19733595495339928
16.451491712707185,0.02298114959462739
16.48486187845304,-0.1150479393135048
16.518232044198896,-0.18302727526364318
16.551602209944754,-0.1755919808120837
16.584972375690608,-0.11715762627329684
16.618342541436466,-0.05018053845535522
16.651712707182323,-0.016156298963132566
16.685082872928177,-0.038244305897359235
16.718453038674035,-0.11307620437049239
16.751823204419892,-0.21458762902225276
16.785193370165747,-0.30706683167873766
16.818563535911604,-0.36076838900001224
16.851933701657458,-0.36306127733686555
16.885303867403316,-0.32099664433899666
16.918674033149173,-0.255583544057264
16.952044198895027,-0.19160509374758855
16.985414364640885,-0.14794152110993478
17.018784530386743,-0.1320559040057668
17.052154696132597,-0.13975069654338823
17.085524861878454,-0.15902395785251697
17.118895027624312,-0.17575300892644702
17.152265193370166,-0.1790195413336211
17.185635359116024,-0.16459400445533354
17.21900552486188,-0.1358413965411505
