Frequency (Hz),Amplitude
0.0,3.8826729942083036
0.01993355481727575,3.8808321694928734
0.0398671096345515,3.87531171476488
0.059800664451827246,3.866117688440566
0.079734219269103,3.853260188461479
0.09966777408637874,3.8367533533192835
0.11960132890365449,3.8166153638017852
0.13953488372093023,3.792868445783372
0.159468438538206,3.7655388744934686
0.17940199335548174,3.7346569808210943
0.19933554817275748,3.7002571603578565
0.21926910299003324,3.6623778860503973
0.23920265780730898,3.621061725534217
0.25913621262458475,3.576355364462032
0.27906976744186046,3.528309637433199
0.29900332225913623,3.4769795684895435
0.318936877076412,3.4224244235862553
0.3388704318936877,3.364707777997383
0.3588039867109635,3.3038976023050326
0.37873754152823924,3.2400663714900024
0.39867109634551495,3.1732912027431746
0.4186046511627907,3.1036540290224184
0.4385382059800665,3.0312418171851774
0.4584717607973422,2.9561468418607117
0.47840531561461797,2.878467029263549
0.49833887043189373,2.7983063891298667
0.5182724252491695,2.715775558210372
0.5382059800664452,2.63099248573177
0.5581395348837209,2.5440833005787877
0.5780730897009968,2.455183412537622
0.5980066445182725,2.364438917031204
0.6179401993355482,2.2720083961337116
0.637873754152824,2.1780652407787313
0.6578073089700996,2.0828006635112466
0.6777408637873754,1.986427632852247
0.6976744186046512,1.8891860462426073
0.717607973421927,1.7913495779064352
0.7375415282392027,1.6932348026677027
0.7574750830564785,1.5952134201016577
0.7774086378737541,1.4977286957363822
0.7973421926910299,1.4013175914902631
0.8172757475083057,1.306640420425783
0.8372093023255814,1.2145200468595965
0.8571428571428572,1.1259921801806994
0.877076411960133,1.0423660836013366
0.8970099667774087,0.9652888797266383
0.9169435215946844,0.8967932402025068
0.9368770764119602,0.8392850889163246
0.9568106312292359,0.7954014626203098
0.9767441860465116,0.7676694339263419
0.9966777408637875,0.7579791839415002
1.0166112956810631,0.7670551500999928
1.036544850498339,0.7942222327750963
1.0564784053156147,0.8376246495630073
1.0764119601328903,0.8947494216072549
1.0963455149501662,0.9629575033861519
1.1162790697674418,1.0398323742373792
1.1362126245847177,1.1233281811770284
1.1561461794019936,1.2117853200522768
1.176079734219269,1.3038840006835584
1.196013289036545,1.3985801175386132
1.2159468438538206,1.4950442792879564
1.2358803986710964,1.5926111410196058
1.255813953488372,1.6907398522529293
1.275747508305648,1.7889841136652311
1.2956810631229239,1.8869698242698258
1.3156146179401993,1.9843784738713466
1.3355481727574752,2.0809347962143763
1.3554817275747508,2.1763975551218793
1.3754152823920267,2.270552630555553
1.3953488372093024,2.3632077970471843
1.4152823920265782,2.454188753395206
1.435215946843854,2.5433360832158334
1.4551495016611296,2.630502912802268
1.4750830564784054,2.7155530951583278
1.495016611295681,2.7983597940043117
1.514950166112957,2.878804374033374
1.5348837209302328,2.9567755273060223
1.5548172757475083,3.0321685829405705
1.5747508305647842,3.104884959976738
1.5946843853820598,3.174831732723685
1.6146179401993357,3.2419212849512524
1.6345514950166113,3.3060710345854503
1.6544850498338872,3.3672032145868562
1.6744186046511629,3.425244698755795
1.6943521594684385,3.480126863562974
1.7142857142857144,3.531785478925068
1.73421926910299,3.580160622262345
1.754152823920266,3.6251966112858853
1.7740863787375416,3.6668419518375526
1.7940199335548175,3.7050492978008935
1.8139534883720931,3.7397754206560494
1.8338870431893688,3.770981186698327
1.8538205980066447,3.7986315403014665
1.8737541528239203,3.822695491901862
1.893687707641196,3.8431461096227997
1.9136212624584719,3.8599605136598676
1.9335548172757475,3.873119872718289
1.9534883720930232,3.8826094019377644
1.9734219269102993,3.888418361865546
1.993355481727575,3.8905400581490492
2.0132890365448506,3.888971841719076
2.0332225913621262,3.8837151093270363
2.0531561461794023,3.874775304387652
2.073089700996678,3.8621619181651488
2.0930232558139537,3.8458884914287292
2.1129568106312293,3.825972616795012
2.132890365448505,3.8024359420741276
2.1528239202657806,3.775304175045607
2.1727574750830567,3.744607090214047
2.1926910299003324,3.710378538237298
2.212624584717608,3.6726564588874884
2.2325581395348837,3.631482898603941
2.25249169435216,3.586904033936392
2.2724252491694354,3.538970202467172
2.292358803986711,3.4877359431565615
2.312292358803987,3.433260048494448
2.332225913621263,3.375605631386811
2.352159468438538,3.314840210388277
2.3720930232558137,3.2510358177521845
2.39202657807309,3.184269135859954
2.4119601328903655,3.11462166898345
2.431893687707641,3.0421799591214733
2.4518272425249172,2.9670358569628448
2.471760797342193,2.8892868620369225
2.4916943521594686,2.809036550055095
2.511627906976744,2.7263951106500777
2.5315614617940203,2.6414800256360373
2.551495016611296,2.554416927171315
2.5714285714285716,2.4653406876906447
2.5913621262458477,2.3743968104302686
2.611295681063123,2.2817432125589403
2.6312292358803986,2.187552524849197
2.6511627906976742,2.092015076017395
2.6710963455149503,1.9953427913212676
2.691029900332226,1.8977743206820485
2.7109634551495017,1.7995818309268805
2.7308970099667778,1.7010800618759931
2.7508305647840534,1.6026384709136365
2.770764119601329,1.5046975870629988
2.7906976744186047,1.4077910602925543
2.810631229235881,1.3125752743331547
2.8305647840531565,1.21986861681336
2.850498338870432,1.13070210253748
2.870431893687708,1.0463809462718632
2.8903654485049834,0.9685507208253651
2.910299003322259,0.8992484743435515
2.9302325581395348,0.840895754563174
2.950166112956811,0.7961626063444169
2.9700996677740865,0.7676294087318677
2.990033222591362,0.7572532515008673
3.0099667774086383,0.7658204778962437
3.029900332225914,0.7926916912304922
3.0498338870431896,0.836011896773258
3.0697674418604657,0.8932420607849424
3.089700996677741,0.9617055893333184
3.1096345514950166,1.0389490878761796
3.129568106312292,1.1228962463312615
3.1495016611295683,1.2118644957468128
3.169435215946844,1.3045175254153594
3.1893687707641196,1.39979958174738
3.2093023255813957,1.4968730814841356
3.2292358803986714,1.5950668617042933
3.249169435215947,1.693835860239643
3.2691029900332227,1.7927306471613482
3.289036544850499,1.891374718381903
3.3089700996677744,1.989447651424985
3.32890365448505,2.086672600071757
3.3488372093023258,2.1828069739650195
3.3687707641196014,2.2776354526925107
3.388704318936877,2.3709647153194155
3.4086378737541527,2.4626194366990184
3.428571428571429,2.552439225146764
3.4485049833887045,2.6402762646008204
3.46843853820598,2.725993487902634
3.4883720930232562,2.809463153485713
3.508305647840532,2.8905657307215855
3.5282392026578075,2.9691890231027895
3.548172757475083,3.0452274759294706
3.5681063122923593,3.118581628033341
3.588039867109635,3.189157676607911
3.60797342192691,3.2568671313313406
3.6279069767441863,3.32162653931953
3.647840531561462,3.3833572664987543
3.6677740863787376,3.441985324076738
3.6877076411960132,3.497441231163024
3.7076411960132893,3.5496599064228636
3.727574750830565,3.598580583075151
3.7475083056478407,3.644146742661934
3.7674418604651168,3.6863060638974154
3.787375415282392,3.72501038360257
3.807308970099668,3.760215667289146
3.8272425249169437,3.7918819874050067
3.8471760797342194,3.819973507615531
3.867109634551495,3.8444584717919956
3.887043189368771,3.8653091966212667
3.9069767441860463,3.8825020669536174
3.9269102990033224,3.896017533175448
3.9468438538205985,3.9058401100386004
3.9667774086378738,3.9119583765030406
3.98671096345515,3.9143649762602966
4.0066445182724255,3.913056618704503
4.026578073089701,3.9080340802099474
4.046511627906977,3.899302205661887
4.0664451827242525,3.8868699102731195
4.086378737541528,3.8707501818062866
4.106312292358805,3.850960083412859
4.1262458471760795,3.8275207573978745
4.146179401993356,3.8004574303278744
4.166112956810632,3.7697994200219536
4.186046511627907,3.735580145107102
4.205980066445183,3.697837137984395
4.225913621262459,3.6566120622492284
4.245847176079734,3.6119507358450913
4.26578073089701,3.563903161517046
4.2857142857142865,3.5125235664825247
4.305647840531561,3.4578704536704383
4.325581395348838,3.400006667418556
4.345514950166113,3.338999477193952
4.365448504983389,3.27492068375122
4.385382059800665,3.20784675322157
4.40531561461794,3.137858986002362
4.425249169435216,3.0650437290851524
4.445182724252492,2.989492642748339
4.465116279069767,2.9113030355194964
4.485049833887043,2.830578285219692
4.50498338870432,2.7474283690612444
4.524916943521594,2.6619705326336565
4.544850498338871,2.574330136808344
4.5647840531561465,2.4846417340063014
4.584717607973422,2.393050442152532
4.604651162790698,2.2997137077594707
4.624584717607974,2.2048035814601774
4.644518272425249,2.108509673540163
4.664451827242526,2.0110430186830515
4.6843853820598005,1.9126411653892974
4.704318936877076,1.8135749261408378
4.724252491694353,1.714157392205074
4.7441860465116275,1.614756047282008
4.764119601328904,1.515809121101023
4.78405315614618,1.4178477088358725
4.803986710963455,1.3215256020339805
4.823920265780731,1.2276590690343345
4.8438538205980075,1.1372785368237888
4.863787375415282,1.0516921913204278
4.883720930232559,0.972555722911668
4.9036544850498345,0.901929136684297
4.92358803986711,0.8422772610861342
4.943521594684386,0.7963401023639102
4.963455149501661,0.7667927897419073
4.983388704318937,0.755693506909848
5.003322259136213,0.763902839656459
5.023255813953488,0.7908006111969608
5.043189368770764,0.8344944744305782
5.063122923588041,0.8923748545907887
5.083056478405315,0.961689193582923
5.102990033222592,1.0399196771134285
5.122923588039868,1.124942120091191
5.142857142857143,1.215040946147085
5.162790697674419,1.3088579792430917
5.182724252491695,1.4053232233692556
5.20265780730897,1.5035898203794662
5.222591362126246,1.6029804858869
5.242524916943522,1.7029460099008642
5.262458471760797,1.803034039696445
5.282392026578074,1.9028659038216664
5.3023255813953485,2.002119474666957
5.322259136212625,2.1005164803360192
5.342192691029901,2.197813070436466
5.362126245847176,2.293792759485898
5.382059800664452,2.388261112843922
5.4019933554817285,2.481041716486972
5.421926910299003,2.5719730989400404
5.44186046511628,2.660906364537654
5.4617940199335555,2.7477033621439975
5.48172757475083,2.8322352600249836
5.501661129568107,2.9143814310998737
5.5215946843853825,2.9940285770959316
5.541528239202658,3.071070037850328
5.561461794019934,3.1454052450210854
5.5813953488372094,3.2169392891014454
5.601328903654485,3.285582575812729
5.621262458471762,3.351250553343051
5.641196013289036,3.4138634959776586
5.661129568106313,3.473346332773602
5.681063122923589,3.529628512314475
5.700996677740864,3.5826438964214797
5.72093023255814,3.632330677127709
5.740863787375416,3.6786313123422962
5.760797342192691,3.721492476512883
5.780730897009967,3.7608650232938934
5.800664451827243,3.7967039577860073
5.820598006644518,3.82896841636027
5.840531561461795,3.8576216524430835
5.8604651162790695,3.8826310269337156
5.880398671096346,3.9039680021694543
5.900332225913622,3.9216081385550656
5.920265780730897,3.9355310931430463
5.940199335548173,3.945720619595161
5.960132890365449,3.952164569080654
5.980066445182724,3.9548548917761694
6.0,3.9537876387314683
6.0199335548172765,3.948962963956365
6.039867109634551,3.94038512667116
6.059800664451828,3.928062493748144
6.0797342192691035,3.912007542457838
6.099667774086379,3.8922368637238107
6.119601328903655,3.868771166186589
6.139534883720931,3.8416352814841708
6.159468438538206,3.8108581712773257
6.179401993355482,3.776472936687072
6.1993355481727574,3.738516830974634
6.219269102990033,3.697031276487976
6.23920265780731,3.6520618871316164
6.259136212624584,3.603658497899085
6.279069767441861,3.551875203353508
6.299003322259137,3.4967704073691186
6.318936877076412,3.43840688697796
6.338870431893688,3.376851873831582
6.3588039867109645,3.3121771576266403
6.378737541528239,3.244459216907934
6.398671096345516,3.1737793840227795
6.418604651162791,3.100224052749186
6.438538205980066,3.023884939384638
6.458471760797343,2.9448594110331343
6.4784053156146175,2.863250898701927
6.498338870431894,2.779169417941121
6.51827242524917,2.6927322265807305
6.538205980066445,2.6040646582743103
6.558139534883721,2.5133011829362606
6.578073089700998,2.420586762025648
6.598006644518272,2.326078589781538
6.617940199335549,2.229948343527664
6.6378737541528245,2.1323851107226175
6.6578073089701,2.033599222802396
6.677740863787376,1.933827313510425
6.6976744186046515,1.8333390427276355
6.717607973421927,1.7324460997350144
6.737541528239203,1.6315143396443652
6.7574750830564785,1.5309802311165235
6.777408637873754,1.4313732100326315
6.797342192691031,1.3333460102443595
6.8172757475083055,1.2377154320661408
6.837209302325582,1.1455158785446227
6.857142857142858,1.05806626637152
6.877076411960133,0.9770453036690229
6.897009966777409,0.9045565971105245
6.9169435215946855,0.8431392489577731
6.93687707641196,0.7956450604394023
6.956810631229236,0.764891173177976
6.9767441860465125,0.7530755566676998
6.996677740863787,0.7611453669050698
7.016611295681064,0.7884773278446235
7.036544850498339,0.8330943897565651
7.056478405315615,0.8922634434189411
7.076411960132891,0.9631121387961589
7.096345514950166,1.0430284020888523
7.116279069767442,1.1298225036112348
7.136212624584719,1.221736552209913
7.156146179401993,1.3173862152436457
7.17607973421927,1.4156857015384239
7.196013289036546,1.5157786972509448
7.21594684385382,1.6169822274056698
7.235880398671097,1.7187435770966557
7.2558139534883725,1.8206081276472965
7.275747508305648,1.9221956211287792
7.295681063122924,2.0231826959401644
7.3156146179402,2.123290010020499
7.335548172757475,2.2222726999215823
7.355481727574752,2.319913265889255
7.3754152823920265,2.4160162279343824
7.395348837209303,2.510404082361996
7.415282392026579,2.6029142200207454
7.435215946843854,2.69339656124732
7.45514950166113,2.781711729143005
7.475083056478406,2.8677296304047593
7.495016611295681,2.951328347081621
7.514950166112956,3.0323932672924045
7.5348837209302335,3.110816400882645
7.554817275747508,3.186495839148008
7.574750830564784,3.259335327461495
7.5946843853820605,3.329243926866853
7.614617940199336,3.3961357461172708
7.634551495016611,3.4599297297294442
7.6544850498338874,3.5205494907353323
7.674418604651163,3.577923179198116
7.694352159468439,3.6319833793981218
7.714285714285715,3.6826670300233517
7.73421926910299,3.7299153628155004
7.754152823920266,3.773673856001544
7.774086378737542,3.8138921995371686
7.794019933554818,3.850524269743132
7.813953488372093,3.8835281113614557
7.83388704318937,3.9128659254187603
7.853820598006645,3.9385040615774125
7.8737541528239205,3.9604130138966824
7.893687707641197,3.9785674191263487
7.913621262458472,3.992946056822885
7.9335548172757475,4.003531850721704
7.953488372093024,4.010311870921855
7.9734219269103,4.013277336548549
7.9933554817275745,4.0124236186564115
8.013289036544851,4.007750243226542
8.033222591362128,3.9992608941962704
8.053156146179402,3.9869634165443597
8.073089700996679,3.970869819539151
8.093023255813954,3.9509962803459033
8.11295681063123,3.927363148284547
8.132890365448505,3.899994950134099
8.152823920265782,3.86892039699857
8.172757475083056,3.8341723933857708
8.192691029900331,3.7957880493105587
8.21262458471761,3.753808696423967
8.232558139534884,3.708279909398575
8.252491694352159,3.6592515340777587
8.272425249169435,3.6067777242369288
8.292358803986712,3.5509169892249184
8.312292358803987,3.491732255276687
8.332225913621263,3.4292909439438235
8.352159468438538,3.3636650719161785
8.372093023255815,3.2949313775579974
8.392026578073091,3.223171480824844
8.411960132890366,3.1484720849557224
8.43189368770764,3.0709252305753987
8.451827242524917,2.990628615765333
8.471760797342194,2.907685999505901
8.491694352159469,2.8222077109829073
8.511627906976745,2.7343112940446614
8.53156146179402,2.6441223252314536
8.551495016611296,2.551775456182278
8.571428571428573,2.4574157481429744
8.591362126245848,2.3612003896007447
8.611295681063122,2.2633009204095025
8.6312292358804,2.163906130982127
8.651162790697676,2.063225868744778
8.67109634551495,1.9614960740213467
8.691029900332227,1.8589854951023397
8.710963455149502,1.7560047129496483
8.730897009966778,1.6529183598859125
8.750830564784053,1.5501617664038838
8.77076411960133,1.4482637321466378
8.790697674418604,1.3478776731534756
8.81063122923588,1.2498239216510822
8.830564784053157,1.1551460355110708
8.850498338870432,1.0651825312704353
8.870431893687707,0.9816500460918829
8.890365448504983,0.906720003714688
8.91029900332226,0.843042747743191
8.930232558139535,0.793632568816269
8.950166112956811,0.761506378874159
8.970099667774086,0.7490484055392327
8.990033222591363,0.7573039220557096
9.00996677740864,0.7856130889967307
9.029900332225914,0.8318504882326423
9.049833887043189,0.8930924059037624
9.069767441860467,0.9662946806325532
9.089700996677742,1.048718235326433
9.109634551495017,1.1380903577024788
9.129568106312293,1.2326030922407891
9.14950166112957,1.330843513112513
9.169435215946844,1.4317101820213307
9.189368770764121,1.534338554932812
9.209302325581396,1.638041504226112
9.22923588039867,1.7422643033885226
9.249169435215949,1.846551369983822
9.269102990033224,1.9505219273226004
9.289036544850498,2.0538522170170155
9.308970099667773,2.156262456865445
9.328903654485051,2.257507222421338
9.348837209302326,2.357368302699626
9.368770764119601,2.455649352560285
9.388704318936878,2.552171858621597
9.408637873754152,2.6467720729385564
9.428571428571429,2.7392986655730103
9.448504983388705,2.8296109156482925
9.46843853820598,2.917577309084162
9.488372093023255,3.0030744459250416
9.508305647840533,3.0859861851504435
9.528239202657808,3.1662029729622074
9.548172757475083,3.2436213137729086
9.56810631229236,3.3181433528634448
9.588039867109636,3.389676546911182
9.60797342192691,3.4581334040017775
9.627906976744187,3.52343127881731
9.647840531561462,3.5854922117919434
9.667774086378738,3.644242803396431
9.687707641196015,3.699614116538874
9.70764119601329,3.7515416014854392
9.727574750830565,3.7999650388109383
9.747508305647841,3.8448284967586424
9.767441860465118,3.886080300076877
9.787375415282392,3.9236730079481523
9.807308970099669,3.9575633990663506
9.827242524916944,3.9877124622727607
9.84717607973422,4.014085391451206
9.867109634551497,4.036651583619956
9.887043189368772,4.055384639355296
9.906976744186046,4.070262364846788
9.926910299003321,4.081266775024671
9.9468438538206,4.088384097321058
9.966777408637874,4.091604775733195
9.986710963455149,4.090923474952879
10.006644518272426,4.0863390844145515
10.026578073089702,4.077854722198539
10.046511627906977,4.065477738807968
10.066445182724253,4.049219720921075
10.086378737541528,4.029096495306993
10.106312292358805,4.005128133186338
10.126245847176081,3.977338955420345
10.146179401993356,3.9457575390282935
10.16611295681063,3.9104167256664892
10.186046511627907,3.871353632858563
10.205980066445184,3.8286096689527964
10.225913621262459,3.7822305530059537
10.245847176079735,3.732266341064948
10.26578073089701,3.6787714606510384
10.285714285714286,3.6218047556634176
10.305647840531563,3.561429544432364
10.325581395348838,3.4977136942961145
10.345514950166113,3.430729716888885
10.36544850498339,3.3605548893618242
10.385382059800666,3.2872714080829235
10.40531561461794,3.210966583069049
10.425249169435217,3.131733083619575
10.445182724252492,3.0496692485189785
10.465116279069768,2.9648794779934056
10.485049833887045,2.877474729673099
10.50498338870432,2.787573147591628
10.524916943521594,2.695300862395037
10.544850498338871,2.600793013366085
10.564784053156147,2.504195059916706
10.584717607973422,2.4056644737788986
10.604651162790697,2.30537293600446
10.624584717607974,2.203509209112174
10.64451827242525,2.1002829202029667
10.664451827242525,1.9959295842104028
10.684385382059801,1.8907173301117788
10.704318936877076,1.7849559845209773
10.724252491694353,1.6790094405217422
10.74418604651163,1.573312624336733
10.764119601328904,1.4683948964565159
10.784053156146179,1.3649123885817602
