Frequency (Hz),Amplitude
0.0,1.2929139231423292
0.019801980198019802,1.2929472027540725
0.039603960396039604,1.2930469324786649
0.0594059405940594,1.2932127853832218
0.07920792079207921,1.2934442179074275
0.09900990099009901,1.2937404718479155
0.1188118811881188,1.2941005771218435
0.13861386138613863,1.2945233552952082
0.15841584158415842,1.2950074238576723
0.1782178217821782,1.2955512012218218
0.19801980198019803,1.2961529124215043
0.21782178217821782,1.2968105954805087
0.2376237623762376,1.2975221084199244
0.25742574257425743,1.298285136869818
0.27722772277227725,1.2990972022485963
0.297029702970297,1.2999556704711166
0.31683168316831684,1.3008577611453487
0.33663366336633666,1.3018005572154225
0.3564356435643564,1.3027810150083001
0.37623762376237624,1.3037959746403813
0.39603960396039606,1.3048421707399507
0.4158415841584158,1.3059162434413085
0.43564356435643564,1.3070147496064253
0.45544554455445546,1.3081341742308026
0.4752475247524752,1.3092709419903994
0.495049504950495,1.3104214288877534
0.5148514851485149,1.3115819739564554
0.5346534653465347,1.3127488909842804
0.5544554455445545,1.3139184802170052
0.5742574257425742,1.3150870400060544
0.594059405940594,1.3162508783653029
0.613861386138614,1.3174063244035958
0.6336633663366337,1.3185497396016723
0.6534653465346534,1.319677528903761
0.6732673267326733,1.3207861515960744
0.6930693069306931,1.3218721319460283
0.7128712871287128,1.3229320695781268
0.7326732673267327,1.3239626495636987
0.7524752475247525,1.324960652203684
0.7722772277227723,1.3259229624852162
0.7920792079207921,1.3268465791940667
0.8118811881188118,1.327728623666549
0.8316831683168316,1.3285663481660657
0.8514851485148516,1.3293571438699525
0.8712871287128713,1.3300985484545116
0.891089108910891,1.330788253266095
0.9108910891089109,1.3314241100676145
0.9306930693069307,1.3320041373506397
0.9504950495049505,1.332526526203676
0.9702970297029703,1.3329896457283528
0.99009900990099,1.333392047995095
1.00990099009901,1.3337324725312092
1.0297029702970297,1.3340098503337994
1.0495049504950495,1.3342233074010967
1.0693069306930694,1.3343721677753366
1.0891089108910892,1.334455956091197
1.108910891089109,1.3344743996235076
1.1287128712871286,1.334427429828246
1.1485148514851484,1.3343151833713307
1.1683168316831685,1.3341380026393055
1.188118811881188,1.333896435726482
1.2079207920792079,1.3335912358933533
1.227722772277228,1.333223360491113
1.2475247524752475,1.332793969347298
1.2673267326732673,1.3323044226082121
1.2871287128712872,1.3317562780336352
1.3069306930693068,1.3311512877404421
1.3267326732673268,1.330491394391497
1.3465346534653466,1.3297787268275187
1.3663366336633662,1.3290155951399432
1.3861386138613863,1.3282044851839365
1.405940594059406,1.327348052531418
1.4257425742574257,1.326449115865601
1.4455445544554455,1.3255106498193534
1.4653465346534653,1.3245357772614708
1.4851485148514851,1.323527761036545
1.504950495049505,1.3224899951659248
1.5247524752475248,1.3214259955191476
1.5445544554455446,1.3203393899676172
1.5643564356435644,1.3192339080344588
1.5841584158415842,1.3181133700570051
1.6039603960396038,1.3169816758811708
1.6237623762376237,1.3158427931095897
1.6435643564356437,1.3147007449285788
1.6633663366336633,1.313559597541854
1.683168316831683,1.3124234472421574
1.7029702970297032,1.3112964071552735
1.7227722772277227,1.3101825936940736
1.7425742574257426,1.3090861127635567
1.7623762376237624,1.3080110457610625
1.782178217821782,1.3069614354192933
1.801980198019802,1.3059412715424268
1.8217821782178218,1.3049544766888346
1.8415841584158414,1.3040048918567593
1.8613861386138615,1.3030962622315696
1.881188118811881,1.3022322230555234
1.900990099009901,1.3014162856829103
1.920792079207921,1.3006518238850215
1.9405940594059405,1.2999420604702554
1.9603960396039604,1.299290054285608
1.98019801980198,1.2986986876656994
2.0,1.2981706543952907
2.01980198019802,1.2977084482503278
2.0396039603960396,1.2973143521807586
2.0594059405940595,1.296990428197018
2.0792079207920793,1.2967385080185758
2.099009900990099,1.2965601845405923
2.118811881188119,1.2964568041704074
2.1386138613861387,1.2964294600817092
2.1584158415841586,1.296478986429339
2.1782178217821784,1.2966059535625347
2.1980198019801978,1.296810664268965
2.217821782178218,1.2970931510758086
2.237623762376238,1.297453174628119
2.257425742574257,1.297890223158346
2.2772277227722775,1.2984035130542095
2.297029702970297,1.2989919905256584
2.3168316831683167,1.2996543343651947
2.336633663366337,1.3003889597889808
2.3564356435643563,1.3011940233404051
2.376237623762376,1.3020674288310505
2.3960396039603964,1.3030068342888121
2.4158415841584158,1.30400965987686
2.4356435643564356,1.3050730967427173
2.455445544554456,1.3061941167515387
2.4752475247524752,1.3073694830539142
2.495049504950495,1.3085957614348305
2.514851485148515,1.3098693323871529
2.5346534653465347,1.3111864038507985
2.5544554455445545,1.312543024556216
2.5742574257425743,1.3139350979100475
2.594059405940594,1.3153583963590574
2.6138613861386135,1.3168085761687203
2.633663366336634,1.3182811925523177
2.6534653465346536,1.319771715087186
2.673267326732673,1.3212755433554515
2.6930693069306932,1.322788022747978
2.712871287128713,1.3243044603716618
2.7326732673267324,1.325820141002104
2.7524752475247527,1.3273303430260208
2.7722772277227725,1.328830354319371
2.792079207920792,1.330315488010642
2.811881188118812,1.331781098080198
2.8316831683168315,1.3332225947499834
2.8514851485148514,1.334635459620232
2.8712871287128716,1.3360152605123734
2.891089108910891,1.3373576659802435
2.910891089108911,1.3386584594539115
2.9306930693069306,1.3399135529832757
2.9504950495049505,1.3411190005505618
2.9702970297029703,1.34227101092345
2.99009900990099,1.3433659600222665
3.00990099009901,1.3444004027771115
3.0297029702970297,1.3453710844520432
3.0495049504950495,1.3462749514154981
3.0693069306930694,1.3471091613373452
3.089108910891089,1.3478710927942499
3.108910891089109,1.3485583542664135
3.128712871287129,1.349168792509319
3.148514851485148,1.349700500285168
3.1683168316831685,1.3501518234396024
3.1881188118811883,1.3505213673091006
3.2079207920792077,1.3508080024458
3.227722772277228,1.3510108696460352
3.2475247524752473,1.3511293842696148
3.267326732673267,1.3511632398365871
3.2871287128712874,1.3511124108888708
3.3069306930693068,1.350977155103616
3.3267326732673266,1.3507580146455662
3.346534653465347,1.350455816745628
3.366336633663366,1.350071673492927
3.386138613861386,1.3496069808277202
3.4059405940594063,1.3490634167228068
3.4257425742574257,1.3484429385412502
3.4455445544554455,1.3477477795587196
3.4653465346534653,1.3469804446393736
3.485148514851485,1.3461437050546403
3.504950495049505,1.3452405924357902
3.5247524752475248,1.3442743918515434
3.5445544554455446,1.3432486340041285
3.564356435643564,1.3421670865383677
3.5841584158415842,1.341033744460745
3.603960396039604,1.3398528196673063
3.6237623762376234,1.3386287295822945
3.6435643564356437,1.3373660849122273
3.6633663366336635,1.3360696765235553
3.683168316831683,1.3347444614556385
3.702970297029703,1.3333955480852802
3.722772277227723,1.332028180463242
3.7425742574257423,1.3306477218482617
3.762376237623762,1.3292596374691328
3.7821782178217824,1.3278694765513215
3.801980198019802,1.326482853650207
3.8217821782178216,1.3251054293391948
3.841584158415842,1.3237428903075767
3.8613861386138613,1.3224009289292693
3.881188118811881,1.3210852223700613
3.9009900990099013,1.3198014113081151
3.9207920792079207,1.318555078348461
3.9405940594059405,1.3173517262187324
3.96039603960396,1.3161967558396572
3.98019801980198,1.3150954443693732
4.0,1.3140529233258509
4.01980198019802,1.3130741568961135
4.03960396039604,1.312163920545561
4.0594059405940595,1.3113267800428305
4.079207920792079,1.3105670710186617
4.099009900990099,1.3098888791778185
4.118811881188119,1.3092960212834814
4.138613861386139,1.3087920270326447
4.158415841584159,1.3083801219382678
4.178217821782178,1.3080632113309436
4.198019801980198,1.3078438655879978
4.217821782178218,1.3077243066916033
4.237623762376238,1.3077063962110793
4.257425742574258,1.30779162479539
4.2772277227722775,1.3079811032532436
4.297029702970297,1.3082755552874532
4.316831683168317,1.3086753119392243
4.336633663366336,1.3091803077862245
4.356435643564357,1.3097900789259507
4.376237623762377,1.3105037627630283
4.3960396039603955,1.3113200996062695
4.415841584158416,1.3122374360683113
4.435643564356436,1.3132537302479486
4.455445544554455,1.3143665586625193
4.475247524752476,1.315573124886038
4.4950495049504955,1.3168702698373025
4.514851485148514,1.3182544836515446
4.534653465346535,1.3197219190597351
4.554455445544555,1.3212684061908888
4.574257425742574,1.3228894687051589
4.594059405940594,1.3245803411591697
4.613861386138614,1.3263359874997536
4.633663366336633,1.328151120578209
4.653465346534653,1.3300202225742042
4.673267326732674,1.3319375662171091
4.693069306930693,1.333897236691441
4.712871287128713,1.3358931541138626
4.732673267326733,1.337919096470368
4.752475247524752,1.3399687229047854
4.772277227722772,1.3420355972524967
4.792079207920793,1.3441132117171484
4.811881188118812,1.346195010592334
4.8316831683168315,1.348274413935277
4.851485148514852,1.3503448411040118
4.871287128712871,1.3523997340758234
4.891089108910891,1.3544325804694162
4.910891089108912,1.3564369361995325
4.930693069306931,1.3584064476979814
4.9504950495049505,1.3603348736407577
4.97029702970297,1.3622161061262081
4.99009900990099,1.364044191254585
5.00990099009901,1.3658133490637407
5.02970297029703,1.3675179927812144
5.0495049504950495,1.3691527473562117
5.069306930693069,1.3707124672398188
5.089108910891089,1.3721922533847286
5.108910891089109,1.3735874694394359
5.128712871287129,1.3748937571141646
5.148514851485149,1.3761070506986433
5.1683168316831685,1.3772235907136712
5.188118811881188,1.3782399366800098
5.207920792079208,1.3791529789896704
5.227722772277227,1.3799599498655095
5.247524752475248,1.3806584333957104
5.267326732673268,1.381246374630023
5.2871287128712865,1.3817220877251222
5.306930693069307,1.3820842631256716
5.326732673267327,1.3823319737679993
5.346534653465346,1.3824646802922818
5.366336633663367,1.3824822352486212
5.3861386138613865,1.382384886281859
5.405940594059405,1.3821732782786393
5.425742574257426,1.3818484544597145
5.445544554455446,1.3814118563994646
5.465346534653465,1.380865322953669
5.485148514851486,1.3802110880759264
5.504950495049505,1.3794517775023374
5.524752475247524,1.378590404283804
5.544554455445545,1.3776303631445543
5.564356435643565,1.3765754236464023
5.584158415841584,1.375429722137517
5.603960396039604,1.3741977524660245
5.623762376237624,1.3728843554397832
5.643564356435643,1.3714947070147256
5.663366336633663,1.3700343051971913
5.683168316831684,1.368508955647878
5.702970297029703,1.3669247559785647
5.7227722772277225,1.3652880787368795
5.742574257425743,1.3636055530793192
5.762376237623762,1.3618840451381524
5.782178217821782,1.3601306370940283
5.801980198019803,1.3583526049739247
5.821782178217822,1.3565573952011654
5.841584158415841,1.3547525999336552
5.861386138613861,1.3529459312357115
5.881188118811881,1.351145194139189
5.900990099009901,1.3493582586603576
5.920792079207921,1.3475930308508033
5.9405940594059405,1.3458574229719489
5.96039603960396,1.3441593228955768
5.98019801980198,1.3425065628451114
6.0,1.3409068876042933
6.01980198019802,1.339367922332842
6.03960396039604,1.3378971401399777
6.0594059405940595,1.3365018295782545
6.079207920792079,1.3351890622298705
6.099009900990099,1.3339656605677654
6.118811881188119,1.3328381662804603
6.138613861386139,1.3318128092568189
6.158415841584159,1.3308954774307264
6.178217821782178,1.3300916876881488
6.198019801980198,1.3294065580393
6.217821782178218,1.3288447812562114
6.237623762376237,1.3284106001714597
6.257425742574258,1.328107784826521
6.2772277227722775,1.3279396116485205
6.297029702970296,1.3279088448219714
6.316831683168317,1.3280177200072985
6.336633663366337,1.328267930541507
6.356435643564356,1.328660616237172
6.376237623762377,1.3291963548756764
6.396039603960396,1.3298751564684523
6.415841584158415,1.3306964603371132
6.435643564356436,1.3316591350392872
6.455445544554456,1.3327614811432014
6.475247524752475,1.3340012368296978
6.495049504950495,1.335375586277104
6.514851485148515,1.3368811707612023
6.534653465346534,1.3385141023814346
6.554455445544554,1.3402699803040437
6.574257425742575,1.3421439093949719
6.594059405940594,1.3441305210987584
6.6138613861386135,1.3462239964059421
6.633663366336634,1.3484180907398515
6.653465346534653,1.3507061605841555
6.673267326732673,1.3530811916661951
6.693069306930694,1.3555358285063537
6.712871287128713,1.3580624051420949
6.732673267326732,1.3606529768350928
6.752475247524753,1.3632993525726442
6.772277227722772,1.365993128178188
6.792079207920792,1.368725719851964
6.811881188118813,1.3714883979700014
6.8316831683168315,1.3742723209779935
6.851485148514851,1.3770685692262954
6.871287128712871,1.379868178602243
6.891089108910891,1.382662173826995
6.910891089108911,1.3854416012949768
6.930693069306931,1.3881975613449755
6.9504950495049505,1.3909212398635764
6.97029702970297,1.393603939131757
6.99009900990099,1.396237107836564
7.00990099009901,1.3988123701794062
7.02970297029703,1.4013215540220714
7.0495049504950495,1.4037567180202946
7.069306930693069,1.4061101777028722
7.089108910891089,1.4083745304612976
7.108910891089109,1.4105426794217846
7.128712871287128,1.4126078561769548
7.148514851485149,1.4145636423596146
7.1683168316831685,1.4164039900449648
7.188118811881187,1.4181232409712223
7.207920792079208,1.4197161445710769
7.227722772277228,1.4211778748085815
7.247524752475247,1.4225040458171607
7.267326732673268,1.423690726335348
7.287128712871287,1.4247344529368542
7.306930693069306,1.4256322420510907
7.326732673267327,1.4263816007697667
7.346534653465347,1.4269805364333419
7.366336633663366,1.42742756498995
7.3861386138613865,1.4277217181170527
7.405940594059406,1.4278625490939583
7.425742574257425,1.4278501374108357
7.445544554455446,1.4276850920970567
7.465346534653466,1.4273685537488758
7.485148514851485,1.426902195233888
7.504950495049505,1.426288221046263
7.524752475247524,1.4255293652845347
7.544554455445544,1.4246288882205087
7.564356435643565,1.4235905714255788
7.584158415841584,1.4224187114185403
7.603960396039604,1.4211181117968763
7.623762376237624,1.4196940738120456
7.643564356435643,1.4181523853485902
7.663366336633663,1.416499308266065
7.683168316831684,1.414741564063507
7.702970297029703,1.4128863178271578
7.7227722772277225,1.4109411604242377
7.742574257425743,1.4089140889086735
7.762376237623762,1.4068134851087455
7.782178217821782,1.4046480923723945
7.801980198019803,1.4024269904523474
7.821782178217822,1.4001595685213089
7.841584158415841,1.3978554963176484
7.861386138613862,1.395524693432455
7.881188118811881,1.3931772967619778
7.900990099009901,1.390823626163759
7.92079207920792,1.3884741483703347
7.9405940594059405,1.3861394392320436
7.96039603960396,1.3838301443786718
7.980198019801979,1.3815569384102047
8.0,1.3793304827473014
8.01980198019802,1.3771613822942206
8.03960396039604,1.3750601410889562
8.05940594059406,1.3730371171378015
8.07920792079208,1.3711024766536188
8.099009900990099,1.369266147938463
8.118811881188119,1.3675377751715336
8.138613861386139,1.3659266723821446
8.158415841584159,1.3644417779034095
8.178217821782178,1.3630916096167796
8.198019801980198,1.361884221307403
8.217821782178218,1.3608271604578837
8.237623762376238,1.3599274278104296
8.257425742574258,1.3591914390262314
8.277227722772277,1.3586249887645716
8.297029702970297,1.3582332174932876
8.316831683168317,1.3580205813263955
8.336633663366337,1.3579908251639172
8.356435643564357,1.358146959384027
8.376237623762377,1.3584912403077267
8.396039603960396,1.3590251546230818
8.415841584158416,1.359749407919518
8.435643564356436,1.3606639174428714
8.455445544554456,1.3617678091412022
8.475247524752476,1.3630594190285021
8.495049504950495,1.3645362988509382
8.514851485148515,1.3661952259979508
8.534653465346535,1.3680322175595843
8.554455445544555,1.3700425483927012
8.574257425742575,1.3722207730222091
8.594059405940595,1.3745607511714333
8.613861386138613,1.3770556766861264
8.633663366336634,1.3796981095925824
8.653465346534654,1.3824800110102937
8.673267326732672,1.3853927806237307
8.693069306930694,1.3884272964081543
8.712871287128714,1.3915739562975729
8.732673267326732,1.3948227214821045
8.752475247524753,1.3981631610241865
8.772277227722773,1.4015844974901792
8.792079207920791,1.4050756533031041
8.811881188118813,1.408625297535927
8.831683168316832,1.4122218928794372
8.85148514851485,1.4158537425364641
8.871287128712872,1.4195090368127885
8.891089108910892,1.4231758991952805
8.91089108910891,1.4268424317272939
8.930693069306932,1.4304967595132434
8.950495049504951,1.4341270742032128
8.97029702970297,1.437721676329404
8.990099009900991,1.4412690163847683
9.00990099009901,1.4447577345520748
9.029702970297029,1.4481766990089318
9.04950495049505,1.4515150427497203
9.06930693069307,1.4547621988788866
9.089108910891088,1.4579079343439438
9.10891089108911,1.4609423820859972
9.12871287128713,1.4638560715970645
9.148514851485148,1.4666399578800469
9.16831683168317,1.4692854488148197
9.188118811881187,1.4717844309393289
9.207920792079207,1.4741292936581223
9.227722772277229,1.4763129518939788
9.247524752475247,1.478328867200224
9.267326732673267,1.4801710673514572
9.287128712871288,1.4818341644305957
9.306930693069306,1.4833133714289448
9.326732673267326,1.4846045173737472
9.346534653465348,1.4857040609954937
9.366336633663366,1.4866091029433992
9.386138613861386,1.4873173965543418
9.405940594059407,1.4878273571752763
9.425742574257425,1.4881380700352165
9.445544554455445,1.4882492966571905
9.465346534653467,1.4881614797952711
9.485148514851485,1.4878757468762485
9.504950495049505,1.4873939119192903
9.524752475247526,1.4867184759014012
9.544554455445544,1.4858526255302364
9.564356435643564,1.4848002303799244
9.584158415841586,1.4835658383398551
9.603960396039604,1.482154669320666
9.623762376237623,1.4805726071566065
9.643564356435645,1.4788261896384665
9.663366336633663,1.476922596607112
9.683168316831683,1.4748696360343516
9.702970297029704,1.4726757280148937
9.722772277227723,1.4703498865917028
9.742574257425742,1.4679016993368683
9.762376237623764,1.4653413046106178
9.782178217821782,1.4626793664243307
9.801980198019802,1.4599270468372476
9.821782178217823,1.457095975823398
9.841584158415841,1.454198218553634
9.861386138613861,1.4512462400489416
9.881188118811881,1.4482528671744705
9.900990099009901,1.4452312479605913
9.92079207920792,1.4421948082558531
9.94059405940594,1.4391572057395605
9.96039603960396,1.436132281345973
9.98019801980198,1.4331340081809045
10.0,1.4301764380413393
10.01980198019802,1.4272736456827122
10.03960396039604,1.4244396710133178
10.05940594059406,1.4216884594328607
10.07920792079208,1.4190338005704426
10.099009900990099,1.4164892657165418
10.118811881188119,1.4140681442822038
10.138613861386139,1.4117833796568637
10.158415841584159,1.4096475048718813
10.178217821782178,1.4076725785104391
10.198019801980198,1.4058701213331664
10.217821782178218,1.4042510541133129
10.237623762376238,1.4028256371936585
10.257425742574258,1.401603412288521
10.277227722772277,1.4005931470581832
10.297029702970297,1.3998027829783133
10.316831683168317,1.3992393870137303
10.336633663366337,1.3989091075832958
10.356435643564357,1.3988171352712808
10.376237623762377,1.3989676687004122
10.396039603960396,1.3993638859331434
10.415841584158416,1.4000079217119363
10.435643564356436,1.4009008507869372
10.455445544554454,1.4020426775120307
10.475247524752476,1.4034323318191222
10.495049504950495,1.4050676716073203
10.514851485148514,1.4069454915099788
10.534653465346535,1.4090615379299292
10.554455445544555,1.4114105301637165
10.574257425742573,1.4139861873700497
10.594059405940595,1.4167812610778396
10.613861386138614,1.4197875728761404
10.633663366336632,1.4229960568832383
10.653465346534654,1.4263968065545394
10.673267326732674,1.429979125360879
