Frequency (Hz),Amplitude
0.0,0.11974140182816462
0.01993355481727575,0.13713917966418337
0.0398671096345515,0.17943478505138247
0.059800664451827246,0.23335345989119177
0.079734219269103,0.2923861502789481
0.09966777408637874,0.3538091783437642
0.11960132890365449,0.4163770784680151
0.13953488372093023,0.47944228237396064
0.159468438538206,0.5426245817777597
0.17940199335548174,0.6056754552230305
0.19933554817275748,0.6684168134054614
0.21926910299003324,0.7307109439517591
0.23920265780730898,0.7924447017532069
0.25913621262458475,0.8535206987848966
0.27906976744186046,0.9138521539320914
0.29900332225913623,0.9733597605868789
0.318936877076412,1.0319697181257836
0.3388704318936877,1.0896124614042648
0.3588039867109635,1.1462218232520365
0.37873754152823924,1.2017344735899027
0.39867109634551495,1.2560895398652354
0.4186046511627907,1.3092283490357834
0.4385382059800665,1.3610942526422891
0.4584717607973422,1.4116325096446924
0.47840531561461797,1.4607902099931642
0.49833887043189373,1.5085162272631065
0.5182724252491695,1.5547611922144358
0.5382059800664452,1.5994774815056496
0.5581395348837209,1.6426192174119003
0.5780730897009968,1.6841422755183915
0.5980066445182725,1.7240042981504113
0.6179401993355482,1.762164711864588
0.637873754152824,1.7985847477326358
0.6578073089700996,1.8332274634462329
0.6777408637873754,1.8660577664915583
0.6976744186046512,1.8970424378060013
0.717607973421927,1.9261501554537246
0.7375415282392027,1.9533515179509722
0.7574750830564785,1.9786190669452264
0.7774086378737541,2.001927309008438
0.7973421926910299,2.023252736349383
0.8172757475083057,2.04257384628538
0.8372093023255814,2.0598711593417227
0.8571428571428572,2.075127235870474
0.877076411960133,2.0883266910987883
0.8970099667774087,2.0994562085328035
0.9169435215946844,2.1085045516562433
0.9368770764119602,2.1154625738741646
0.9568106312292359,2.1203232266623475
0.9767441860465116,2.1230815658912414
0.9966777408637875,2.123734756301524
1.0166112956810631,2.12228207411561
1.036544850498339,2.1187249077763224
1.0564784053156147,2.1130667568106234
1.0764119601328903,2.1053132288231855
1.0963455149501662,2.095472034630971
1.1162790697674418,2.0835529815576272
1.1362126245847177,2.0695679649134737
1.1561461794019936,2.0535309576956347
1.176079734219269,2.0354579985518386
1.196013289036545,2.0153671780618576
1.2159468438538206,1.9932786234029547
1.2358803986710964,1.969214481479644
1.255813953488372,1.9431989006154147
1.275747508305648,1.9152580109244595
1.2956810631229239,1.8854199035068877
1.3156146179401993,1.8537146086419876
1.3355481727574752,1.8201740731935052
1.3554817275747508,1.784832137490308
1.3754152823920267,1.7477245120093567
1.3953488372093024,1.708888754269744
1.4152823920265782,1.66836424645324
1.435215946843854,1.6261921744074816
1.4551495016611296,1.5824155088748875
1.4750830564784054,1.537078990041779
1.495016611295681,1.4902291168440298
1.514950166112957,1.4419141429352604
1.5348837209302328,1.3921840818772857
1.5548172757475083,1.3410907250346078
1.5747508305647842,1.288687676971777
1.5946843853820598,1.235030415064647
1.6146179401993357,1.1801763828552685
1.6345514950166113,1.1241851309105362
1.6544850498338872,1.0671185254162043
1.6744186046511629,1.0090410548463005
1.6943521594684385,0.950020281208866
1.7142857142857144,0.8901275088741639
1.73421926910299,0.8294387887198542
1.754152823920266,0.7680364532532881
1.7740863787375416,0.7060115190965941
1.7940199335548175,0.6434675579087178
1.8139534883720931,0.5805271583101408
1.8338870431893688,0.5173431849843015
1.8538205980066447,0.4541194351207621
1.8737541528239203,0.3911509680802922
1.893687707641196,0.3289089620538601
1.9136212624584719,0.2682357473552959
1.9335548172757475,0.21083825752539065
1.9534883720930232,0.16062136886900044
1.9734219269102993,0.12675046798511316
1.993355481727575,0.1236632152056132
2.0132890365448506,0.15324744843591734
2.0332225913621262,0.20152278236740004
2.0531561461794023,0.2580817673151448
2.073089700996678,0.318382577285089
2.0930232558139537,0.3804717428629578
2.1129568106312293,0.44340638886448425
2.132890365448505,0.5066699373021184
2.1528239202657806,0.5699447519165521
2.1727574750830567,0.6330148284636417
2.1926910299003324,0.695720203055223
2.212624584717608,0.7579338782579167
2.2325581395348837,0.8195493706089024
2.25249169435216,0.8804736224967861
2.2724252491694354,0.9406227851620189
2.292358803986711,0.9999196162829542
2.312292358803987,1.058291824886241
2.332225913621263,1.1156709928309145
2.352159468438538,1.1719918585730391
2.3720930232558137,1.2271918349778421
2.39202657807309,1.2812106820553986
2.4119601328903655,1.333990284443869
2.431893687707641,1.3854745010324754
2.4518272425249172,1.435609065057734
2.471760797342193,1.484341519986224
2.4916943521594686,1.53162118104115
2.511627906976744,1.577399115251274
2.5315614617940203,1.6216281349413477
2.551495016611296,1.664262800987532
2.5714285714285716,1.7052594331394937
2.5913621262458477,1.7445761254052943
2.611295681063123,1.7821727649907135
2.6312292358803986,1.8180110536463427
2.6511627906976742,1.8520545305402316
2.6710963455149503,1.8842685959704197
2.691029900332226,1.9146205353797348
2.7109634551495017,1.9430795432464008
2.7308970099667778,1.9696167465103775
2.7508305647840534,1.9942052272609732
2.770764119601329,2.0168200444633597
2.7906976744186047,2.0374382545422285
2.810631229235881,2.056038930673356
2.8305647840531565,2.0726031806601646
2.850498338870432,2.087114163293482
2.870431893687708,2.0995571031105875
2.8903654485049834,2.109919303484026
2.910299003322259,2.118190157983606
2.9302325581395348,2.1243611599652796
2.950166112956811,2.1284259103505705
2.9700996677740865,2.130380123568185
2.990033222591362,2.130221631637688
3.0099667774086383,2.1279503863819027
3.029900332225914,2.1235684597619318
3.0498338870431896,2.1170800423353513
3.0697674418604657,2.1084914398449883
3.089700996677741,2.0978110679526916
3.1096345514950166,2.085049445140006
3.129568106312292,2.0702191838056785
3.1495016611295683,2.0533349795985787
3.169435215946844,2.0344135990350565
3.1893687707641196,2.013473865460586
3.2093023255813957,1.9905366434295022
3.2292358803986714,1.965624821592022
3.249169435215947,1.938763294197007
3.2691029900332227,1.90997894134202
3.289036544850499,1.8793006081304946
3.3089700996677744,1.8467590829318663
3.32890365448505,1.812387074984642
3.3488372093023258,1.776219191639426
3.3687707641196014,1.7382919156120027
3.388704318936877,1.6986435827109034
3.4086378737541527,1.6573143606279457
3.428571428571429,1.6143462295438493
3.4485049833887045,1.5697829655202251
3.46843853820598,1.5236701279445084
3.4883720930232562,1.4760550526984426
3.508305647840532,1.4269868532779875
3.5282392026578075,1.376516432873587
3.548172757475083,1.3246965115255847
3.5681063122923593,1.2715816740607713
3.588039867109635,1.2172284468403036
3.60797342192691,1.1616954147998246
3.6279069767441863,1.1050433954820216
3.647840531561462,1.0473356948124695
3.6677740863787376,0.9886384820635624
3.6877076411960132,0.9290213419509992
3.7076411960132893,0.868558095813302
3.727574750830565,0.8073280419356482
3.7475083056478407,0.7454178677579594
3.7674418604651168,0.682924675100324
3.787375415282392,0.6199609203063652
3.807308970099668,0.5566627966618971
3.8272425249169437,0.49320512938179045
3.8471760797342194,0.4298293536378697
3.867109634551495,0.36689969350406487
3.887043189368771,0.3050253092250444
3.9069767441860463,0.24535124529543134
3.9269102990033224,0.19031521011945846
3.9468438538205985,0.1456271204469602
3.9667774086378738,0.12337998531916396
3.98671096345515,0.13525281555270416
4.0066445182724255,0.1743866793771045
4.026578073089701,0.22700253110071278
4.046511627906977,0.2856066689775246
4.0664451827242525,0.3470126876052877
4.086378737541528,0.4097792457146313
4.106312292358805,0.47316947320860775
4.1262458471760795,0.5367583569033082
4.146179401993356,0.6002728312787432
4.166112956810632,0.6635202892466439
4.186046511627907,0.726353830676604
4.205980066445183,0.7886541313626556
4.225913621262459,0.8503194095520822
4.245847176079734,0.9112595949837422
4.26578073089701,0.9713927995520715
4.2857142857142865,1.0306431079382845
4.305647840531561,1.088939155872108
4.325581395348838,1.1462131948227845
4.345514950166113,1.2024004662413648
4.365448504983389,1.2574387780235419
4.385382059800665,1.3112682161406504
4.40531561461794,1.3638309484456068
4.425249169435216,1.4150710924339855
4.445182724252492,1.4649346280411306
4.465116279069767,1.513369342543943
4.485049833887043,1.5603247985712836
4.50498338870432,1.6057523188617515
4.524916943521594,1.6496049832018713
4.544850498338871,1.6918376342201664
4.5647840531561465,1.7324068895836966
4.584717607973422,1.7712711587651233
4.604651162790698,1.8083906629952495
4.624584717607974,1.8437274573425084
4.644518272425249,1.877245454101838
4.664451827242526,1.908910446854913
4.6843853820598005,1.9386901346989636
4.704318936877076,1.9665541462448024
4.724252491694353,1.992474063063536
4.7441860465116275,2.0164234423231857
4.764119601328904,2.0383778384045086
4.78405315614618,2.05831482332371
4.803986710963455,2.076214005820117
4.823920265780731,2.0920570489916757
4.8438538205980075,2.1058276863815344
4.863787375415282,2.1175117364355884
4.883720930232559,2.127097115265127
4.9036544850498345,2.134573847660827
4.92358803986711,2.1399340763146153
4.943521594684386,2.143172069215597
4.963455149501661,2.1442842251941885
4.983388704318937,2.14326907759671
5.003322259136213,2.1401272960797604
5.023255813953488,2.1348616865209187
5.043189368770764,2.1274771890493227
5.063122923588041,2.117980874206771
5.083056478405315,2.1063819372575647
5.102990033222592,2.092691690673301
5.122923588039868,2.0769235548273786
5.142857142857143,2.059093046944039
5.162790697674419,2.0392177683575565
5.182724252491695,2.0173173901502763
5.20265780730897,1.9934136372531248
5.222591362126246,1.9675302711104903
5.242524916943522,1.939693071033009
5.262458471760797,1.9099298143886823
5.282392026578074,1.878270255815922
5.3023255813953485,1.8447461056835248
5.322259136212625,1.8093910080751423
5.342192691029901,1.7722405186430117
5.362126245847176,1.7333320827620213
5.382059800664452,1.6927050145281748
5.4019933554817285,1.6504004772935144
5.421926910299003,1.6064614666269232
5.44186046511628,1.5609327968543651
5.4617940199335555,1.5138610926913691
5.48172757475083,1.4652947879729172
5.501661129568107,1.4152841341705191
5.5215946843853825,1.363881222348925
5.541528239202658,1.3111400235883717
5.561461794019934,1.257116454886499
5.5813953488372094,1.2018684804777862
5.601328903654485,1.1454562628838978
5.621262458471762,1.0879423846801453
5.641196013289036,1.0293921723483115
5.661129568106313,0.9698741701235934
5.681063122923589,0.9094608387452128
5.700996677740864,0.848229599356821
5.72093023255814,0.7862644213301605
5.740863787375416,0.7236582936492344
5.760797342192691,0.6605171823680314
5.780730897009967,0.5969665897803752
5.800664451827243,0.533162885312979
5.820598006644518,0.4693138759321767
5.840531561461795,0.4057184394174115
5.8604651162790695,0.34284850401274203
5.880398671096346,0.2815332784636945
5.900332225913622,0.2234117271024274
5.920265780730897,0.172112490451754
5.940199335548173,0.1359297080644251
5.960132890365449,0.1285501331146189
5.980066445182724,0.15420991118042263
6.0,0.20054963699346698
6.0199335548172765,0.25648302947072626
6.039867109634551,0.31681942106886213
6.059800664451828,0.37928996051525865
6.0797342192691035,0.4428033229619764
6.099667774086379,0.5067679113261909
6.119601328903655,0.5708249303103851
6.139534883720931,0.6347340199693899
6.159468438538206,0.6983198039937462
6.179401993355482,0.7614449310541422
6.1993355481727574,0.8239955768628089
6.219269102990033,0.8858732181388084
6.23920265780731,0.9469897518862403
6.259136212624584,1.0072644897703016
6.279069767441861,1.0666222493432682
6.299003322259137,1.1249921110207532
6.318936877076412,1.1823065923451492
6.338870431893688,1.2385010912534231
6.3588039867109645,1.2935135070795007
6.378737541528239,1.3472839815465854
6.398671096345516,1.3997547223027023
6.418604651162791,1.4508698841685277
6.438538205980066,1.5005754912960307
6.458471760797343,1.548819388657007
6.4784053156146175,1.595551214742784
6.498338870431894,1.6407223896931409
6.51827242524917,1.6842861146765433
6.538205980066445,1.7261973794611434
6.558139534883721,1.7664129759059264
6.578073089700998,1.8048915156667291
6.598006644518272,1.8415934508219296
6.617940199335549,1.876481096423159
6.6378737541528245,1.9095186541993716
6.6578073089701,1.9406722368096216
6.677740863787376,1.969909892166442
6.6976744186046515,1.997201627448309
6.717607973421927,2.022519432494393
6.737541528239203,2.0458373023330094
6.7574750830564785,2.0671312586409156
6.777408637873754,2.086379369967206
6.797342192691031,2.103561770584664
6.8172757475083055,2.1186606778554675
6.837209302325582,2.131660408017604
6.857142857142858,2.142547390314783
6.877076411960133,2.1513101794064697
6.897009966777409,2.157939466006531
6.9169435215946855,2.162428085709533
6.93687707641196,2.1647710259728496
6.956810631229236,2.1649654312314226
6.9767441860465125,2.16301060612984
6.996677740863787,2.1589080168639665
7.016611295681064,2.1526612906319174
7.036544850498339,2.144276213201476
7.056478405315615,2.133760724608965
7.076411960132891,2.12112491301262
7.096345514950166,2.106381006732477
7.116279069767442,2.089543364518512
7.136212624584719,2.070628464099928
7.156146179401993,2.0496548890811845
7.17607973421927,2.026643314265285
7.196013289036546,2.001616489502613
7.21594684385382,1.9745992221848148
7.235880398671097,1.9456183585293751
7.2558139534883725,1.9147027638323901
7.275747508305648,1.8818833019072108
7.295681063122924,1.8471928139767395
7.3156146179402,1.8106660973512476
7.335548172757475,1.772339884305702
7.355481727574752,1.7322528216771458
7.3754152823920265,1.6904454518419214
7.395348837209303,1.646960195917033
7.415282392026579,1.601841340275803
7.435215946843854,1.555135027800092
7.45514950166113,1.5068892557443225
7.475083056478406,1.4571538827116217
7.495016611295681,1.405980648116069
7.514950166112956,1.3534232087416087
7.5348837209302335,1.2995371987841882
7.554817275747508,1.2443803223525776
7.574750830564784,1.1880124912409438
7.5946843853820605,1.130496026576536
7.614617940199336,1.0718959518564843
7.634551495016611,1.0122804188968377
7.6544850498338874,0.9517213307699437
7.674418604651163,0.8902952630781641
7.694352159468439,0.8280848483322307
7.714285714285715,0.7651808996957419
7.73421926910299,0.7016857536931558
7.754152823920266,0.6377186980281172
7.774086378737542,0.5734251209909379
7.794019933554818,0.5089926388261051
7.813953488372093,0.4446810785740005
7.83388704318937,0.38088186419874676
7.853820598006645,0.318244703292023
7.8737541528239205,0.2579710872118416
7.893687707641197,0.20254603695680715
7.913621262458472,0.15753179900350606
7.9335548172757475,0.1341464484600073
7.953488372093024,0.14351521308066736
7.9734219269103,0.1806031558213749
7.9933554817275745,0.23241682557051913
8.013289036544851,0.2910655049986346
8.033222591362128,0.3529976037222574
8.053156146179402,0.4165700670617328
8.073089700996679,0.4809381272466979
8.093023255813954,0.5456161219384492
8.11295681063123,0.6102946854324689
8.132890365448505,0.6747581217595044
8.152823920265782,0.7388440013890133
8.172757475083056,0.8024220104241926
8.192691029900331,0.8653822219224624
8.21262458471761,0.9276282700430316
8.232558139534884,0.9890732135300752
8.252491694352159,1.049636942896046
8.272425249169435,1.1092445092033145
8.292358803986712,1.167825022170169
8.312292358803987,1.225310910642405
8.332225913621263,1.2816374198232134
8.352159468438538,1.3367422667912676
8.372093023255815,1.3905654039987823
8.392026578073091,1.4430488577360476
8.411960132890366,1.4941366194356405
8.43189368770764,1.543774574698676
8.451827242524917,1.5919104595302127
8.471760797342194,1.6384938363537864
8.491694352159469,1.6834760844742265
8.511627906976745,1.7268104011097132
8.53156146179402,1.7684518101338826
8.551495016611296,1.8083571763935047
8.571428571428573,1.8464852239902094
8.591362126245848,1.8827965572956664
8.611295681063122,1.9172536837508218
8.6312292358804,1.949821037709222
8.651162790697676,1.9804650047422432
8.67109634551495,2.009153945944046
8.691029900332227,2.0358582218664325
8.710963455149502,2.0605502157848816
8.730897009966778,2.083204356053554
8.750830564784053,2.103797137350894
8.77076411960133,2.122307140653059
8.790697674418604,2.1387150518009252
8.81063122923588,2.153003678549819
8.830564784053157,2.1651579660104323
8.850498338870432,2.1751650104055047
8.870431893687707,2.1830140710809194
8.890365448504983,2.188696580721618
8.91029900332226,2.192206153733358
8.930232558139535,2.1935385927610214
8.950166112956811,2.192691893322877
8.970099667774086,2.189666246548485
8.990033222591363,2.1844640400162123
9.00996677740864,2.1770898566941317
9.029900332225914,2.167550471996426
9.049833887043189,2.1558548489761167
9.069767441860467,2.1420141316840127
9.089700996677742,2.1260416367341093
9.109634551495017,2.1079528431270864
9.129568106312293,2.0877653803965592
9.14950166112957,2.0654990151581343
9.169435215946844,2.0411756361591307
9.189368770764121,2.0148192379486165
9.209302325581396,1.9864559033135432
9.22923588039867,1.9561137846589507
9.249169435215949,1.9238230845503033
9.269102990033224,1.8896160356861786
9.289036544850498,1.8535268806331173
9.308970099667773,1.8155918517357383
9.328903654485051,1.7758491517203527
9.348837209302326,1.7343389356471721
9.368770764119601,1.691103295046286
9.388704318936878,1.6461862453121188
9.408637873754152,1.599633717752633
9.428571428571429,1.551493558125638
9.448504983388705,1.5018155340936141
9.46843853820598,1.4506513548598379
9.488372093023255,1.3980547074185532
9.508305647840533,1.3440813155196085
9.528239202657808,1.2887890298610887
9.548172757475083,1.2322379615702974
9.56810631229236,1.1744906763364789
9.588039867109636,1.1156124746379248
9.60797342192691,1.0556717960674047
9.627906976744187,0.9947408057345114
9.647840531561462,0.9328962532818869
9.667774086378738,0.8702207496007323
9.687707641196015,0.8068047005608844
9.70764119601329,0.7427493055219752
9.727574750830565,0.6781713413566829
9.747508305647841,0.6132110600379888
9.767441860465118,0.5480457658916632
9.787375415282392,0.48291430695700105
9.807308970099669,0.4181638351151091
9.827242524916944,0.35434519948100374
9.84717607973422,0.29242256602740646
9.867109634551497,0.23426840636622917
9.887043189368772,0.18386034122665004
9.906976744186046,0.14957831611953595
9.926910299003321,0.14368127206555004
9.9468438538206,0.16921389215703586
9.966777408637874,0.21521807498040116
9.986710963455149,0.27136707076020666
10.006644518272426,0.33241239093830094
10.026578073089702,0.3959233317511023
10.046511627906977,0.46069195785938916
10.066445182724253,0.526052835044162
10.086378737541528,0.5916002783068043
10.106312292358805,0.6570631108679437
10.126245847176081,0.7222448381251312
10.146179401993356,0.7869930123036575
10.16611295681063,0.8511825730487739
10.186046511627907,0.91470631388067
10.205980066445184,0.9774691864756696
10.225913621262459,1.0393847723303973
10.245847176079735,1.1003730298515255
10.26578073089701,1.160358819367059
10.285714285714286,1.2192709177219714
10.305647840531563,1.2770413495896131
10.325581395348838,1.3336049286901235
10.345514950166113,1.388898941123372
10.36544850498339,1.4428629267345818
10.385382059800666,1.4954385292144232
10.40531561461794,1.5465693950703512
10.425249169435217,1.5962011077551868
10.445182724252492,1.6442811473252514
10.465116279069768,1.690758868763718
10.485049833887045,1.7355854940042763
10.50498338870432,1.7787141140159748
10.524916943521594,1.820099698247554
10.544850498338871,1.8596991094021174
10.564784053156147,1.8974711220007692
10.584717607973422,1.9333764435516982
10.604651162790697,1.9673777374069679
10.624584717607974,1.9994396465884243
10.64451827242525,2.0295288180147937
10.664451827242525,2.0576139266775963
10.684385382059801,2.0836656994022933
10.704318936877076,2.1076569379005714
