Time (s),Filtered Signal
0.0,-0.009318036430431907
0.0334075723830735,0.0019522963584170955
0.066815144766147,0.01148599913150119
0.1002227171492205,0.01783267030515594
0.133630289532294,0.02063797932802263
0.1670378619153675,0.021213582214541074
0.200445434298441,0.02273665205221502
0.23385300668151449,0.02961133666507908
0.267260579064588,0.04580040205456481
0.3006681514476615,0.07261007857597292
0.334075723830735,0.1070885906166323
0.3674832962138085,0.14227025982108527
0.400890868596882,0.1696487454305615
0.4342984409799555,0.1828671223922274
0.46770601336302897,0.18058878942260218
0.5011135857461025,0.16669478896855452
0.534521158129176,0.14742967201870838
0.5679287305122495,0.1270687027529655
0.601336302895323,0.10484856493901279
0.6347438752783965,0.07541632560664399
0.66815144766147,0.033027601468839346
0.7015590200445435,-0.02271166499546323
0.734966592427617,-0.0831168797140172
0.7683741648106905,-0.13156612571515797
0.801781737193764,-0.14982162476730107
0.8351893095768375,-0.12680806550822712
0.868596881959911,-0.06537434310464266
0.9020044543429845,0.016768474146317568
0.9354120267260579,0.09290060113883848
0.9688195991091315,0.1374342424641616
1.002227171492205,0.13567115691073106
1.0356347438752784,0.08880973700470453
1.069042316258352,0.012321649269004309
1.1024498886414256,-0.07098901634077656
1.135857461024499,-0.13974172930262105
1.1692650334075725,-0.18080961580831234
1.202672605790646,-0.19197701074167658
1.2360801781737194,-0.18035141492255716
1.269487750556793,-0.15814395658824193
1.3028953229398665,-0.13797681364711514
1.33630289532294,-0.12933866645564743
1.3697104677060135,-0.13676577967069795
1.403118040089087,-0.1594580763316174
1.4365256124721606,-0.19175336335503887
1.469933184855234,-0.22413329003387175
1.5033407572383075,-0.24482498985072262
1.536748329621381,-0.24215928390711666
1.5701559020044544,-0.20750162209321943
1.603563474387528,-0.1380252989219144
1.6369710467706016,-0.038288550066352574
1.670378619153675,0.0801810372222129
1.7037861915367485,0.20135034292924678
1.737193763919822,0.30839762967336254
1.7706013363028954,0.3874033311674733
1.804008908685969,0.42987256141800306
1.8374164810690425,0.4335801299541307
1.8708240534521159,0.40195029860803366
1.9042316258351895,0.3425897753006231
1.937639198218263,0.2655536512490741
1.9710467706013366,0.18163773969375532
2.00445434298441,0.10077784218651775
2.0378619153674835,0.030654289814501242
2.071269487750557,-0.02426733332169363
2.1046770601336307,-0.0630096821923642
2.138084632516704,-0.08760422070131142
2.1714922048997773,-0.10204138215039579
2.204899777282851,-0.11095594875713133
2.2383073496659245,-0.11830653994946634
2.271714922048998,-0.1262295138131606
2.3051224944320716,-0.13428428236275453
2.338530066815145,-0.13942601413552727
2.3719376391982183,-0.13702495296450973
2.405345211581292,-0.1229020096439966
2.4387527839643655,-0.09573296432063257
2.472160356347439,-0.05866382942365406
2.5055679287305126,-0.019033591160017564
2.538975501113586,0.0141071949541509
2.5723830734966593,0.03378478293107293
2.605790645879733,0.038369286962491374
2.6391982182628064,0.03248381985527328
2.67260579064588,0.02478834587206024
2.7060133630289536,0.02352360708617818
2.739420935412027,0.03203686089471947
2.7728285077951007,0.04672686649490066
2.806236080178174,0.058703459339956306
2.8396436525612474,0.05847116708345575
2.873051224944321,0.04116925902173124
2.9064587973273945,0.009388679380464424
2.939866369710468,-0.028217586986518675
2.9732739420935417,-0.061939464096627726
3.006681514476615,-0.08680562886843042
3.0400890868596884,-0.105640760507544
3.073496659242762,-0.12725171254773845
3.1069042316258355,-0.1604212882175939
3.140311804008909,-0.20700171833812225
3.1737193763919826,-0.25823213680107326
3.207126948775056,-0.29686418747863375
3.2405345211581293,-0.3045372287341271
3.273942093541203,-0.27080059251613103
3.3073496659242765,-0.19893211350639048
3.34075723830735,-0.10504278408772971
3.3741648106904236,-0.010352077122702962
3.407572383073497,0.0696867432517021
3.4409799554565703,0.13356598309395232
3.474387527839644,0.1942218706665121
3.5077951002227175,0.27066897139959367
3.541202672605791,0.3745697543680475
3.5746102449888646,0.4989861181648465
3.608017817371938,0.6162553862591338
3.6414253897550113,0.6875583674131849
3.674832962138085,0.6803468774233629
3.7082405345211584,0.5848693776563813
3.7416481069042318,0.42061639781437443
3.7750556792873056,0.22832867014335545
3.808463251670379,0.0509933485145166
3.8418708240534527,-0.08626790754431932
3.875278396436526,-0.18626628940989376
3.9086859688195994,-0.2737687741398784
3.942093541202673,-0.3764483623200887
3.9755011135857465,-0.5034441575974504
4.00890868596882,-0.6340531028188265
4.042316258351893,-0.7237603547988505
4.075723830734967,-0.725260911572107
4.109131403118041,-0.6137257026954647
4.142538975501114,-0.40300657563486264
4.1759465478841875,-0.14407455415281142
4.209354120267261,0.09390240641986275
4.242761692650334,0.25077410453526777
4.276169265033408,0.29810367257816955
4.309576837416482,0.2473310486343015
4.342984409799555,0.14086207293000402
4.3763919821826285,0.03159698865122791
4.409799554565702,-0.03892399149219184
4.443207126948775,-0.05417617304819927
4.476614699331849,-0.02347169384349735
4.510022271714923,0.028270247764024717
4.543429844097996,0.07532922090086189
4.5768374164810695,0.10307031669249692
4.610244988864143,0.1120105501535548
4.643652561247216,0.11362267376903802
4.67706013363029,0.12139189806202935
4.710467706013364,0.14232048124140415
4.743875278396437,0.17303632714544762
4.77728285077951,0.20180868884688397
4.810690423162584,0.21473020377202262
4.844097995545657,0.20255722123175943
4.877505567928731,0.16484438105831886
4.910913140311805,0.10969538223111026
4.944320712694878,0.04966070272943321
4.977728285077951,-0.004014767143921015
5.011135857461025,-0.0460681819196782
5.044543429844098,-0.07874791001965085
5.077951002227172,-0.10956363651133941
5.111358574610246,-0.1462789263379447
5.144766146993319,-0.19144411116169385
5.178173719376392,-0.23915333822559265
5.211581291759466,-0.2759198272532315
5.244988864142539,-0.28575799749859815
5.278396436525613,-0.25745441702759986
5.311804008908687,-0.19065442403577149
5.34521158129176,-0.09763676938181852
5.378619153674833,0.0004325260475241496
5.412026726057907,0.08127341191049557
5.445434298440981,0.12974803779488414
5.478841870824054,0.14281206624058868
5.512249443207128,0.12909159651059868
5.545657015590201,0.10373759661897028
5.579064587973274,0.08143515105780405
5.612472160356348,0.07101825658003062
5.645879732739422,0.07388013573383874
5.679287305122495,0.0861023302166038
5.712694877505569,0.1022746478934439
5.746102449888642,0.11840659258623952
5.779510022271715,0.13236174916123722
5.812917594654789,0.1421501364873473
5.846325167037863,0.14395052757751126
5.879732739420936,0.13191914249428568
5.91314031180401,0.10056367695278663
5.946547884187083,0.04856529336607659
5.979955456570156,-0.018328339715546954
6.01336302895323,-0.08748302891464328
6.046770601336304,-0.1431497528318018
6.080178173719377,-0.17231491252717576
6.1135857461024505,-0.16990376995965134
6.146993318485524,-0.1409022017448609
6.180400890868597,-0.09850374536014482
6.213808463251671,-0.05923514388630293
6.247216035634745,-0.037176852747444
6.280623608017818,-0.039438802298021144
6.3140311804008915,-0.0642334842706189
6.347438752783965,-0.1018259917565432
6.380846325167038,-0.13782045555651887
6.414253897550112,-0.15776718452719873
6.447661469933186,-0.15180372022298108
6.481069042316259,-0.11791709917103912
6.5144766146993325,-0.06261229572609968
6.547884187082406,0.001478200965402894
6.581291759465479,0.06028293390537699
6.614699331848553,0.10335552245424727
6.648106904231627,0.12703187588921233
6.6815144766147,0.13423832647515171
6.7149220489977735,0.13122216776785076
6.748329621380847,0.1231326834368459
6.78173719376392,0.11101218821590503
6.815144766146994,0.09196500628649494
6.848552338530068,0.0624644881377343
6.881959910913141,0.0228989042618002
6.915367483296214,-0.019452036947087543
6.948775055679288,-0.051234460625909264
6.982182628062361,-0.057965932251205554
7.015590200445435,-0.031128406226015273
7.048997772828509,0.026101576762647603
7.082405345211582,0.09779578416804453
7.115812917594655,0.1601710088865125
7.149220489977729,0.19077506519985515
7.182628062360802,0.17794888441768625
7.216035634743876,0.1260947024273385
7.24944320712695,0.054061797268061165
7.282850779510023,-0.012836686167677896
7.316258351893096,-0.05361418548661834
7.34966592427617,-0.06028651100077418
7.383073496659243,-0.040544196611754395
7.416481069042317,-0.013446009716758174
7.449888641425391,-0.00045371698293390224
7.4832962138084635,-0.01611720680376862
7.516703786191537,-0.06246693506724028
7.550111358574611,-0.12901085685825242
7.583518930957685,-0.1974967524139019
7.616926503340758,-0.24874689145578555
7.650334075723832,-0.2686313267161501
7.683741648106905,-0.2513428390651427
7.717149220489978,-0.19967110501430627
7.750556792873052,-0.12308949084710784
7.783964365256126,-0.0348180559718817
7.817371937639199,0.05119872307579195
7.850779510022273,0.12284570253934063
7.884187082405346,0.17162812170549646
7.917594654788419,0.1935269940244319
7.951002227171493,0.18886904707215774
7.984409799554567,0.16137623999766232
8.01781737193764,0.11680861131069387
8.051224944320714,0.06174514591205117
8.084632516703786,0.0029329966422254714
8.118040089086861,-0.0527283205470104
8.151447661469934,-0.09795440153884388
8.184855233853007,-0.12525413893254211
8.218262806236082,-0.1280443377378811
8.251670378619155,-0.10268381354807837
8.285077951002227,-0.05072666126188396
8.318485523385302,0.01973039612342506
8.351893095768375,0.09461441166966926
8.385300668151448,0.15671222844158686
8.418708240534523,0.19022592259404442
8.452115812917596,0.18571449155921949
8.485523385300668,0.14372018125802197
8.518930957683743,0.07556575876169278
8.552338530066816,0.0005691455940713575
8.585746102449889,-0.05986361629846415
8.619153674832964,-0.08946373590176744
8.652561247216036,-0.08293065198505897
8.68596881959911,-0.047793149239404295
8.719376391982184,-0.0011780875977257749
8.752783964365257,0.037321110933418326
8.78619153674833,0.053466784436428
8.819599109131405,0.04322124773264748
8.853006681514477,0.012517607731433934
8.88641425389755,-0.02733142505062463
8.919821826280625,-0.06551934551145493
8.953229398663698,-0.09543779328203017
8.98663697104677,-0.11446440444260067
9.020044543429846,-0.12093576908866073
9.053452115812918,-0.11134537212937652
9.086859688195991,-0.08058377910637075
9.120267260579066,-0.0257618722338289
9.153674832962139,0.04866388077497151
9.187082405345212,0.12820328456828872
9.220489977728286,0.1908632909820719
9.25389755011136,0.21479337166413934
9.287305122494432,0.1878242930988395
9.320712694877507,0.1141757918014323
9.35412026726058,0.014613890456848985
9.387527839643653,-0.08065669539892051
9.420935412026727,-0.14361758313071726
9.4543429844098,-0.15960915496409642
9.487750556792873,-0.13311561873178104
9.521158129175948,-0.08547658370786619
9.55456570155902,-0.04531988248931441
9.587973273942094,-0.03575094980248694
9.621380846325168,-0.06392276445092039
9.654788418708241,-0.11773601222839064
9.688195991091314,-0.17129056803932285
9.721603563474389,-0.1966436155126028
9.755011135857462,-0.17638487589609808
9.788418708240535,-0.11114290281804158
9.82182628062361,-0.01869855594616264
9.855233853006682,0.074418159891026
9.888641425389755,0.14438960180512297
9.92204899777283,0.17907081386131773
9.955456570155903,0.18066036805962207
9.988864142538976,0.16174147501125563
10.02227171492205,0.13753596418183278
10.055679287305123,0.118589574490447
10.089086859688196,0.10726373206658996
10.12249443207127,0.09907498605852612
10.155902004454344,0.08742307909200116
10.189309576837417,0.06878312315239596
10.222717149220491,0.045550702338004526
10.256124721603564,0.025170504943318777
10.289532293986637,0.016144234646224727
10.322939866369712,0.023064224016562468
10.356347438752785,0.04327627339133036
10.389755011135858,0.06696689212438094
10.423162583518932,0.08079366314854591
10.456570155902005,0.07344038475556935
10.489977728285078,0.04053388399524956
10.523385300668153,-0.013323497824699026
10.556792873051226,-0.07624617480540884
10.590200445434299,-0.13356334844417903
10.623608017817373,-0.17298922461852542
10.657015590200446,-0.18823805274160682
10.69042316258352,-0.17984341093333012
10.723830734966594,-0.15340915191591042
10.757238307349667,-0.11666415582202345
10.790645879732741,-0.07694867099194753
10.824053452115814,-0.04009571293604093
10.857461024498887,-0.010583425593358259
10.890868596881962,0.00796535890693633
10.924276169265035,0.012891352298866761
10.957683741648108,0.003483506618603819
10.991091314031182,-0.017765889767151006
11.024498886414255,-0.04467911135130825
11.057906458797328,-0.06843873892861982
11.091314031180403,-0.08011386002064001
11.124721603563476,-0.07380862564276681
11.158129175946549,-0.049181254036340674
11.191536748329623,-0.012225204145840544
11.224944320712696,0.026244662438187075
11.25835189309577,0.054191420463358904
11.291759465478844,0.06301580429728874
11.325167037861917,0.051602640183398094
11.35857461024499,0.02792554694021735
11.391982182628064,0.0070180434577233
11.425389755011137,0.005523056815612736
11.45879732739421,0.034685274585156516
11.492204899777285,0.09471020024187708
11.525612472160358,0.17318377696589998
11.55902004454343,0.24864658202578366
11.592427616926505,0.29812797589012
11.625835189309578,0.3055922760591546
11.659242761692651,0.26777732204973154
11.692650334075726,0.19504837467953645
11.726057906458799,0.10705972640463578
11.759465478841872,0.0251694685285746
11.792873051224946,-0.03524620156122648
11.82628062360802,-0.06959533325823238
11.859688195991092,-0.0843258210445298
11.893095768374167,-0.09281889485529411
11.92650334075724,-0.10874714135905302
11.959910913140313,-0.13960159063920619
11.993318485523387,-0.1829590196629645
12.02672605790646,-0.22698823170402765
12.060133630289533,-0.25504399464118194
12.093541202672608,-0.2525634497283986
12.12694877505568,-0.21351980216548366
12.160356347438753,-0.14383231396649307
12.193763919821828,-0.060340684207496796
12.227171492204901,0.014286955584556072
12.260579064587974,0.058775936881727095
12.293986636971049,0.05993289184748583
12.327394209354122,0.016517605073082392
12.360801781737194,-0.06072140386371654
12.39420935412027,-0.1523567117490262
12.427616926503342,-0.2353967736808134
12.461024498886415,-0.2884802171213612
12.49443207126949,-0.29598614060101996
12.527839643652563,-0.2506859647286407
12.561247216035635,-0.15503368245724536
12.59465478841871,-0.021146809186153113
12.628062360801783,0.13077553487825713
12.661469933184856,0.27593558011424657
12.69487750556793,0.3901946176018834
12.728285077951004,0.45606604029245434
12.761692650334076,0.46755773573184795
12.795100222717151,0.4318326629760101
12.828507795100224,0.36655508994610986
12.861915367483297,0.29349747868215803
12.895322939866372,0.2307241894871433
12.928730512249444,0.1865096735885755
12.962138084632517,0.1575352618400036
12.995545657015592,0.1320371738516982
13.028953229398665,0.0963505091073245
13.062360801781738,0.04182728450610478
13.095768374164813,-0.030901722653033623
13.129175946547885,-0.11198714812075403
13.162583518930958,-0.18641455745355692
13.195991091314033,-0.24003909777375942
13.229398663697106,-0.26490278970924064
13.262806236080179,-0.2616464139833119
13.296213808463254,-0.2382414684026475
13.329621380846326,-0.2059413973482298
13.3630289532294,-0.17454083194074924
13.396436525612474,-0.14919762563853414
13.429844097995547,-0.1301416986633671
13.46325167037862,-0.1150299798580479
13.496659242761694,-0.10230400048828488
13.530066815144767,-0.09339501595536484
13.56347438752784,-0.09228471286081745
13.596881959910915,-0.10245830048659271
13.630289532293988,-0.12291693998033183
13.66369710467706,-0.14576826370007714
13.697104677060135,-0.15740924209473864
13.730512249443208,-0.14353370866958373
13.763919821826281,-0.09596785111060377
13.797327394209356,-0.01790938579381453
13.830734966592429,0.0755051962702271
13.864142538975502,0.16222007043645925
13.897550111358576,0.22187286789106042
13.93095768374165,0.24397670906041716
13.964365256124722,0.2317133384403234
13.997772828507797,0.19957642416864874
14.03118040089087,0.16621669583673002
14.064587973273943,0.14612676164945787
14.097995545657017,0.14405777173463433
14.13140311804009,0.15432000859178738
14.164810690423163,0.16455219872762938
14.198218262806238,0.16162394062186317
14.23162583518931,0.1369178818918434
14.265033407572384,0.08916723069871611
14.298440979955458,0.024453125060067714
14.331848552338531,-0.045957013975447984
14.365256124721604,-0.10887186840729753
14.398663697104679,-0.15260932978675465
14.432071269487752,-0.16990703603223598
14.465478841870825,-0.1597382504843495
14.4988864142539,-0.1275455796445639
14.532293986636972,-0.08367162546690879
14.565701559020045,-0.04029692261739967
14.59910913140312,-0.007799807225252307
14.632516703786193,0.008218189152331487
14.665924276169266,0.008184374396783545
14.69933184855234,-0.002321215030047857
14.732739420935413,-0.015161837961247083
14.766146993318486,-0.022931907899383066
14.79955456570156,-0.021705743070627358
14.832962138084634,-0.012259278657375338
14.866369710467707,0.0006476359119075564
14.899777282850781,0.010614579596012199
14.933184855233854,0.012601226649337991
14.966592427616927,0.005287934566678862
15.0,-0.008294406745721902
