Frequency (Hz),Amplitude
0.0,1.2472831362387713
0.019867549668874173,1.2467405306633146
0.039735099337748346,1.2451133916297183
0.059602649006622516,1.2424037529949894
0.07947019867549669,1.238615007141188
0.09933774834437085,1.2337519089919748
0.11920529801324503,1.227820581809694
0.13907284768211922,1.220828524953311
0.15894039735099338,1.2127846238364541
0.17880794701986755,1.2036991623919258
0.1986754966887417,1.1935838384237383
0.2185430463576159,1.18245178231434
0.23841059602649006,1.170317579654749
0.2582781456953642,1.1571972984822374
0.27814569536423844,1.143108521949193
0.2980132450331126,1.1280703874111173
0.31788079470198677,1.1121036331187883
0.33774834437086093,1.0952306539359036
0.3576158940397351,1.0774755677887426
0.3774834437086093,1.0588642948993052
0.3973509933774834,1.0394246522720898
0.4172185430463576,1.019186466413462
0.4370860927152318,0.9981817078825744
0.45695364238410596,0.9764446520283344
0.4768211920529801,0.954012071188654
0.49668874172185434,0.9309234647495163
0.5165562913907285,0.9072213348251492
0.5364238410596026,0.8829515169690023
0.5562913907284769,0.8581635773053798
0.5761589403973509,0.8329112898235987
0.5960264900662252,0.807253210323563
0.6158940397350993,0.7812533666263881
0.6357615894039735,0.7549820880704371
0.6556291390728477,0.7285170007571897
0.6754966887417219,0.701944217992195
0.695364238410596,0.6753597569429698
0.7152317880794702,0.648871211049634
0.7350993377483444,0.6225997003811206
0.7549668874172186,0.5966821044218588
0.7748344370860927,0.5712735467708685
0.7947019867549668,0.5465500389341948
0.8145695364238411,0.5227110876719696
0.8344370860927152,0.4999819127728289
0.8543046357615894,0.47861469981632215
0.8741721854304636,0.45888803361812286
0.8940397350993378,0.4411033725817021
0.9139072847682119,0.42557725478506536
0.9337748344370861,0.41262808713288496
0.9536423841059603,0.4025571239029855
0.9735099337748344,0.39562474905316786
0.9933774834437087,0.39202522233749276
1.0132450331125828,0.39186484616905237
1.033112582781457,0.3951489123993258
1.0529801324503312,0.40178104844850365
1.0728476821192052,0.4115751504630108
1.0927152317880795,0.42427656748601095
1.1125827814569538,0.4395872510681209
1.1324503311258278,0.45718979407115107
1.1523178807947019,0.47676699305865067
1.1721854304635762,0.4980156335920774
1.1920529801324504,0.5206547765145202
1.2119205298013245,0.544429649194254
1.2317880794701985,0.5691124532186754
1.2516556291390728,0.5945012524268348
1.271523178807947,0.6204178244557708
1.2913907284768211,0.6467050764659599
1.3112582781456954,0.6732243971093284
1.3311258278145695,0.6998531531762282
1.3509933774834437,0.7264824318913069
1.370860927152318,0.7530150641798882
1.390728476821192,0.7793639270296315
1.410596026490066,0.805450504005556
1.4304635761589404,0.8312036748379604
1.4503311258278146,0.8565587030767541
1.4701986754966887,0.8814563921616343
1.4900662251655628,0.9058423831439831
1.5099337748344372,0.929666570716707
1.5298013245033113,0.9528826176287196
1.5496688741721854,0.9754475507152447
1.5695364238410596,0.997321424558854
1.5894039735099337,1.0184670411837164
1.609271523178808,1.0388497161993977
1.6291390728476822,1.0584370834884977
1.6490066225165563,1.0771989319203372
1.6688741721854303,1.0951070687163205
1.6887417218543048,1.1121352050312572
1.7086092715231789,1.1282588600848453
1.728476821192053,1.1434552808094998
1.7483443708609272,1.1577033744990315
1.7682119205298013,1.1709836523691983
1.7880794701986755,1.1832781822925706
1.8079470198675496,1.1945705492601035
1.8278145695364238,1.2048458223630663
1.847682119205298,1.2140905272884426
1.8675496688741722,1.222292623489112
1.8874172185430464,1.2294414853301314
1.9072847682119205,1.2355278866320805
1.9271523178807946,1.240543988133483
1.9470198675496688,1.2444833274819158
1.9668874172185429,1.247340811439312
1.9867549668874174,1.249112710054053
2.0066225165562916,1.249796652612867
2.0264900662251657,1.2493916252400994
2.0463576158940397,1.247897970063888
2.066225165562914,1.2453173859177735
2.086092715231788,1.241652930594774
2.1059602649006623,1.2369090247200625
2.1258278145695364,1.231091457359195
2.1456953642384105,1.2242073935328226
2.165562913907285,1.2162653838679882
2.185430463576159,1.2072753766811253
2.205298013245033,1.1972487328622639
2.2251655629139075,1.1861982440143055
2.2450331125827816,1.1741381543997182
2.2649006622516556,1.1610841873621807
2.2847682119205297,1.1470535770267414
2.3046357615894038,1.132065106244104
2.324503311258278,1.1161391519380777
2.3443708609271523,1.0992977392483876
2.364238410596027,1.0815646061421
2.384105960264901,1.0629652805075311
2.403973509933775,1.043527172158787
2.423841059602649,1.0232796826831796
2.443708609271523,1.0022543366800605
2.463576158940397,0.9804849386921235
2.4834437086092715,0.9580077610506667
2.5033112582781456,0.934861768981892
2.52317880794702,0.9110888906943797
2.543046357615894,0.8867343418377298
2.562913907284768,0.8618470157409692
2.5827814569536423,0.836479953258481
2.6026490066225163,0.8106909089059708
2.622516556291391,0.7845430332694872
2.642384105960265,0.7581056953479449
2.662251655629139,0.7314554723533873
2.6821192052980134,0.7046773381049002
2.7019867549668874,0.6778660836673358
2.7218543046357615,0.6511280037608707
2.741721854304636,0.6245828770470613
2.76158940397351,0.5983662532926876
2.781456953642384,0.5726320287223666
2.801324503311258,0.5475552323428823
2.821192052980132,0.5233348466828236
2.8410596026490067,0.5001963297863705
2.8609271523178808,0.47839327771946727
2.8807947019867552,0.45820737028809744
2.9006622516556293,0.4399454194496091
2.9205298013245033,0.42393210789970137
2.9403973509933774,0.4104970861367648
2.9602649006622515,0.3999557882143389
2.9801324503311255,0.3925848517253873
3.0,0.3885952364134228
3.0198675496688745,0.3881082384602027
3.0397350993377485,0.39114031370833785
3.0596026490066226,0.3976009870919706
3.0794701986754967,0.40730446388556163
3.0993377483443707,0.41999158792172586
3.119205298013245,0.43535645607182405
3.1390728476821192,0.45307208194723986
3.1589403973509933,0.47281133554566535
3.1788079470198674,0.4942616737251773
3.198675496688742,0.5171339416842768
3.218543046357616,0.5411664484768259
3.23841059602649,0.5661257480397627
3.2582781456953644,0.5918053898510433
3.2781456953642385,0.6180235909946492
3.2980132450331126,0.6446204705326399
3.3178807947019866,0.6714552382138866
3.3377483443708607,0.6984035533969151
3.3576158940397347,0.7253551557654481
3.3774834437086096,0.7522118005596793
3.3973509933774837,0.7788854927117915
3.4172185430463577,0.8052969951351509
3.437086092715232,0.8313745786797119
3.456953642384106,0.8570529798998844
3.47682119205298,0.8822725346973166
3.4966887417218544,0.9069784592823015
3.5165562913907285,0.931120253729187
3.5364238410596025,0.9546512071482621
3.556291390728477,0.9775279869067173
3.576158940397351,0.9997102973101277
3.596026490066225,1.021160595693198
3.615894039735099,1.0418438559934415
3.6357615894039736,1.061727371645109
3.6556291390728477,1.080780591081052
3.6754966887417218,1.0989749803221518
3.695364238410596,1.1162839081072709
3.7152317880794703,1.1326825498146238
3.7350993377483444,1.1481478070762756
3.754966887417219,1.1626582405221537
3.774834437086093,1.1761940135269258
3.794701986754967,1.1887368451936038
3.814569536423841,1.2002699711040814
3.834437086092715,1.2107781106125062
3.854304635761589,1.2202474396612653
3.8741721854304636,1.228665568269127
3.8940397350993377,1.2360215219844093
3.9139072847682117,1.2423057267157445
3.9337748344370858,1.2475099964561382
3.9536423841059607,1.2516275235036498
3.9735099337748347,1.2546528708584428
3.993377483443709,1.2565819665434494
4.013245033112583,1.257412099655566
4.033112582781457,1.2571419180096708
4.052980132450331,1.2557714272881808
4.072847682119205,1.2533019916582568
4.0927152317880795,1.2497363358661238
4.112582781456953,1.2450785488662908
4.132450331125828,1.2393340890932933
4.152317880794702,1.2325097915365386
4.172185430463576,1.2246138768363122
4.19205298013245,1.21565596268273
4.211920529801325,1.205647077871988
4.231788079470199,1.1945996794562181
4.251655629139073,1.1825276735199273
4.271523178807947,1.1694464402281943
4.291390728476821,1.1553728639252052
4.311258278145695,1.1403253692200666
4.33112582781457,1.124323964187929
4.3509933774834435,1.107390292042741
4.370860927152318,1.0895476929166197
4.390728476821192,1.0708212777174855
4.410596026490066,1.0512380164488486
4.43046357615894,1.0308268438784955
4.450331125827815,1.0096187860605434
4.470198675496689,0.9876471119733151
4.490066225165563,0.9649475154688616
4.509933774834438,0.9415583338774753
4.529801324503311,0.9175208110231389
4.549668874172186,0.8928794141387806
4.569536423841059,0.8676822162902234
4.589403973509934,0.8419813584923644
4.6092715231788075,0.8158336087962827
4.629139072847682,0.7893010392875814
4.649006622516556,0.7624518461556277
4.66887417218543,0.7353613426570795
4.688741721854305,0.7081131595792007
4.708609271523179,0.6808006920055211
4.728476821192054,0.6535288334327686
4.748344370860927,0.6264160361075358
4.768211920529802,0.5995967255778037
4.788079470198675,0.5732240708788633
4.80794701986755,0.5474730585854907
4.827814569536423,0.5225437233697229
4.847682119205298,0.49866422933970017
4.867549668874172,0.47609325443810285
4.887417218543046,0.45512079559395857
4.9072847682119205,0.4360661148530034
4.927152317880794,0.41927119863086915
4.947019867549669,0.40508804531995635
4.966887417218543,0.3938586992767897
4.986754966887418,0.3858885581628079
5.006622516556291,0.38141606022079394
5.026490066225166,0.380584578612315
5.04635761589404,0.38342362402790314
5.066225165562914,0.38984487650937594
5.086092715231788,0.3996542777451551
5.105960264900662,0.4125764772141612
5.125827814569536,0.42828489774949763
5.14569536423841,0.44643069921483985
5.1655629139072845,0.46666616257765814
5.185430463576159,0.48866082070791583
5.205298013245033,0.51211077974878
5.225165562913908,0.5367427290143212
5.245033112582782,0.5623143469447758
5.264900662251656,0.5886125643086584
5.28476821192053,0.6154507522877303
5.304635761589404,0.6426655317599316
5.324503311258278,0.6701136139187455
5.344370860927152,0.6976688865518467
5.364238410596027,0.7252198375016594
5.3841059602649,0.7526673356329239
5.403973509933775,0.7799227519178459
5.4238410596026485,0.8069063858833093
5.443708609271523,0.8335461569340351
5.463576158940397,0.8597765205360516
5.483443708609272,0.8855375726845685
5.503311258278146,0.9107743106640375
5.52317880794702,0.9354360228555155
5.543046357615895,0.9594757847785824
5.562913907284768,0.9828500424703308
5.582781456953643,1.0055182676522672
5.602649006622516,1.0274426719408054
5.622516556291391,1.0485879696778362
5.642384105960264,1.0689211808602481
5.662251655629139,1.0884114672007932
5.682119205298013,1.1070299956161258
5.701986754966887,1.1247498244652632
5.7218543046357615,1.1415458086962473
5.741721854304636,1.1573945207379854
5.7615894039735105,1.172274184527593
5.781456953642384,1.1861646205149237
5.801324503311259,1.199047199856345
5.821192052980132,1.2109048063130348
5.841059602649007,1.2217218046197522
5.860927152317881,1.231484014297049
5.880794701986755,1.2401786880523666
5.900662251655629,1.2477944940592243
5.920529801324503,1.2543215015253324
5.940397350993377,1.2597511690628878
5.960264900662251,1.2640763354625582
5.980132450331126,1.2672912125485458
6.0,1.2693913798590986
6.0198675496688745,1.2703737809560758
6.039735099337749,1.2702367212212569
6.059602649006623,1.2689798670472179
6.079470198675497,1.2666042463781313
6.099337748344371,1.2631122506025108
6.119205298013245,1.2585076378464355
6.139072847682119,1.2527955377643087
6.158940397350993,1.2459824579750567
6.178807947019867,1.2380762923472997
6.198675496688741,1.2290863313984177
6.218543046357616,1.2190232751422272
6.23841059602649,1.2078992487995162
6.258278145695365,1.1957278218785563
6.2781456953642385,1.182524031241629
6.298013245033113,1.168304408903052
6.317880794701987,1.1530870154584902
6.337748344370861,1.1368914802311036
6.357615894039735,1.1197390494449448
6.377483443708609,1.1016526440089625
6.397350993377484,1.0826569288284655
6.417218543046357,1.0627783959696753
6.437086092715232,1.0420454645054928
6.456953642384105,1.020488600491166
6.47682119205298,0.9981404612857186
6.496688741721854,0.9750360693871517
6.516556291390729,0.9512130221310011
6.5364238410596025,0.9267117450718948
6.556291390728477,0.901575798693717
6.5761589403973515,0.8758522503608228
6.596026490066225,0.8495921262254374
6.6158940397351,0.8228509612504298
6.635761589403973,0.7956894696963874
6.655629139072848,0.7681743634343864
6.675496688741721,0.7403793512879072
6.695364238410596,0.7123863591233746
6.715231788079469,0.6842870171225948
6.735099337748344,0.6561844665031191
6.754966887417219,0.6281955407520262
6.774834437086093,0.6004533722025525
6.794701986754967,0.5731104564860223
6.814569536423841,0.546342163322947
6.8344370860927155,0.5203505939488527
6.854304635761589,0.49536852694764943
6.874172185430464,0.47166293307900015
6.894039735099337,0.4495371480908581
6.913907284768212,0.4293302761393919
6.933774834437086,0.41141185131058267
6.95364238410596,0.3961694773233814
6.973509933774834,0.3839875803933498
6.993377483443709,0.3752171251786442
7.013245033112583,0.37013936830319477
7.033112582781457,0.3689305996389485
7.052980132450331,0.3716371838677628
7.072847682119205,0.3781687477997168
7.0927152317880795,0.3883118066533886
7.112582781456954,0.4017592689449866
7.132450331125828,0.41814695750705827
7.152317880794702,0.4370883274914578
7.172185430463576,0.45820174317758844
7.19205298013245,0.4811285043141368
7.211920529801324,0.5055425364871953
7.231788079470198,0.531153865331404
7.251655629139073,0.5577080930369115
7.271523178807947,0.5849836640844673
7.291390728476822,0.6127881545331362
7.311258278145695,0.6409543431283815
7.33112582781457,0.6693364791896413
7.3509933774834435,0.6978069409952374
7.370860927152318,0.7262533479583104
7.390728476821192,0.7545761196218713
7.410596026490066,0.7826864410176734
7.430463576158941,0.810504581471824
7.450331125827814,0.8379585126589939
7.470198675496689,0.8649827758081304
7.490066225165562,0.8915175542019269
7.509933774834438,0.9175079137793082
7.52980132450331,0.9429031809165843
7.549668874172186,0.9676564319859453
7.569536423841059,0.9917240739816593
7.589403973509934,1.015065499401789
7.6092715231788075,1.0376428017652162
7.629139072847682,1.0594205407354493
7.649006622516557,1.0803655479160241
7.66887417218543,1.1004467660682136
7.6887417218543055,1.1196351158580362
7.708609271523178,1.1379033853312086
7.728476821192054,1.1552261381937863
7.748344370860927,1.1715796376859624
7.768211920529802,1.1869417834104374
7.788079470198675,1.2012920589423948
7.80794701986755,1.2146114884272747
7.827814569536423,1.226882600681903
7.847682119205298,1.2380893995684803
7.8675496688741715,1.24821733961994
7.887417218543046,1.2572533060684066
7.907284768211921,1.2651855985722813
7.927152317880795,1.2720039180586216
7.9470198675496695,1.2776993561988834
7.966887417218543,1.2822643871235757
7.986754966887418,1.2856928610555485
8.006622516556291,1.287979999607475
8.026490066225167,1.2891223925465958
8.046357615894038,1.2891179958824575
8.066225165562914,1.2879661311813755
8.086092715231787,1.2856674860573978
8.105960264900663,1.2822241158337788
8.125827814569536,1.2776394464135898
8.14569536423841,1.27191827844391
8.165562913907285,1.2650667929064217
8.185430463576159,1.2570925583195969
8.205298013245034,1.248004539796177
8.225165562913906,1.2378131102652241
8.245033112582782,1.226530064243512
8.264900662251655,1.2141686346295952
8.28476821192053,1.200743513096993
8.304635761589404,1.1862708747868487
8.324503311258278,1.1707684081482779
8.344370860927151,1.1542553509532174
8.364238410596027,1.1367525337301017
8.3841059602649,1.1182824321254548
8.403973509933774,1.0988692300289384
8.42384105960265,1.0785388956981883
8.443708609271523,1.0573192736182444
8.463576158940398,1.0352401954484347
8.483443708609272,1.0123336141819532
8.503311258278146,0.9886337666102193
8.52317880794702,0.9641773703983205
8.543046357615895,0.9390038636062221
8.562913907284768,0.913155696418211
8.582781456953642,0.8866786872755007
8.602649006622515,0.8596224586761813
8.62251655629139,0.8320409717695769
8.642384105960264,0.8039931837124411
8.66225165562914,0.7755438577665796
8.682119205298013,0.7467645634827909
8.701986754966887,0.7177349131301487
8.721854304635762,0.6885440906731167
8.741721854304636,0.6592927404793413
8.76158940397351,0.6300952930175543
8.781456953642383,0.6010828107484963
8.801324503311259,0.57240643267934
8.821192052980132,0.5442414685974348
8.841059602649008,0.5167921229641868
8.86092715231788,0.49029668020014816
8.880794701986755,0.4650327087356808
8.90066225165563,0.44132138185045905
8.920529801324504,0.41952932706652585
8.940397350993377,0.4000655492582606
8.960264900662251,0.383370194655343
8.980132450331126,0.3698918805349468
9.0,0.3600520129235781
9.019867549668875,0.354198742084492
9.039735099337747,0.35255926662333054
9.059602649006623,0.35520390484036574
9.079470198675496,0.3620343808991155
9.099337748344372,0.37280074776607497
9.119205298013245,0.387140556364544
9.139072847682119,0.4046270666363902
9.158940397350994,0.42481369002372144
9.178807947019868,0.4472671618273489
9.198675496688743,0.47158780407197315
9.218543046357615,0.49741895543321946
9.23841059602649,0.5244489215117878
9.258278145695364,0.5524085466814848
9.27814569536424,0.5810666813200408
9.298013245033111,0.610224978795575
9.317880794701987,0.6397128174471772
9.33774834437086,0.6693827250998632
9.357615894039736,0.6991064387590094
9.37748344370861,0.7287716022818506
9.397350993377483,0.758279044292961
9.417218543046358,0.7875405566676841
9.437086092715232,0.8164770917725026
9.456953642384107,0.8450173036030388
9.47682119205298,0.8730963682333416
9.496688741721854,0.9006550296925313
9.516556291390728,0.9276388272075068
9.536423841059603,0.9539974682143255
9.556291390728477,0.9796843185809221
9.57615894039735,1.0046559872143508
9.596026490066224,1.0288719868322258
9.6158940397351,1.052294456351465
9.635761589403973,1.0748879332649965
9.655629139072847,1.0966191666897425
9.675496688741722,1.1174569636022007
9.695364238410596,1.137372062232265
9.715231788079471,1.1563370277414364
9.735099337748345,1.1743261662327493
9.754966887417218,1.1913154538753812
9.774834437086092,1.207282478517239
9.794701986754967,1.2222063916334023
9.814569536423841,1.236067868842128
9.834437086092716,1.2488490775310253
9.854304635761588,1.2605336503899276
9.874172185430464,1.271106663854334
9.894039735099337,1.280554620634458
9.913907284768213,1.2888654356460982
9.933774834437086,1.2960284247779377
9.95364238410596,1.302034296028764
9.973509933774835,1.3068751426318146
9.993377483443709,1.310544437856102
10.013245033112582,1.3130370312363473
10.033112582781456,1.3143491460387362
10.052980132450331,1.314478377819101
10.072847682119205,1.313423693975426
10.09271523178808,1.3111854342396128
10.112582781456952,1.3077653120947372
10.132450331125828,1.3031664171452477
10.152317880794701,1.2973932185097297
10.172185430463577,1.2904515693507297
10.192052980132452,1.2823487127040185
10.211920529801324,1.2730932888232465
10.2317880794702,1.2626953443166928
10.251655629139073,1.2511663434218565
10.271523178807948,1.238519181845432
10.29139072847682,1.224768203691538
10.311258278145695,1.2099292221164633
10.331125827814569,1.1940195444850705
10.350993377483444,1.1770580029725022
10.370860927152318,1.1590649917582176
10.390728476821192,1.140062512211335
10.410596026490065,1.1200742277760187
10.43046357615894,1.099125530651429
10.450331125827816,1.0772436228420843
10.470198675496688,1.0544576147575508
10.490066225165563,1.0307986453017361
10.509933774834437,1.006300028354548
10.529801324503312,0.9809974317727235
10.549668874172186,0.9549290965993885
10.56953642384106,0.9281361061729798
10.589403973509933,0.9006627173984497
10.609271523178808,0.8725567697572922
10.629139072847682,0.8438701919079515
10.649006622516556,0.8146596312443818
