Time (s),Filtered Signal
0.0,-0.010430151089101761
0.033370535714285714,0.4539337692789671
0.06674107142857143,0.75817169810371
0.10011160714285713,0.7811466744332667
0.13348214285714285,0.470939798456752
0.16685267857142858,-0.1404499583201738
0.20022321428571427,-0.9433671111492722
0.23359375,-1.7781300679967404
0.2669642857142857,-2.477827417078726
0.30033482142857143,-2.9139204567922237
0.33370535714285715,-3.0297742886208017
0.36707589285714287,-2.850535629309279
0.40044642857142854,-2.466316298021697
0.43381696428571426,-1.9959088089949213
0.4671875,-1.545535450222023
0.5005580357142857,-1.1781074708572552
0.5339285714285714,-0.902977865652739
0.5672991071428571,-0.6870429843014456
0.6006696428571429,-0.479490758795457
0.6340401785714286,-0.23807351117322623
0.6674107142857143,0.054013449483070554
0.70078125,0.38578556628749266
0.7341517857142857,0.7284446389890442
0.7675223214285715,1.0501450097136524
0.8008928571428571,1.327188944234894
0.8342633928571428,1.5469838077633598
0.8676339285714285,1.7038388026802762
0.9010044642857142,1.7929107495093983
0.934375,1.8078740337910355
0.9677455357142857,1.7444023133911444
1.0011160714285714,1.6069339906579965
1.0344866071428571,1.413582560216968
1.0678571428571428,1.1949728860448365
1.1012276785714286,0.9863589987521678
1.1345982142857143,0.8162258729431501
1.16796875,0.696492574859215
1.2013392857142857,0.6186191422134512
1.2347098214285714,0.5571366879623726
1.2680803571428572,0.4789776152129129
1.3014508928571429,0.35495715535835703
1.3348214285714286,0.16949562117369882
1.3681919642857143,-0.07414855976473471
1.4015625,-0.35413037727248103
1.4349330357142858,-0.6352762979363841
1.4683035714285715,-0.8779528288143439
1.5016741071428572,-1.0485867645582518
1.535044642857143,-1.129388059468899
1.5684151785714286,-1.1244606455794217
1.6017857142857141,-1.0597022669284832
1.6351562499999999,-0.9752155853701201
1.6685267857142856,-0.9114589299514663
1.7018973214285713,-0.8933455494899926
1.735267857142857,-0.9185442638619054
1.7686383928571427,-0.9558460282654052
1.8020089285714285,-0.9560128419658737
1.8353794642857142,-0.8720247175932474
1.86875,-0.680633333862993
1.9021205357142856,-0.395473837170435
1.9354910714285714,-0.06507740759046679
1.968861607142857,0.24418376880565695
2.002232142857143,0.4731356608537477
2.0356026785714287,0.5918741946854403
2.0689732142857142,0.6091706361540756
2.10234375,0.5652692552427201
2.1357142857142857,0.5116504846673225
2.169084821428571,0.48712257615148247
2.202455357142857,0.5010789440932023
2.2358258928571426,0.5313254124543871
2.2691964285714286,0.5371345309455142
2.302566964285714,0.4811786273054084
2.3359375,0.34993071368349693
2.3693080357142855,0.1629118516928206
2.4026785714285714,-0.03354273540617301
2.436049107142857,-0.18506269525936048
2.469419642857143,-0.2518850021440397
2.5027901785714284,-0.22511117435457503
2.5361607142857143,-0.1294879960171671
2.56953125,-0.011838252362061133
2.6029017857142858,0.07936113792071263
2.6362723214285713,0.11402602445287752
2.669642857142857,0.09136711997741309
2.7030133928571427,0.037235370669613986
2.7363839285714286,-0.010253015224304586
2.769754464285714,-0.019719671423469327
2.803125,0.018772422579800732
2.8364955357142856,0.08987921756962977
2.8698660714285715,0.161258273187998
2.903236607142857,0.199601449218883
2.936607142857143,0.18671281876573095
2.9699776785714285,0.12826815344823106
3.0033482142857144,0.051505166277147234
3.03671875,-0.00684291468481416
3.070089285714286,-0.01683790595753205
3.1034598214285714,0.0313200543874338
3.1368303571428573,0.12260405637255536
3.170200892857143,0.2230417261740334
3.2035714285714283,0.29360207268120575
3.2369419642857142,0.30617900477225235
3.2703124999999997,0.2548720495652235
3.3036830357142857,0.15768973405834713
3.337053571428571,0.047830222908944495
3.370424107142857,-0.04173036995447567
3.4037946428571426,-0.09339850799087356
3.4371651785714286,-0.11265725377126114
3.470535714285714,-0.12424959769035354
3.50390625,-0.15833359022044682
3.5372767857142855,-0.2334458918587771
3.5706473214285714,-0.3453698324907833
3.604017857142857,-0.46846795647586276
3.637388392857143,-0.5695048478351177
3.6707589285714284,-0.6267283087681857
3.7041294642857143,-0.643152410005712
3.7375,-0.6452407544742271
3.7708705357142858,-0.6658953082338991
3.8042410714285713,-0.719936272209282
3.837611607142857,-0.7859121442969349
3.8709821428571427,-0.8064442106504394
3.9043526785714286,-0.7104933583391455
3.937723214285714,-0.4491105966264102
3.97109375,-0.027651693088463755
4.004464285714286,0.4828862472550621
4.0378348214285715,0.9639290025582492
4.0712053571428575,1.291355459581587
4.1045758928571425,1.3839139860142384
4.1379464285714285,1.2363697635716824
4.171316964285714,0.9219904017280158
4.2046875,0.5627099432092756
4.238058035714285,0.27999675211261993
4.271428571428571,0.14811969068629302
4.304799107142857,0.17006081321913533
4.338169642857142,0.2854886188515413
4.371540178571428,0.40522641327655945
4.404910714285714,0.45475871656540934
4.43828125,0.4061521454218809
4.471651785714285,0.28455182297675624
4.505022321428571,0.1484317003346486
4.538392857142857,0.0553820315891749
4.571763392857143,0.03128480719513793
4.605133928571428,0.0576997194420394
4.638504464285714,0.08227347412849384
4.671875,0.045457415154638865
4.705245535714286,-0.09040223213485746
4.738616071428571,-0.3232880571264604
4.771986607142857,-0.6119498310564975
4.805357142857143,-0.89229169920844
4.838727678571429,-1.1007231317255977
4.872098214285714,-1.1940734436576368
4.90546875,-1.1592371593738124
4.938839285714286,-1.0115049324261403
4.972209821428572,-0.7852807378220876
5.005580357142857,-0.5226353208904017
5.038950892857143,-0.2639276054918548
5.072321428571429,-0.042019782335320534
5.105691964285715,0.12076200410072228
5.1390625,0.21460825114168286
5.172433035714286,0.24399515743568242
5.2058035714285715,0.2284097002547071
5.2391741071428575,0.20001375690013837
5.2725446428571425,0.19662958852760823
5.3059151785714285,0.2505514570695446
5.339285714285714,0.37648548808143845
5.3726562499999995,0.5636529254223756
5.406026785714285,0.77637279614181
5.439397321428571,0.9641909988062778
5.472767857142857,1.078286857225541
5.506138392857142,1.0876891410870906
5.539508928571428,0.9885320949354673
5.572879464285714,0.8025001516098411
5.60625,0.5654616038651095
5.639620535714285,0.31181769907640244
5.672991071428571,0.06211731449198402
5.706361607142857,-0.18008135806804793
5.739732142857143,-0.42072484166429525
5.773102678571428,-0.661350825922805
5.806473214285714,-0.886751942936176
5.83984375,-1.0621087143461714
5.873214285714286,-1.143044602726893
5.906584821428571,-1.0951559625869915
5.939955357142857,-0.9137325249801851
5.973325892857143,-0.6330436632462679
6.006696428571429,-0.3189694046546079
6.040066964285714,-0.04689115541097015
6.0734375,0.12571500570558633
6.106808035714286,0.17973940198752233
6.140178571428572,0.1390560040366107
6.173549107142857,0.057895640620117414
6.206919642857143,-0.0027644013958551122
6.240290178571429,0.0006639161967105431
6.273660714285715,0.07940801516535093
6.30703125,0.21144570435901225
6.340401785714286,0.3534027787829626
6.3737723214285715,0.45906606579712234
6.407142857142857,0.49660892831225034
6.4405133928571425,0.45827599956661474
6.4738839285714285,0.360112694208161
6.507254464285714,0.233447273820711
6.5406249999999995,0.11255170701078986
6.573995535714285,0.023445355063717425
6.607366071428571,-0.02255906782615627
6.640736607142857,-0.029286208409415447
6.674107142857142,-0.011073445650924475
6.707477678571428,0.01444043193567226
6.740848214285714,0.033157953110881884
6.77421875,0.038559679245829315
6.807589285714285,0.03181892746569665
6.840959821428571,0.018565122794850814
6.874330357142857,0.004252022479088648
6.907700892857143,-0.009468885352147577
6.941071428571428,-0.025684242182910218
6.974441964285714,-0.05024525743783582
7.0078125,-0.08807946364108817
7.041183035714286,-0.13964284637240473
7.074553571428571,-0.1990783249001773
7.107924107142857,-0.254736082334584
7.141294642857143,-0.29173437392801316
7.174665178571429,-0.2956327601117932
7.208035714285714,-0.25619260203565597
7.24140625,-0.17046820004628518
7.274776785714286,-0.04480702002497662
7.308147321428572,0.10453399251689777
7.341517857142857,0.25258591947384507
7.374888392857143,0.3692596914980179
7.408258928571429,0.4256338639840915
7.441629464285715,0.40224385886779085
7.475,0.297196522025999
7.508370535714286,0.1307746881334473
7.5417410714285715,-0.05665967414265489
7.575111607142857,-0.21470967146766778
7.6084821428571425,-0.29888716499775847
7.6418526785714285,-0.2871333551526515
7.675223214285714,-0.19006179655494457
7.7085937499999995,-0.04951301887279881
7.741964285714285,0.07561842380670682
7.775334821428571,0.1316640679690333
7.808705357142857,0.09169728138256696
7.842075892857142,-0.03302958714984604
7.875446428571428,-0.19704509959222952
7.908816964285714,-0.3386159000100672
7.9421875,-0.40409159173338355
7.975558035714285,-0.3683272463919822
8.008928571428571,-0.2428896346624223
8.042299107142856,-0.06937188919789346
8.075669642857143,0.09840177708032255
8.109040178571428,0.21517599309594224
8.142410714285715,0.2594997701787438
8.17578125,0.23801389415845808
8.209151785714285,0.1784608731550773
8.242522321428572,0.11569568644332759
8.275892857142857,0.07729123826746784
8.309263392857142,0.0745996281940758
8.342633928571429,0.10191129078408107
8.376004464285714,0.1423409822657691
8.409375,0.1763349083661249
8.442745535714286,0.18855020622392307
8.47611607142857,0.17102426648813288
8.509486607142858,0.123324848265254
8.542857142857143,0.051812786627454296
8.576227678571428,-0.03056312227660351
8.609598214285715,-0.1045504136023578
8.64296875,-0.1470819673813218
8.676339285714285,-0.13760301002743694
8.709709821428572,-0.06733072790961381
8.743080357142857,0.052496917195411066
8.776450892857143,0.18865304350408987
8.809821428571428,0.29367753418889286
8.843191964285714,0.3222251242103579
8.8765625,0.24982610075560044
8.909933035714285,0.08534221391382861
8.94330357142857,-0.12969593638189694
8.976674107142857,-0.3358096493736684
9.010044642857142,-0.4783312402830652
9.04341517857143,-0.5279246162170829
9.076785714285714,-0.48950392738340964
9.11015625,-0.39589278488299356
9.143526785714286,-0.2900262729934953
9.176897321428571,-0.2047867181660799
9.210267857142856,-0.15007685916016975
9.243638392857143,-0.11250229126798897
9.277008928571428,-0.06650747452648709
9.310379464285715,0.009611241693341809
9.34375,0.12114197753503478
9.377120535714285,0.25370126656782926
9.410491071428572,0.38001155551493426
9.443861607142857,0.4723887129915841
9.477232142857142,0.514182592373342
9.510602678571429,0.5046537236033456
9.543973214285714,0.4557484153633478
9.57734375,0.3835878061863152
9.610714285714286,0.29981917426374727
9.64408482142857,0.2072780778760782
9.677455357142858,0.10152967559917792
9.710825892857143,-0.023257091828130953
9.744196428571428,-0.1673598683097026
9.777566964285715,-0.3206557851312875
9.8109375,-0.46188681630077105
9.844308035714285,-0.5626554220708511
9.877678571428572,-0.5954546416462453
9.911049107142857,-0.5436621702723113
9.944419642857143,-0.41010292570597867
9.977790178571428,-0.22026442180406963
10.011160714285714,-0.017468311427781626
10.04453125,0.14961513363585469
10.077901785714285,0.24300774462284386
10.11127232142857,0.24860827166583668
10.144642857142857,0.18073038794840748
10.178013392857142,0.07571797862731744
10.21138392857143,-0.022841008882725816
10.244754464285714,-0.08100460928758213
10.278125,-0.0862510837688736
10.311495535714286,-0.049337815159616626
10.344866071428571,0.003915439712382364
10.378236607142856,0.04646470399517096
10.411607142857143,0.0627147225580251
10.444977678571428,0.05427496816689707
10.478348214285715,0.03678944512658867
10.51171875,0.030274621717230513
10.545089285714285,0.04830403715919283
10.578459821428572,0.09142677592352003
10.611830357142857,0.14759964557344246
10.645200892857142,0.19865689508401743
10.678571428571429,0.22891875248715768
10.711941964285714,0.23138432973873255
10.745312499999999,0.20873910326819534
10.778683035714286,0.16950301985214464
10.81205357142857,0.12227086407352084
10.845424107142858,0.07171869203873886
10.878794642857143,0.018583370084845726
10.912165178571428,-0.03683973871065275
10.945535714285715,-0.09035469197640825
10.97890625,-0.13186138150584914
11.012276785714285,-0.1475104833047917
11.045647321428572,-0.12551314324654564
11.079017857142857,-0.06310768963407552
11.112388392857143,0.028581391978222705
11.145758928571428,0.12441916214667875
11.179129464285714,0.19082411771287663
11.2125,0.19585682040283464
11.245870535714285,0.12075033875416195
11.27924107142857,-0.031267125246417
11.312611607142857,-0.23265691680855252
11.345982142857142,-0.4376014532195713
11.37935267857143,-0.5951287469373037
11.412723214285714,-0.6650204800417225
11.44609375,-0.6306212693886878
11.479464285714286,-0.503549876545188
11.512834821428571,-0.31849692544335095
11.546205357142856,-0.12039981166194663
11.579575892857143,0.050640465497290815
11.612946428571428,0.17076387684686037
11.646316964285715,0.23623866813179464
11.6796875,0.2595694904635933
11.713058035714285,0.26078790035236765
11.746428571428572,0.2583023431665662
11.779799107142857,0.26292303059902095
11.813169642857142,0.27649375063470355
11.846540178571429,0.29427526643357743
11.879910714285714,0.3089361526640581
11.913281249999999,0.31407252986609896
11.946651785714286,0.3061802151909647
11.98002232142857,0.28514598070300834
12.013392857142858,0.25394041545544316
12.046763392857143,0.21806333216210091
12.080133928571428,0.18468368626246487
12.113504464285715,0.1609049752018732
12.146875,0.1507323393694553
12.180245535714285,0.15129338575598916
12.213616071428572,0.15020988591539017
12.246986607142857,0.1267233139692934
12.280357142857143,0.058240250364589886
12.313727678571428,-0.06879337840376856
12.347098214285714,-0.24816931017382263
12.38046875,-0.44962862143326277
12.413839285714285,-0.6255868953073784
12.44720982142857,-0.7282163580871074
12.480580357142857,-0.7299701295099524
12.513950892857142,-0.6372193185787366
12.54732142857143,-0.48885352165026247
12.580691964285714,-0.3390086984733796
12.6140625,-0.2317491038119584
12.647433035714286,-0.18053953026223923
12.680803571428571,-0.16350093728922346
12.714174107142856,-0.137382839491087
12.747544642857143,-0.06316272313812303
12.780915178571428,0.07028894309156268
12.814285714285713,0.23729746122296366
12.84765625,0.38636146036576025
12.881026785714285,0.465613275991563
12.914397321428572,0.44961774485300443
12.947767857142857,0.3535605669128447
12.981138392857142,0.2273836452051656
13.014508928571429,0.13273595272156183
13.047879464285714,0.11430447494033873
13.081249999999999,0.17973007923259346
13.114620535714286,0.29768929284066437
13.14799107142857,0.41438044567610427
13.181361607142858,0.47950590847284374
13.214732142857143,0.4685921574106077
13.248102678571428,0.3911404545876499
13.281473214285715,0.2819237944088047
13.31484375,0.18133658997482952
13.348214285714285,0.11554689738751069
13.381584821428572,0.08615943309696426
13.414955357142857,0.07333493660889916
13.448325892857143,0.04926806768080139
13.481696428571428,-0.005788585130404112
13.515066964285714,-0.09320694379848614
13.5484375,-0.19613965395626004
13.581808035714285,-0.2895439758057418
13.61517857142857,-0.35472952544108116
13.648549107142857,-0.3909295688616598
13.681919642857142,-0.4176160487444173
13.71529017857143,-0.46539916323193536
13.748660714285714,-0.558789895681889
13.78203125,-0.6985933795493965
13.815401785714286,-0.8530439757647296
13.848772321428571,-0.9638436936443402
13.882142857142856,-0.9667544297039764
13.915513392857143,-0.8190212469817423
13.948883928571428,-0.5213572736053697
13.982254464285713,-0.12335636618566657
14.015625,0.2917617530411129
14.048995535714285,0.6372843497630326
14.082366071428572,0.8545813696298997
14.115736607142857,0.9316266007723242
14.149107142857142,0.9003818596279055
14.182477678571429,0.8155219717986565
14.215848214285714,0.7259873907156827
14.249218749999999,0.6535903200999436
14.282589285714286,0.588280046942217
14.31595982142857,0.5006110504394085
14.349330357142858,0.36345800463633887
14.382700892857143,0.17129713038634065
14.416071428571428,-0.05228421624196421
14.449441964285715,-0.2616995342736996
14.4828125,-0.4069859673287031
14.516183035714285,-0.45366450119486074
14.549553571428572,-0.39652430939841754
14.582924107142857,-0.26228854349484987
14.616294642857143,-0.10071060205712498
14.649665178571428,0.03233765931036763
14.683035714285714,0.09385591478141231
14.71640625,0.06838543481828571
14.749776785714285,-0.026729915635887225
14.78314732142857,-0.14773453894015096
14.816517857142857,-0.240859510996242
14.849888392857142,-0.2631860714843713
14.88325892857143,-0.20004167826478353
14.916629464285714,-0.0715451808079612
14.95,0.07514776877852458
14.983370535714286,0.18523796325709782
15.016741071428571,0.2190810851408928
15.050111607142856,0.16812046107462808
15.083482142857143,0.05668186103246559
15.116852678571428,-0.07080278343672596
15.150223214285713,-0.17040972998716014
15.18359375,-0.2168426556209283
15.216964285714285,-0.21063259273781243
15.250334821428572,-0.1722124489821283
15.283705357142857,-0.1275829292345444
15.317075892857142,-0.09409309560846876
15.350446428571429,-0.07373130394878179
15.383816964285714,-0.05634084673670631
15.417187499999999,-0.02945059328063129
15.450558035714286,0.01185173956796529
15.48392857142857,0.060848402062943625
15.517299107142858,0.10283509451388817
15.550669642857143,0.1237001103823639
15.584040178571428,0.11788758155258526
15.617410714285715,0.09083132709628737
15.65078125,0.05453830726543629
15.684151785714285,0.019392250564330648
15.717522321428572,-0.012234452304183085
15.750892857142857,-0.045970026685378224
15.784263392857143,-0.08851429824779292
15.817633928571428,-0.13802910381464725
15.851004464285714,-0.17853807074401798
15.884375,-0.18338525758563748
15.917745535714285,-0.12767667710496172
15.95111607142857,-0.0038376020508209363
15.984486607142857,0.16854137513631637
16.017857142857142,0.3454119044365167
16.05122767857143,0.4741067877508348
16.084598214285712,0.5156134016963236
16.11796875,0.46240750458449353
16.151339285714286,0.3424534169040209
16.18470982142857,0.20658165010179844
16.218080357142856,0.10481425056061269
16.251450892857143,0.06297178115434787
16.28482142857143,0.07105594367670783
16.318191964285713,0.08930543488113085
16.3515625,0.06919860251578445
16.384933035714287,-0.02073159240611092
16.41830357142857,-0.1769187820388754
16.451674107142857,-0.35959730475603846
16.485044642857144,-0.5093332001966582
16.518415178571427,-0.5735869056790138
16.551785714285714,-0.5308216090010877
16.58515625,-0.4008876322760229
16.618526785714284,-0.23696725157333226
16.65189732142857,-0.10296133535829033
16.685267857142858,-0.04668278331222
16.71863839285714,-0.08067934020888992
16.752008928571428,-0.17860300851940403
16.785379464285715,-0.28792670285316996
16.81875,-0.3528404773403273
16.852120535714285,-0.33727250315040946
16.88549107142857,-0.23852001266085945
16.91886160714286,-0.08638387324893206
16.95223214285714,0.0710527688060105
16.98560267857143,0.1883938837054788
17.018973214285715,0.24154561259432658
17.05234375,0.23628404468623868
17.085714285714285,0.20368451489791703
17.119084821428572,0.18504310383452263
17.152455357142856,0.21323934832778219
17.185825892857142,0.29858980892395837
17.21919642857143,0.42484821430484543
17.252566964285712,0.5564197949942478
17.2859375,0.6532043903060635
17.319308035714286,0.6866629956424146
17.35267857142857,0.65061976801759
17.386049107142856,0.5627155743131135
17.419419642857143,0.45622707015272235
17.45279017857143,0.36570074583950474
17.486160714285713,0.31216678331970604
17.51953125,0.29375441961589077
17.552901785714287,0.28534047034945254
17.58627232142857,0.24734782793119753
17.619642857142857,0.14042600154326382
17.653013392857144,-0.05921462613900045
17.686383928571427,-0.3490228260018633
